# Requested Sampling Rate (Hz):,1000
# Actual Sampling Rate (Hz):,998.365
# Requested Duration (s):,5.0
# Actual Duration (s):,5.046
# REST Calibration:,831.9749657534268,832.2800684931498,831.8001369863033
# MAX Calibration:,884.0000,892.0000,887.0000
# Normalization: MVC-based  (x_norm = (x - REST) / (MAX - REST))
sample_idx,EMG1,EMG2,EMG3
0,0.000481,0.045545,-0.014495
1,-0.01874,0.0288,0.021737
2,0.000481,-0.00469,0.057969
3,0.000481,-0.00469,0.039853
4,0.000481,-0.021435,0.039853
5,0.000481,-0.00469,-0.014495
6,0.000481,-0.021435,-0.014495
7,0.019703,-0.021435,-0.014495
8,0.019703,-0.00469,-0.068843
9,0.019703,-0.00469,-0.086959
10,-0.01874,-0.00469,-0.032611
11,0.000481,0.0288,0.039853
12,-0.01874,-0.00469,0.021737
13,0.000481,-0.021435,0.057969
14,0.000481,-0.021435,0.021737
15,0.000481,-0.021435,0.003621
16,-0.037962,-0.00469,0.021737
17,-0.01874,0.012055,-0.014495
18,0.000481,0.012055,0.021737
19,0.000481,0.012055,0.003621
20,0.000481,0.012055,0.021737
21,0.000481,-0.00469,0.021737
22,-0.01874,-0.00469,0.021737
23,0.000481,-0.00469,-0.032611
24,0.019703,-0.021435,-0.050727
25,0.000481,0.012055,0.021737
26,0.019703,-0.00469,0.021737
27,-0.037962,-0.00469,0.003621
28,-0.01874,0.012055,0.076085
29,0.000481,0.0288,0.003621
30,0.019703,-0.00469,0.057969
31,0.000481,-0.00469,0.021737
32,-0.01874,-0.00469,-0.032611
33,-0.037962,-0.038179,-0.032611
34,-0.01874,-0.038179,-0.050727
35,-0.01874,-0.054924,-0.050727
36,-0.037962,-0.021435,-0.014495
37,-0.01874,0.0288,0.057969
38,0.000481,0.012055,0.003621
39,-0.01874,0.045545,0.003621
40,0.000481,0.0288,-0.032611
41,0.000481,0.012055,-0.032611
42,-0.01874,0.0288,0.003621
43,0.019703,-0.00469,-0.050727
44,-0.01874,-0.00469,0.021737
45,0.000481,0.012055,0.021737
46,0.000481,-0.00469,0.021737
47,-0.01874,-0.00469,0.039853
48,0.000481,-0.00469,0.003621
49,0.019703,-0.021435,0.021737
50,0.000481,0.012055,-0.014495
51,0.000481,-0.021435,-0.014495
52,0.019703,-0.021435,0.003621
53,-0.01874,0.0288,0.003621
54,0.000481,0.0288,0.021737
55,0.000481,-0.00469,0.021737
56,0.000481,0.012055,0.021737
57,-0.01874,0.012055,-0.032611
58,-0.01874,0.045545,0.003621
59,0.019703,0.012055,-0.050727
60,-0.01874,0.012055,-0.068843
61,-0.01874,-0.00469,0.021737
62,-0.01874,0.012055,0.039853
63,-0.01874,0.012055,0.003621
64,-0.01874,-0.00469,-0.032611
65,0.000481,-0.00469,0.021737
66,-0.01874,0.045545,0.003621
67,-0.01874,0.045545,-0.032611
68,0.000481,-0.00469,0.003621
69,0.000481,-0.038179,-0.014495
70,-0.01874,-0.038179,0.003621
71,0.000481,-0.021435,0.021737
72,0.000481,-0.038179,0.003621
73,-0.01874,-0.00469,0.003621
74,0.000481,-0.00469,0.021737
75,0.000481,-0.00469,-0.032611
76,-0.01874,0.079034,0.039853
77,-0.01874,0.0288,0.039853
78,0.000481,0.045545,0.003621
79,-0.01874,-0.00469,0.003621
80,-0.01874,0.012055,0.003621
81,-0.01874,0.012055,-0.032611
82,-0.01874,-0.021435,0.003621
83,-0.01874,-0.00469,-0.014495
84,-0.01874,0.0288,-0.014495
85,-0.01874,-0.021435,0.003621
86,0.000481,0.012055,0.021737
87,0.019703,-0.00469,0.039853
88,0.000481,0.012055,0.057969
89,0.000481,0.0288,0.021737
90,0.000481,0.012055,-0.032611
91,-0.01874,-0.00469,0.021737
92,0.000481,-0.00469,-0.068843
93,0.019703,-0.021435,-0.014495
94,0.000481,-0.021435,-0.014495
95,0.000481,-0.021435,-0.032611
96,-0.01874,-0.021435,0.003621
97,0.000481,-0.00469,-0.014495
98,-0.01874,0.012055,-0.050727
99,0.000481,-0.021435,-0.032611
100,0.000481,-0.038179,-0.050727
101,-0.01874,-0.038179,-0.014495
102,-0.01874,-0.00469,-0.014495
103,0.000481,0.012055,0.039853
104,0.000481,0.045545,0.003621
105,0.000481,0.0288,0.039853
106,-0.01874,0.012055,0.039853
107,-0.01874,-0.021435,0.021737
108,0.000481,0.012055,0.003621
109,0.019703,-0.021435,-0.050727
110,-0.01874,-0.00469,0.003621
111,0.000481,0.012055,-0.014495
112,-0.01874,0.0288,-0.014495
113,-0.01874,0.045545,0.021737
114,-0.01874,0.0288,0.003621
115,0.000481,0.0288,0.003621
116,0.019703,-0.00469,-0.032611
117,0.000481,0.0288,0.021737
118,0.019703,0.012055,-0.014495
119,0.000481,-0.00469,0.057969
120,0.019703,-0.021435,0.057969
121,0.000481,-0.054924,0.021737
122,0.000481,-0.021435,0.076085
123,-0.01874,-0.021435,0.021737
124,0.000481,-0.038179,-0.032611
125,-0.01874,-0.00469,-0.014495
126,0.000481,-0.00469,-0.032611
127,0.000481,-0.00469,0.003621
128,0.000481,-0.00469,0.003621
129,0.000481,0.012055,0.003621
130,0.000481,0.012055,-0.014495
131,0.000481,0.012055,0.003621
132,0.019703,0.012055,-0.014495
133,0.000481,0.012055,-0.014495
134,-0.01874,0.0288,0.003621
135,-0.01874,0.012055,-0.014495
136,0.019703,-0.00469,-0.032611
137,0.019703,-0.021435,0.039853
138,0.000481,-0.054924,-0.014495
139,-0.01874,-0.038179,0.003621
140,-0.01874,-0.038179,-0.014495
141,-0.01874,-0.00469,0.003621
142,-0.01874,0.012055,-0.014495
143,-0.037962,0.0288,0.021737
144,-0.037962,0.0288,-0.014495
145,-0.037962,-0.00469,-0.032611
146,-0.01874,-0.00469,0.021737
147,0.000481,-0.021435,-0.014495
148,-0.01874,-0.054924,0.021737
149,-0.01874,-0.038179,0.003621
150,0.000481,-0.054924,0.003621
151,-0.037962,-0.054924,-0.032611
152,-0.01874,-0.054924,0.039853
153,0.019703,0.0288,0.003621
154,0.000481,0.0288,0.021737
155,-0.01874,0.0288,0.039853
156,0.000481,0.045545,-0.050727
157,0.000481,0.06229,0.021737
158,0.000481,0.079034,0.021737
159,0.000481,0.06229,-0.050727
160,0.038924,0.0288,0.003621
161,0.000481,0.012055,0.003621
162,0.019703,-0.00469,-0.014495
163,0.000481,-0.021435,-0.014495
164,0.000481,-0.021435,-0.014495
165,0.000481,-0.00469,-0.032611
166,-0.01874,0.012055,-0.014495
167,-0.01874,-0.00469,-0.050727
168,-0.01874,-0.00469,-0.014495
169,-0.01874,-0.00469,0.039853
170,-0.01874,0.012055,-0.014495
171,0.000481,-0.021435,0.003621
172,-0.01874,-0.021435,0.021737
173,0.000481,-0.00469,-0.014495
174,0.000481,-0.021435,-0.050727
175,-0.01874,-0.021435,-0.032611
176,-0.01874,-0.021435,-0.050727
177,-0.01874,-0.021435,0.021737
178,0.000481,0.012055,0.039853
179,-0.01874,0.0288,0.003621
180,0.000481,0.0288,0.021737
181,0.000481,0.012055,-0.014495
182,0.019703,-0.021435,-0.032611
183,0.000481,-0.021435,-0.014495
184,-0.01874,-0.021435,-0.050727
185,-0.01874,-0.054924,-0.032611
186,-0.01874,-0.038179,0.021737
187,0.000481,-0.021435,0.021737
188,-0.01874,0.012055,0.039853
189,-0.01874,0.012055,0.076085
190,0.000481,0.012055,0.039853
191,0.019703,0.045545,0.003621
192,0.000481,0.0288,0.076085
193,0.000481,-0.00469,0.003621
194,0.000481,-0.021435,0.021737
195,0.000481,-0.00469,0.021737
196,0.000481,-0.021435,0.003621
197,-0.01874,0.0288,0.039853
198,0.000481,0.012055,0.021737
199,-0.01874,0.045545,-0.032611
200,-0.01874,0.045545,-0.050727
201,-0.01874,0.0288,-0.050727
202,0.000481,0.012055,-0.050727
203,0.000481,-0.00469,-0.014495
204,0.000481,0.012055,0.003621
205,0.000481,-0.00469,-0.014495
206,-0.01874,0.012055,0.021737
207,-0.01874,0.012055,-0.014495
208,0.000481,-0.00469,-0.014495
209,0.000481,-0.021435,0.039853
210,0.000481,0.012055,0.021737
211,0.000481,-0.021435,0.021737
212,-0.01874,-0.054924,0.021737
213,0.000481,-0.038179,0.039853
214,0.000481,-0.038179,0.021737
215,-0.01874,-0.038179,0.039853
216,-0.01874,-0.00469,0.021737
217,0.000481,0.0288,0.003621
218,0.000481,0.012055,0.021737
219,0.000481,0.012055,-0.050727
220,-0.01874,-0.021435,-0.032611
221,-0.01874,0.012055,-0.068843
222,0.000481,-0.00469,-0.032611
223,-0.01874,-0.00469,-0.014495
224,0.000481,0.0288,-0.014495
225,-0.01874,-0.021435,-0.050727
226,-0.01874,0.0288,-0.068843
227,-0.01874,0.012055,-0.068843
228,-0.01874,-0.00469,0.003621
229,0.000481,-0.00469,-0.014495
230,-0.01874,-0.00469,0.003621
231,-0.01874,0.012055,-0.050727
232,-0.01874,-0.00469,0.003621
233,-0.01874,-0.00469,0.003621
234,0.000481,0.012055,-0.014495
235,0.000481,-0.021435,0.021737
236,-0.01874,-0.021435,-0.014495
237,-0.01874,-0.038179,0.039853
238,0.000481,-0.021435,0.057969
239,0.000481,-0.021435,0.039853
240,0.000481,-0.00469,0.003621
241,0.000481,0.012055,-0.032611
242,-0.01874,-0.021435,0.003621
243,-0.01874,0.012055,0.003621
244,0.000481,0.0288,0.003621
245,-0.01874,0.06229,-0.032611
246,0.000481,0.0288,0.003621
247,0.000481,-0.00469,0.039853
248,0.000481,-0.021435,-0.014495
249,0.000481,-0.021435,0.021737
250,-0.01874,-0.038179,-0.014495
251,-0.01874,-0.00469,-0.014495
252,0.000481,-0.00469,0.021737
253,-0.057183,-0.021435,0.003621
254,-0.037962,-0.00469,0.003621
255,-0.01874,0.012055,0.003621
256,-0.01874,0.0288,-0.014495
257,0.000481,0.012055,-0.032611
258,-0.037962,0.045545,-0.050727
259,0.000481,0.045545,-0.014495
260,-0.01874,0.012055,-0.068843
261,-0.01874,-0.00469,-0.014495
262,-0.01874,0.012055,-0.032611
263,-0.01874,-0.038179,-0.014495
264,-0.01874,-0.021435,-0.014495
265,0.000481,-0.038179,-0.032611
266,0.000481,0.012055,-0.014495
267,0.019703,0.0288,0.003621
268,0.000481,-0.00469,-0.032611
269,0.000481,-0.038179,0.003621
270,0.019703,-0.038179,0.039853
271,0.000481,-0.038179,0.021737
272,-0.01874,-0.00469,0.076085
273,0.000481,-0.00469,0.076085
274,0.000481,-0.00469,0.021737
275,0.000481,0.0288,0.003621
276,0.000481,0.0288,0.021737
277,0.019703,0.079034,-0.032611
278,0.000481,0.06229,0.003621
279,-0.01874,0.0288,0.039853
280,0.019703,0.012055,-0.032611
281,0.019703,-0.021435,0.021737
282,0.000481,0.012055,-0.032611
283,0.019703,-0.038179,-0.032611
284,-0.01874,-0.021435,-0.068843
285,0.000481,-0.054924,-0.032611
286,0.019703,-0.038179,-0.014495
287,0.000481,-0.038179,0.003621
288,0.000481,0.0288,0.039853
289,-0.01874,0.045545,0.021737
290,0.000481,0.045545,0.021737
291,0.000481,0.0288,-0.014495
292,0.019703,0.06229,0.003621
293,0.000481,0.0288,-0.014495
294,-0.01874,-0.00469,-0.014495
295,-0.01874,-0.00469,0.021737
296,0.000481,0.012055,-0.014495
297,0.000481,-0.00469,0.039853
298,0.000481,-0.021435,0.057969
299,0.000481,0.012055,0.021737
300,0.000481,-0.021435,0.057969
301,0.000481,-0.021435,0.021737
302,0.000481,0.012055,0.039853
303,0.000481,-0.00469,0.003621
304,-0.01874,0.012055,-0.014495
305,-0.01874,-0.00469,-0.014495
306,0.000481,-0.00469,-0.014495
307,0.000481,-0.00469,0.003621
308,0.000481,0.012055,0.003621
309,0.000481,0.0288,-0.014495
310,0.019703,0.0288,0.003621
311,0.019703,0.0288,-0.032611
312,0.000481,-0.00469,-0.032611
313,0.000481,-0.00469,0.021737
314,0.000481,-0.00469,0.021737
315,0.038924,-0.038179,-0.014495
316,0.019703,-0.038179,0.003621
317,-0.01874,-0.038179,0.003621
318,-0.037962,-0.071669,-0.032611
319,-0.057183,0.012055,-0.032611
320,-0.01874,-0.038179,-0.068843
321,-0.01874,0.012055,-0.032611
322,0.000481,0.012055,0.003621
323,0.000481,0.079034,-0.032611
324,0.019703,0.06229,0.003621
325,-0.01874,0.045545,-0.014495
326,-0.01874,0.079034,-0.014495
327,0.000481,-0.038179,-0.050727
328,-0.01874,-0.00469,0.003621
329,-0.01874,-0.00469,-0.050727
330,-0.037962,0.012055,0.003621
331,0.000481,0.012055,0.021737
332,0.000481,-0.00469,0.057969
333,0.000481,-0.071669,0.039853
334,0.000481,-0.054924,0.039853
335,-0.01874,-0.054924,-0.014495
336,0.019703,-0.00469,0.021737
337,-0.01874,-0.00469,0.021737
338,-0.01874,-0.00469,0.003621
339,-0.037962,0.045545,0.039853
340,0.019703,0.06229,0.003621
341,0.019703,0.112524,0.021737
342,0.019703,0.0288,0.039853
343,0.019703,0.0288,-0.014495
344,0.000481,-0.021435,-0.032611
345,0.000481,-0.038179,0.021737
346,0.000481,-0.038179,0.003621
347,-0.01874,-0.038179,0.003621
348,-0.01874,-0.088414,0.021737
349,0.019703,-0.021435,-0.014495
350,0.019703,-0.038179,-0.050727
351,0.000481,-0.038179,-0.050727
352,0.000481,-0.00469,-0.032611
353,0.000481,0.012055,-0.050727
354,-0.01874,0.045545,0.021737
355,-0.01874,0.06229,-0.014495
356,0.000481,0.0288,0.003621
357,-0.01874,0.079034,0.057969
358,0.000481,0.079034,0.021737
359,0.000481,0.045545,0.076085
360,0.000481,0.0288,0.021737
361,0.000481,0.012055,0.003621
362,0.000481,-0.038179,0.003621
363,0.000481,0.012055,0.021737
364,0.000481,-0.00469,0.003621
365,-0.01874,-0.00469,0.003621
366,-0.01874,-0.021435,0.003621
367,-0.037962,-0.00469,-0.068843
368,0.000481,-0.054924,0.003621
369,0.000481,-0.038179,-0.032611
370,0.000481,-0.021435,-0.014495
371,0.019703,-0.054924,0.003621
372,-0.01874,-0.00469,0.021737
373,-0.01874,0.012055,0.003621
374,0.000481,0.045545,0.021737
375,0.038924,0.045545,0.003621
376,0.019703,0.045545,-0.050727
377,0.019703,0.012055,-0.014495
378,-0.01874,0.012055,-0.014495
379,-0.01874,0.012055,-0.032611
380,0.019703,-0.00469,0.003621
381,0.000481,-0.00469,-0.032611
382,0.000481,-0.00469,0.003621
383,0.000481,-0.021435,0.039853
384,0.000481,-0.021435,-0.032611
385,0.019703,-0.00469,-0.014495
386,-0.01874,0.0288,-0.032611
387,0.000481,-0.00469,-0.014495
388,0.000481,-0.021435,0.003621
389,0.000481,-0.00469,0.039853
390,0.000481,-0.021435,0.021737
391,0.000481,0.012055,0.021737
392,0.000481,-0.021435,0.003621
393,0.000481,0.012055,-0.014495
394,-0.01874,-0.00469,-0.050727
395,0.000481,-0.038179,-0.014495
396,-0.01874,-0.00469,-0.086959
397,0.019703,-0.021435,-0.032611
398,0.000481,-0.021435,-0.050727
399,-0.01874,-0.021435,-0.014495
400,-0.037962,-0.00469,0.057969
401,0.000481,0.0288,0.021737
402,0.019703,0.012055,0.021737
403,-0.01874,0.0288,0.003621
404,0.000481,0.012055,0.003621
405,0.019703,-0.021435,0.039853
406,0.019703,-0.021435,0.057969
407,0.000481,-0.054924,0.039853
408,0.000481,-0.038179,0.094201
409,0.000481,-0.038179,0.039853
410,-0.01874,-0.038179,0.003621
411,-0.01874,-0.00469,-0.014495
412,0.000481,0.012055,0.021737
413,0.000481,0.095779,-0.050727
414,-0.01874,0.129269,0.021737
415,0.000481,0.095779,0.057969
416,0.000481,0.06229,0.003621
417,0.000481,0.0288,0.039853
418,0.000481,0.045545,-0.014495
419,0.000481,0.012055,-0.068843
420,-0.01874,-0.00469,-0.068843
421,-0.01874,-0.00469,-0.105075
422,0.000481,-0.021435,-0.014495
423,-0.037962,-0.054924,0.021737
424,-0.01874,-0.071669,0.021737
425,0.000481,-0.054924,-0.032611
426,-0.01874,-0.054924,0.021737
427,0.000481,-0.00469,0.039853
428,-0.037962,0.012055,-0.014495
429,0.000481,0.045545,0.003621
430,-0.01874,0.045545,-0.032611
431,0.000481,0.06229,-0.032611
432,0.019703,0.012055,-0.014495
433,0.000481,0.0288,0.003621
434,0.000481,0.012055,0.003621
435,0.000481,0.012055,0.003621
436,-0.01874,-0.00469,-0.014495
437,-0.01874,0.012055,0.003621
438,0.000481,0.012055,0.003621
439,0.000481,0.0288,-0.014495
440,-0.01874,0.0288,0.021737
441,0.019703,-0.021435,0.057969
442,0.038924,-0.00469,0.003621
443,0.019703,0.012055,0.039853
444,0.000481,0.012055,0.021737
445,0.000481,0.012055,0.003621
446,0.019703,0.012055,0.003621
447,0.019703,0.0288,-0.014495
448,0.000481,-0.021435,0.003621
449,0.019703,0.0288,0.021737
450,-0.01874,-0.00469,0.021737
451,0.000481,-0.00469,0.021737
452,-0.01874,-0.021435,0.003621
453,0.000481,-0.038179,-0.014495
454,-0.01874,-0.054924,-0.068843
455,-0.037962,-0.00469,-0.032611
456,0.000481,-0.038179,-0.068843
457,-0.01874,-0.00469,-0.050727
458,0.019703,0.012055,0.003621
459,0.000481,-0.038179,-0.014495
460,0.019703,-0.00469,-0.050727
461,0.000481,-0.00469,0.003621
462,0.000481,-0.021435,0.021737
463,0.000481,-0.00469,0.021737
464,0.000481,0.0288,0.076085
465,0.000481,0.045545,0.003621
466,0.019703,0.0288,0.039853
467,-0.01874,-0.00469,0.039853
468,0.000481,-0.021435,-0.014495
469,0.000481,-0.00469,0.021737
470,-0.01874,-0.021435,-0.014495
471,-0.01874,-0.021435,-0.032611
472,-0.01874,0.012055,-0.068843
473,0.000481,-0.00469,-0.014495
474,0.000481,0.0288,-0.032611
475,-0.01874,0.045545,0.003621
476,-0.01874,0.0288,0.003621
477,0.019703,0.012055,0.021737
478,-0.01874,0.012055,0.021737
479,0.000481,0.045545,0.021737
480,0.019703,0.045545,0.003621
481,0.000481,-0.00469,0.057969
482,-0.01874,0.0288,0.076085
483,0.000481,0.012055,0.021737
484,0.019703,0.012055,0.039853
485,-0.01874,0.012055,0.057969
486,-0.01874,0.0288,0.003621
487,0.000481,-0.00469,0.039853
488,-0.01874,-0.071669,0.003621
489,0.000481,-0.054924,-0.068843
490,-0.037962,-0.054924,-0.050727
491,-0.01874,-0.021435,-0.068843
492,0.000481,-0.00469,-0.086959
493,0.000481,-0.021435,-0.014495
494,-0.01874,-0.00469,0.003621
495,0.019703,0.045545,0.003621
496,0.000481,-0.00469,0.003621
497,0.019703,-0.071669,0.021737
498,0.000481,-0.071669,0.021737
499,-0.037962,-0.071669,0.021737
500,-0.01874,-0.021435,-0.032611
501,-0.01874,-0.00469,0.003621
502,0.019703,0.0288,0.021737
503,0.000481,0.06229,-0.014495
504,0.000481,0.0288,-0.014495
505,0.019703,0.095779,0.021737
506,0.019703,0.079034,0.003621
507,0.000481,0.012055,-0.050727
508,0.000481,-0.021435,-0.032611
509,-0.037962,-0.071669,-0.014495
510,-0.01874,-0.038179,-0.014495
511,0.019703,-0.054924,0.021737
512,0.000481,-0.038179,-0.014495
513,0.000481,-0.00469,0.003621
514,0.000481,-0.00469,0.021737
515,0.000481,0.012055,-0.014495
516,0.019703,0.012055,-0.014495
517,-0.01874,0.0288,0.021737
518,-0.01874,0.012055,0.003621
519,0.000481,-0.00469,0.039853
520,-0.01874,-0.038179,0.021737
521,-0.01874,-0.071669,-0.050727
522,-0.037962,-0.071669,0.003621
523,-0.01874,-0.105159,-0.014495
524,0.000481,-0.071669,-0.050727
525,0.019703,-0.105159,0.021737
526,0.000481,-0.172138,0.039853
527,-0.01874,-0.138648,-0.014495
528,0.000481,-0.105159,0.039853
529,-0.037962,-0.071669,0.021737
530,-0.01874,0.012055,-0.032611
531,-0.037962,0.112524,-0.032611
532,-0.01874,0.196248,-0.050727
533,0.019703,0.212993,-0.068843
534,0.019703,0.196248,0.039853
535,0.038924,0.112524,-0.032611
536,0.019703,0.045545,0.021737
537,0.019703,-0.021435,0.021737
538,0.019703,-0.038179,0.003621
539,0.000481,-0.00469,-0.032611
540,0.000481,0.045545,-0.032611
541,0.000481,0.06229,-0.050727
542,0.019703,0.079034,-0.068843
543,0.019703,-0.021435,-0.014495
544,0.000481,-0.138648,-0.032611
545,0.000481,-0.121903,0.039853
546,0.000481,-0.088414,0.039853
547,0.000481,-0.021435,0.021737
548,-0.01874,0.0288,-0.032611
549,-0.037962,0.095779,-0.014495
550,-0.037962,0.196248,-0.032611
551,0.019703,0.229738,0.003621
552,0.038924,0.179503,0.039853
553,0.038924,0.06229,0.039853
554,0.019703,0.079034,0.003621
555,0.000481,0.0288,0.003621
556,0.019703,-0.00469,-0.050727
557,0.000481,-0.071669,0.003621
558,0.000481,-0.071669,-0.014495
559,-0.01874,-0.054924,-0.014495
560,-0.037962,-0.071669,0.039853
561,0.000481,-0.088414,0.039853
562,0.000481,-0.088414,-0.032611
563,0.000481,-0.054924,0.003621
564,0.038924,-0.038179,0.003621
565,0.000481,0.012055,-0.032611
566,0.019703,0.045545,0.021737
567,0.000481,0.045545,-0.014495
568,-0.01874,0.012055,0.003621
569,0.000481,-0.038179,0.021737
570,-0.01874,-0.054924,0.039853
571,0.019703,-0.071669,0.039853
572,-0.01874,-0.071669,0.003621
573,0.000481,-0.038179,0.003621
574,-0.01874,-0.038179,0.003621
575,-0.01874,0.0288,-0.032611
576,-0.037962,0.079034,-0.068843
577,-0.037962,0.095779,-0.050727
578,0.000481,0.179503,-0.050727
579,0.038924,0.129269,-0.032611
580,0.038924,0.045545,-0.032611
581,0.019703,0.045545,-0.014495
582,0.000481,0.0288,-0.050727
583,-0.01874,0.0288,-0.050727
584,-0.037962,0.045545,-0.032611
585,-0.01874,0.0288,-0.014495
586,0.000481,-0.00469,0.039853
587,0.019703,-0.038179,0.057969
588,0.019703,-0.038179,0.057969
589,0.000481,-0.071669,0.057969
590,0.000481,-0.054924,0.021737
591,0.000481,-0.054924,-0.032611
592,0.000481,-0.038179,0.021737
593,-0.01874,-0.021435,-0.014495
594,0.000481,-0.088414,0.003621
595,0.000481,-0.054924,0.003621
596,0.000481,-0.071669,-0.032611
597,-0.01874,-0.088414,0.021737
598,-0.01874,0.012055,-0.032611
599,-0.01874,0.045545,-0.050727
600,0.000481,0.079034,-0.032611
601,0.000481,0.079034,-0.032611
602,-0.01874,-0.00469,-0.014495
603,-0.037962,-0.155393,0.021737
604,-0.01874,-0.205628,0.021737
605,-0.01874,-0.188883,0.003621
606,0.000481,-0.121903,0.057969
607,-0.01874,-0.054924,0.003621
608,-0.01874,0.079034,-0.050727
609,-0.01874,0.0288,-0.032611
610,0.000481,0.146014,-0.050727
611,0.038924,0.212993,-0.014495
612,0.038924,0.179503,0.039853
613,0.019703,0.146014,0.039853
614,0.000481,0.146014,0.003621
615,-0.01874,0.129269,0.021737
616,0.000481,0.06229,-0.014495
617,0.000481,0.079034,-0.050727
618,0.019703,0.06229,-0.014495
619,0.000481,0.0288,-0.068843
620,0.019703,-0.00469,-0.050727
621,-0.01874,-0.00469,-0.014495
622,-0.037962,-0.00469,-0.032611
623,-0.01874,-0.054924,-0.014495
624,-0.01874,-0.105159,-0.032611
625,-0.037962,-0.155393,-0.032611
626,-0.037962,-0.138648,0.003621
627,-0.01874,-0.088414,0.021737
628,0.000481,-0.071669,0.021737
629,-0.01874,-0.054924,0.039853
630,-0.01874,-0.105159,0.057969
631,-0.01874,-0.272607,0.021737
632,-0.01874,-0.222372,0.057969
633,-0.01874,-0.255862,0.039853
634,-0.01874,-0.255862,-0.014495
635,-0.057183,-0.155393,0.021737
636,-0.057183,-0.00469,-0.014495
637,-0.076405,0.146014,-0.050727
638,-0.057183,0.129269,-0.014495
639,-0.037962,0.162759,-0.032611
640,0.000481,0.112524,-0.068843
641,0.000481,0.045545,-0.050727
642,-0.037962,0.012055,-0.050727
643,0.019703,0.095779,-0.050727
644,0.038924,0.129269,0.003621
645,0.058146,0.079034,-0.014495
646,0.000481,0.079034,0.021737
647,-0.01874,-0.071669,0.039853
648,0.019703,-0.038179,0.003621
649,-0.01874,-0.00469,0.021737
650,0.000481,-0.021435,0.021737
651,-0.037962,0.079034,-0.014495
652,-0.076405,0.079034,0.003621
653,-0.057183,-0.021435,0.003621
654,-0.01874,0.012055,-0.014495
655,0.058146,0.079034,0.039853
656,0.096589,0.0288,0.003621
657,0.058146,-0.071669,-0.068843
658,0.077367,-0.121903,-0.105075
659,0.096589,0.0288,-0.014495
660,0.11581,0.112524,0.021737
661,0.096589,0.146014,0.021737
662,0.038924,0.06229,0.039853
663,-0.037962,-0.155393,-0.014495
664,-0.095626,-0.255862,0.021737
665,-0.057183,-0.105159,0.003621
666,-0.01874,-0.021435,0.021737
667,0.000481,-0.105159,0.003621
668,0.000481,-0.00469,-0.014495
669,0.000481,0.162759,-0.014495
670,0.000481,0.196248,-0.014495
671,0.000481,0.146014,-0.014495
672,-0.01874,-0.00469,0.003621
673,-0.037962,-0.021435,0.021737
674,-0.01874,-0.172138,-0.014495
675,-0.01874,-0.272607,0.003621
676,-0.037962,-0.306097,-0.068843
677,-0.057183,-0.121903,-0.068843
678,-0.01874,0.146014,-0.068843
679,0.000481,0.363697,-0.014495
680,0.038924,0.54789,0.003621
681,0.038924,0.531145,0.021737
682,0.038924,0.464165,0.003621
683,0.058146,0.330207,-0.050727
684,0.000481,0.079034,-0.032611
685,0.000481,0.012055,0.003621
686,0.000481,-0.071669,0.003621
687,0.019703,-0.054924,0.039853
688,-0.01874,-0.054924,0.021737
689,-0.01874,-0.071669,0.003621
690,-0.037962,-0.088414,0.003621
691,-0.057183,-0.155393,-0.014495
692,-0.057183,-0.138648,-0.050727
693,0.019703,-0.00469,0.003621
694,0.038924,0.06229,-0.050727
695,0.000481,0.012055,0.003621
696,-0.01874,-0.021435,-0.014495
697,-0.01874,-0.038179,-0.014495
698,-0.01874,-0.00469,-0.032611
699,-0.01874,-0.088414,-0.032611
700,-0.01874,-0.222372,-0.068843
701,-0.037962,-0.205628,-0.086959
702,-0.057183,-0.121903,-0.014495
703,-0.037962,-0.021435,-0.050727
704,-0.01874,-0.088414,0.003621
705,-0.037962,-0.054924,0.039853
706,-0.057183,0.0288,0.021737
707,0.000481,0.246483,0.057969
708,0.038924,0.146014,0.021737
709,0.000481,-0.071669,0.021737
710,0.000481,-0.071669,0.003621
711,0.000481,-0.021435,0.039853
712,-0.01874,0.095779,0.003621
713,0.019703,0.129269,0.039853
714,0.000481,0.079034,0.057969
715,0.000481,0.012055,-0.014495
716,-0.01874,-0.172138,0.039853
717,0.019703,-0.322841,0.003621
718,0.038924,-0.42331,0.003621
719,0.019703,-0.356331,0.003621
720,0.000481,-0.239117,-0.032611
721,0.000481,-0.021435,-0.032611
722,0.000481,0.279972,-0.032611
723,0.019703,0.464165,0.021737
724,0.038924,0.531145,0.021737
725,0.000481,0.447421,0.003621
726,-0.01874,0.313462,-0.014495
727,-0.037962,0.263228,-0.050727
728,-0.076405,0.146014,0.003621
729,-0.057183,-0.00469,-0.050727
730,-0.01874,-0.00469,0.021737
731,-0.037962,-0.088414,0.021737
732,-0.037962,-0.188883,0.003621
733,-0.057183,-0.222372,0.076085
734,-0.01874,-0.155393,0.057969
735,-0.076405,-0.155393,-0.014495
736,-0.076405,-0.105159,-0.014495
737,-0.01874,-0.088414,0.076085
738,-0.037962,-0.088414,-0.032611
739,0.000481,-0.071669,0.021737
740,-0.037962,-0.222372,0.039853
741,-0.037962,-0.205628,0.003621
742,0.019703,0.112524,0.039853
743,0.058146,0.263228,-0.014495
744,0.038924,0.196248,0.003621
745,0.038924,0.146014,0.021737
746,0.038924,0.012055,0.003621
747,-0.095626,-0.021435,-0.068843
748,-0.057183,-0.172138,0.021737
749,-0.095626,-0.4568,0.039853
750,-0.037962,-0.590759,-0.032611
751,0.11581,-0.540524,-0.014495
752,0.211918,-0.071669,-0.014495
753,0.173475,0.095779,0.039853
754,0.000481,-0.021435,0.039853
755,-0.191734,-0.021435,0.039853
756,-0.345506,0.095779,0.021737
757,-0.326285,-0.038179,0.003621
758,-0.191734,-0.523779,-0.032611
759,-0.076405,-0.825186,-0.014495
760,0.135032,-0.624248,0.021737
761,-0.01874,-0.707972,0.003621
762,-0.153291,-0.406566,-0.050727
763,-0.441614,0.012055,-0.032611
764,-0.114848,-0.155393,0.003621
765,0.019703,-0.088414,0.039853
766,0.269582,0.0288,0.076085
767,0.308025,0.430676,0.057969
768,0.211918,0.380441,-0.068843
769,0.019703,0.212993,-0.123191
770,-0.134069,0.631614,-0.105075
771,0.269582,0.815807,-0.050727
772,0.442576,1.016745,-0.032611
773,0.308025,0.832552,-0.014495
774,0.250361,0.464165,0.003621
775,0.192696,0.531145,0.021737
776,0.173475,0.598124,-0.014495
777,0.173475,0.564634,0.076085
778,-0.01874,0.330207,0.039853
779,-0.441614,-0.054924,-0.032611
780,-0.287842,-0.339586,0.003621
781,0.058146,-0.707972,0.094201
782,0.192696,-0.473545,0.021737
783,0.250361,-0.557269,0.057969
784,0.019703,-0.707972,0.021737
785,-0.114848,-0.523779,-0.014495
786,-0.26862,-0.306097,-0.032611
787,0.11581,-0.105159,-0.068843
788,0.058146,0.095779,-0.105075
789,-0.460835,0.313462,-0.014495
790,-0.480057,0.380441,0.057969
791,-0.210955,0.112524,0.039853
792,-0.153291,-0.239117,0.021737
793,-0.345506,-0.255862,0.003621
794,0.077367,-0.172138,0.021737
795,0.000481,-0.222372,0.003621
796,0.269582,-0.239117,-0.032611
797,0.461798,0.196248,-0.050727
798,0.481019,0.631614,0.003621
799,0.038924,0.681848,0.021737
800,-0.480057,0.648359,0.003621
801,-0.287842,0.732083,0.057969
802,-0.057183,0.598124,0.003621
803,0.192696,-0.038179,-0.014495
804,0.673234,0.012055,0.057969
805,0.769342,-0.205628,-0.014495
806,0.058146,-0.105159,0.021737
807,-0.095626,-0.038179,0.076085
808,-0.287842,0.346952,0.039853
809,-0.01874,0.397186,0.021737
810,-0.326285,0.112524,0.039853
811,-0.806822,-0.540524,0.003621
812,-0.480057,-1.193573,-0.123191
813,-0.076405,-1.645683,-0.123191
814,0.557905,-1.176828,-0.014495
815,0.596348,-0.657738,0.003621
816,0.000481,-0.071669,-0.014495
817,-0.114848,1.083724,0.076085
818,0.000481,1.787007,0.094201
819,0.173475,1.853986,0.076085
820,0.154253,0.246483,0.003621
821,-0.633829,-0.791697,0.021737
822,0.519462,-0.9424,-0.050727
823,0.942335,-1.260552,-0.105075
824,-0.057183,-1.595448,-0.123191
825,-0.403171,-0.540524,-0.014495
826,-0.01874,0.799062,0.039853
827,-0.114848,1.502345,-0.068843
828,0.327247,1.987945,-0.014495
829,-0.037962,1.820497,0.039853
830,-0.153291,0.899531,0.076085
831,-0.614607,-0.289352,-0.050727
832,-0.287842,-0.607504,0.021737
833,0.327247,-0.239117,0.039853
834,-0.537721,-0.105159,0.003621
835,-0.556943,0.212993,-0.014495
836,-0.076405,0.112524,-0.050727
837,-0.364728,-0.172138,-0.032611
838,0.423355,-0.155393,0.003621
839,0.61557,-0.758207,-0.032611
840,0.135032,-1.277297,0.039853
841,0.096589,-1.143338,0.094201
842,-0.076405,-0.624248,0.003621
843,0.769342,-0.222372,-0.086959
844,1.672753,1.51909,0.039853
845,1.557424,2.205628,-0.014495
846,0.019703,1.51909,-0.086959
847,-1.018259,0.413931,-0.032611
848,-1.748677,-0.758207,-0.086959
849,-1.402689,-1.227062,-0.050727
850,-0.729936,-1.478235,-0.050727
851,-0.287842,-1.612193,-0.050727
852,0.346468,-0.758207,0.076085
853,0.577127,0.112524,0.094201
854,0.019703,1.200938,0.057969
855,-0.230177,1.435366,0.021737
856,0.058146,1.050234,0.057969
857,-0.383949,0.346952,-0.014495
858,0.404133,0.06229,0.057969
859,0.481019,-0.590759,0.076085
860,-0.057183,-0.42331,-0.032611
861,-0.114848,-0.138648,-0.014495
862,0.058146,-0.105159,-0.014495
863,-0.326285,-0.49029,-0.123191
864,-0.230177,-0.054924,-0.068843
865,-0.134069,-0.054924,-0.014495
866,0.077367,-0.172138,-0.050727
867,-0.095626,-0.038179,-0.050727
868,-0.114848,-0.038179,-0.014495
869,0.11581,-0.00469,0.039853
870,-0.037962,0.330207,0.057969
871,-0.134069,0.54789,0.021737
872,-0.172512,0.380441,-0.014495
873,0.038924,0.112524,-0.014495
874,-0.01874,0.129269,-0.032611
875,0.096589,-0.088414,0.021737
876,0.058146,-0.188883,0.003621
877,0.000481,-0.373076,0.039853
878,0.250361,-0.741462,0.039853
879,0.308025,-0.875421,0.039853
880,-0.153291,-0.624248,-0.050727
881,-0.960595,-0.557269,-0.105075
882,0.211918,-0.054924,-0.068843
883,0.846228,1.468855,0.039853
884,0.923114,0.849297,-0.032611
885,0.807785,0.698593,-0.014495
886,-0.345506,0.748828,0.076085
887,-0.383949,0.949766,0.057969
888,-0.441614,0.413931,0.021737
889,-0.576164,-0.322841,-0.032611
890,-0.364728,-0.959145,0.003621
891,-0.191734,-0.741462,-0.014495
892,-0.076405,-0.172138,-0.105075
893,-0.26862,0.313462,-0.050727
894,0.000481,0.715338,0.021737
895,-0.037962,0.54789,0.021737
896,-0.134069,0.212993,0.021737
897,-0.230177,0.0288,-0.014495
898,-0.172512,-0.088414,-0.050727
899,-0.076405,-0.105159,-0.014495
900,-0.01874,-0.121903,0.003621
901,0.000481,-0.188883,0.003621
902,0.019703,-0.255862,0.003621
903,0.000481,-0.389821,0.021737
904,0.000481,-0.222372,-0.014495
905,0.000481,-0.155393,0.021737
906,-0.01874,-0.105159,-0.014495
907,-0.057183,-0.155393,-0.086959
908,-0.01874,-0.021435,0.003621
909,-0.01874,-0.088414,-0.050727
910,-0.01874,-0.205628,-0.032611
911,-0.037962,-0.188883,-0.032611
912,0.000481,-0.105159,0.003621
913,-0.037962,-0.339586,-0.014495
914,-0.037962,-0.507035,0.021737
915,-0.057183,-0.557269,0.039853
916,-0.076405,-0.105159,-0.032611
917,0.000481,0.196248,-0.014495
918,0.058146,0.380441,-0.014495
919,0.019703,0.296717,0.003621
920,-0.037962,-0.054924,0.003621
921,-0.037962,0.212993,-0.032611
922,0.000481,0.279972,-0.068843
923,0.038924,0.129269,0.021737
924,0.000481,-0.00469,0.003621
925,-0.01874,-0.121903,-0.032611
926,0.000481,-0.021435,0.003621
927,-0.01874,-0.00469,-0.014495
928,0.000481,-0.00469,0.021737
929,0.000481,-0.054924,0.057969
930,-0.01874,-0.071669,-0.032611
931,-0.01874,-0.088414,0.021737
932,-0.01874,-0.054924,0.003621
933,-0.01874,-0.054924,-0.032611
934,-0.037962,-0.105159,-0.068843
935,-0.01874,-0.121903,-0.032611
936,-0.01874,-0.121903,-0.068843
937,-0.037962,-0.138648,-0.032611
938,-0.057183,-0.222372,0.003621
939,-0.01874,-0.272607,0.021737
940,-0.057183,-0.356331,0.039853
941,-0.01874,-0.406566,-0.014495
942,0.019703,-0.172138,0.003621
943,0.038924,0.129269,0.039853
944,0.019703,0.263228,0.094201
945,0.019703,0.54789,0.112317
946,0.019703,0.229738,0.112317
947,0.000481,0.146014,0.094201
948,0.019703,0.095779,0.021737
949,0.038924,0.06229,0.039853
950,0.019703,0.0288,-0.014495
951,0.019703,-0.038179,-0.068843
952,0.000481,-0.054924,-0.032611
953,-0.037962,-0.088414,-0.032611
954,0.000481,-0.038179,0.021737
955,0.038924,0.079034,0.130433
956,0.038924,0.045545,0.148549
957,0.000481,0.012055,0.148549
958,0.019703,0.045545,0.184781
959,0.019703,0.012055,0.130433
960,-0.01874,-0.038179,0.094201
961,0.000481,-0.038179,0.148549
962,-0.01874,-0.054924,0.003621
963,0.000481,-0.155393,-0.032611
964,-0.037962,-0.322841,-0.086959
965,-0.057183,-0.440055,-0.159423
966,-0.057183,-0.473545,-0.213771
967,-0.057183,-0.339586,-0.177539
968,-0.01874,-0.00469,-0.141307
969,0.038924,0.246483,-0.105075
970,0.019703,0.0288,-0.032611
971,0.038924,0.229738,-0.050727
972,0.038924,0.246483,-0.014495
973,-0.01874,0.079034,0.003621
974,0.019703,0.095779,-0.014495
975,0.000481,-0.205628,0.003621
976,-0.037962,-0.138648,-0.032611
977,-0.037962,-0.021435,-0.050727
978,-0.01874,0.06229,0.003621
979,-0.01874,-0.322841,0.003621
980,-0.076405,-0.758207,-0.014495
981,-0.037962,-0.607504,0.003621
982,-0.037962,-0.121903,-0.014495
983,-0.095626,-0.121903,-0.050727
984,-0.01874,0.296717,0.021737
985,-0.057183,0.179503,-0.032611
986,0.058146,0.330207,-0.032611
987,0.096589,0.765572,0.057969
988,0.096589,0.748828,0.076085
989,0.038924,0.380441,-0.014495
990,0.038924,0.363697,0.003621
991,0.019703,0.296717,0.021737
992,0.038924,0.162759,-0.032611
993,0.000481,0.112524,0.021737
994,0.000481,0.045545,0.021737
995,0.019703,0.012055,0.021737
996,0.000481,0.012055,0.003621
997,-0.01874,-0.00469,-0.068843
998,0.000481,-0.00469,-0.050727
999,-0.01874,-0.054924,0.003621
1000,-0.01874,-0.121903,-0.014495
1001,0.000481,-0.155393,-0.032611
1002,-0.037962,-0.222372,0.003621
1003,0.000481,-0.172138,-0.014495
1004,0.000481,-0.121903,-0.014495
1005,-0.01874,0.012055,-0.014495
1006,-0.01874,0.079034,0.003621
1007,0.019703,0.129269,0.057969
1008,0.000481,0.045545,0.021737
1009,0.019703,-0.021435,-0.032611
1010,0.038924,0.0288,-0.014495
1011,0.019703,0.012055,-0.050727
1012,0.019703,-0.021435,-0.050727
1013,-0.01874,-0.038179,-0.068843
1014,0.000481,-0.038179,-0.068843
1015,0.000481,-0.038179,-0.068843
1016,-0.01874,-0.054924,-0.050727
1017,0.019703,-0.054924,-0.032611
1018,0.000481,-0.071669,-0.050727
1019,0.000481,-0.054924,0.003621
1020,0.000481,-0.00469,0.130433
1021,-0.01874,-0.00469,0.148549
1022,0.000481,0.012055,0.094201
1023,0.000481,0.0288,0.202897
1024,0.000481,0.0288,0.221013
1025,0.019703,0.06229,0.293477
1026,0.000481,0.045545,0.257245
1027,0.000481,0.0288,0.166665
1028,0.000481,-0.00469,0.112317
1029,-0.01874,-0.054924,-0.068843
1030,0.000481,-0.071669,-0.177539
1031,0.000481,-0.088414,-0.141307
1032,0.000481,-0.054924,-0.123191
1033,0.000481,-0.054924,-0.123191
1034,0.019703,-0.021435,-0.086959
1035,0.019703,-0.038179,-0.086959
1036,0.038924,-0.021435,-0.086959
1037,0.038924,-0.00469,-0.032611
1038,0.000481,0.012055,-0.050727
1039,0.000481,-0.00469,-0.068843
1040,0.019703,0.012055,-0.014495
1041,0.019703,0.0288,-0.032611
1042,0.000481,0.0288,0.076085
1043,0.000481,0.0288,0.076085
1044,-0.01874,0.0288,0.076085
1045,0.000481,0.0288,0.094201
1046,-0.01874,-0.00469,0.057969
1047,-0.01874,-0.00469,0.021737
1048,0.000481,-0.038179,0.039853
1049,-0.01874,-0.038179,0.057969
1050,-0.037962,-0.038179,0.094201
1051,-0.01874,-0.00469,0.112317
1052,-0.037962,-0.021435,0.003621
1053,0.019703,-0.071669,0.003621
1054,0.000481,-0.188883,-0.050727
1055,-0.01874,-0.188883,-0.014495
1056,-0.037962,-0.172138,-0.068843
1057,-0.037962,-0.222372,-0.086959
1058,0.000481,0.0288,-0.050727
1059,0.058146,0.330207,-0.032611
1060,0.019703,0.212993,0.003621
1061,0.000481,0.129269,0.003621
1062,0.038924,0.095779,-0.032611
1063,0.000481,0.0288,-0.014495
1064,0.000481,-0.021435,-0.014495
1065,0.000481,-0.00469,-0.050727
1066,-0.01874,-0.038179,0.003621
1067,-0.01874,-0.105159,0.057969
1068,0.019703,-0.054924,0.003621
1069,0.038924,0.0288,0.021737
1070,0.000481,0.095779,-0.014495
1071,-0.01874,0.212993,-0.014495
1072,0.000481,0.263228,0.021737
1073,0.000481,0.129269,-0.014495
1074,-0.01874,0.0288,-0.014495
1075,0.000481,-0.038179,-0.014495
1076,0.000481,-0.105159,0.039853
1077,-0.037962,-0.138648,0.021737
1078,0.000481,-0.088414,-0.014495
1079,-0.037962,-0.105159,0.003621
1080,-0.01874,-0.021435,-0.032611
1081,0.000481,0.146014,-0.032611
1082,0.000481,0.196248,-0.086959
1083,0.000481,0.162759,-0.032611
1084,-0.01874,0.06229,-0.032611
1085,0.019703,0.012055,-0.014495
1086,0.000481,0.045545,0.003621
1087,-0.01874,0.0288,0.021737
1088,0.019703,0.06229,-0.032611
1089,0.000481,0.0288,0.003621
1090,0.000481,0.0288,0.076085
1091,-0.01874,0.012055,0.076085
1092,-0.01874,-0.00469,0.094201
1093,-0.01874,-0.021435,0.094201
1094,-0.01874,-0.021435,0.021737
1095,-0.01874,-0.00469,-0.050727
1096,0.000481,-0.00469,-0.086959
1097,0.000481,-0.038179,-0.068843
1098,-0.01874,-0.00469,-0.068843
1099,0.000481,-0.021435,-0.032611
1100,0.019703,-0.021435,-0.050727
1101,0.038924,-0.021435,-0.032611
1102,0.000481,-0.00469,0.003621
1103,0.038924,-0.021435,0.039853
1104,0.000481,-0.038179,0.039853
1105,0.019703,0.012055,0.003621
1106,0.019703,-0.021435,-0.014495
1107,0.019703,-0.00469,0.003621
1108,0.019703,-0.021435,-0.032611
1109,0.000481,-0.00469,0.039853
1110,0.000481,0.0288,0.039853
1111,-0.01874,-0.054924,0.021737
1112,0.000481,-0.038179,0.076085
1113,0.019703,-0.021435,0.076085
1114,0.000481,0.012055,0.076085
1115,0.019703,0.0288,0.021737
1116,0.000481,-0.021435,-0.014495
1117,-0.01874,-0.021435,-0.032611
1118,0.000481,-0.038179,-0.050727
1119,0.019703,-0.021435,-0.014495
1120,0.000481,-0.038179,-0.068843
1121,0.000481,-0.021435,-0.014495
1122,0.000481,-0.00469,-0.032611
1123,0.000481,-0.021435,-0.105075
1124,0.000481,-0.038179,-0.086959
1125,-0.037962,-0.071669,-0.123191
1126,-0.01874,-0.021435,-0.050727
1127,0.000481,0.012055,-0.014495
1128,0.000481,0.0288,0.039853
1129,0.019703,0.012055,0.057969
1130,0.019703,0.0288,0.039853
1131,0.019703,0.012055,-0.014495
1132,0.000481,0.0288,-0.014495
1133,0.019703,0.012055,0.039853
1134,0.038924,0.0288,-0.014495
1135,0.019703,0.0288,0.076085
1136,0.019703,-0.00469,0.094201
1137,0.019703,0.0288,0.076085
1138,0.019703,0.012055,0.130433
1139,0.019703,0.045545,0.094201
1140,0.000481,0.012055,0.057969
1141,0.000481,-0.00469,0.057969
1142,-0.01874,-0.038179,0.039853
1143,-0.01874,-0.00469,-0.050727
1144,-0.01874,-0.021435,-0.050727
1145,-0.037962,-0.054924,-0.050727
1146,-0.037962,-0.021435,-0.141307
1147,0.000481,-0.00469,-0.068843
1148,-0.01874,0.0288,-0.086959
1149,0.000481,-0.00469,-0.086959
1150,0.000481,-0.038179,-0.032611
1151,0.019703,-0.021435,-0.014495
1152,0.000481,-0.00469,0.057969
1153,0.000481,0.0288,0.094201
1154,0.019703,0.012055,0.057969
1155,0.019703,0.012055,0.057969
1156,0.000481,0.0288,0.076085
1157,0.038924,0.045545,0.130433
1158,0.019703,0.012055,0.057969
1159,0.038924,0.079034,0.094201
1160,0.019703,0.0288,0.076085
1161,0.038924,0.045545,0.148549
1162,0.000481,0.045545,0.148549
1163,0.019703,0.0288,0.076085
1164,-0.037962,-0.021435,-0.068843
1165,-0.037962,-0.038179,-0.068843
1166,-0.01874,-0.054924,-0.123191
1167,-0.01874,-0.054924,-0.141307
1168,-0.037962,-0.071669,-0.123191
1169,0.000481,-0.071669,-0.141307
1170,0.000481,-0.071669,-0.105075
1171,0.000481,-0.071669,-0.050727
1172,-0.01874,-0.00469,-0.068843
1173,0.000481,0.06229,-0.032611
1174,0.019703,0.095779,-0.014495
1175,0.019703,0.095779,-0.050727
1176,0.019703,0.06229,0.003621
1177,0.000481,0.012055,0.039853
1178,0.000481,0.0288,0.076085
1179,0.000481,0.012055,0.094201
1180,0.000481,0.0288,0.039853
1181,0.000481,-0.021435,-0.014495
1182,0.038924,-0.021435,-0.014495
1183,0.038924,-0.00469,-0.050727
1184,0.000481,-0.00469,-0.050727
1185,0.019703,-0.00469,-0.014495
1186,-0.01874,0.012055,0.021737
1187,0.019703,0.045545,0.039853
1188,0.038924,0.045545,0.039853
1189,0.019703,-0.021435,0.021737
1190,-0.037962,-0.038179,0.003621
1191,0.000481,0.012055,0.039853
1192,-0.01874,0.012055,-0.014495
1193,-0.01874,0.012055,0.039853
1194,0.000481,-0.00469,0.076085
1195,0.019703,0.012055,0.057969
1196,0.019703,-0.00469,0.076085
1197,0.000481,0.012055,0.057969
1198,-0.057183,0.012055,0.021737
1199,-0.037962,-0.00469,0.003621
1200,0.000481,-0.00469,0.039853
1201,0.038924,-0.00469,0.003621
1202,-0.037962,0.012055,0.039853
1203,0.000481,0.012055,0.039853
1204,0.019703,0.045545,0.003621
1205,0.019703,-0.00469,0.003621
1206,-0.01874,-0.038179,-0.086959
1207,-0.01874,-0.038179,-0.086959
1208,0.019703,0.012055,-0.068843
1209,-0.01874,-0.00469,-0.105075
1210,-0.01874,-0.00469,-0.068843
1211,-0.037962,-0.021435,-0.050727
1212,0.000481,-0.021435,-0.014495
1213,-0.01874,-0.00469,0.003621
1214,0.000481,-0.00469,0.057969
1215,0.000481,0.079034,0.039853
1216,0.019703,-0.00469,0.003621
1217,0.058146,-0.038179,0.021737
1218,0.038924,-0.038179,0.003621
1219,0.000481,-0.021435,-0.014495
1220,0.000481,-0.038179,0.021737
1221,0.000481,-0.038179,0.021737
1222,-0.01874,-0.021435,0.057969
1223,0.019703,0.045545,0.003621
1224,0.000481,0.06229,-0.050727
1225,0.000481,0.06229,0.003621
1226,0.019703,0.079034,0.003621
1227,0.000481,0.012055,0.039853
1228,-0.01874,-0.00469,0.021737
1229,0.000481,-0.021435,0.057969
1230,0.000481,-0.021435,0.094201
1231,0.038924,0.012055,0.148549
1232,0.000481,-0.00469,0.003621
1233,-0.01874,-0.088414,-0.032611
1234,-0.037962,-0.188883,-0.032611
1235,-0.037962,-0.239117,-0.032611
1236,0.000481,-0.289352,0.039853
1237,-0.037962,-0.289352,0.021737
1238,-0.037962,-0.255862,0.003621
1239,-0.01874,-0.105159,0.021737
1240,-0.01874,0.045545,-0.014495
1241,0.000481,0.296717,-0.032611
1242,0.038924,0.397186,-0.014495
1243,0.038924,0.346952,0.003621
1244,-0.01874,0.212993,0.021737
1245,-0.037962,0.129269,0.003621
1246,0.000481,0.06229,0.003621
1247,0.000481,0.045545,-0.014495
1248,0.000481,0.0288,0.076085
1249,0.038924,0.079034,-0.014495
1250,0.019703,0.079034,0.003621
1251,0.019703,0.045545,-0.014495
1252,0.019703,0.012055,0.003621
1253,0.000481,0.0288,0.003621
1254,0.019703,0.0288,0.039853
1255,0.019703,0.012055,0.021737
1256,0.019703,-0.038179,0.021737
1257,0.000481,-0.00469,0.003621
1258,0.000481,-0.00469,-0.014495
1259,0.000481,-0.00469,0.003621
1260,0.019703,0.012055,0.003621
1261,-0.037962,0.0288,-0.014495
1262,0.000481,0.06229,-0.032611
1263,0.000481,0.045545,0.021737
1264,0.019703,0.012055,0.003621
1265,0.000481,-0.071669,-0.032611
1266,0.000481,-0.105159,-0.014495
1267,-0.037962,-0.088414,-0.050727
1268,-0.01874,-0.121903,-0.050727
1269,-0.01874,-0.105159,0.003621
1270,-0.01874,-0.088414,-0.014495
1271,0.000481,-0.088414,0.057969
1272,-0.01874,-0.071669,0.057969
1273,0.019703,-0.038179,0.021737
1274,0.000481,-0.021435,-0.014495
1275,0.000481,0.012055,0.039853
1276,0.019703,0.079034,0.057969
1277,0.019703,0.112524,0.039853
1278,0.038924,0.112524,0.094201
1279,0.000481,0.079034,0.112317
1280,0.000481,0.06229,0.112317
1281,0.000481,0.045545,0.076085
1282,-0.01874,0.0288,0.021737
1283,-0.01874,0.012055,-0.014495
1284,-0.01874,-0.038179,0.003621
1285,-0.01874,-0.00469,-0.014495
1286,-0.01874,-0.021435,0.003621
1287,0.000481,-0.00469,0.039853
1288,-0.01874,-0.00469,0.003621
1289,-0.01874,-0.021435,-0.014495
1290,-0.037962,-0.021435,0.003621
1291,-0.01874,0.012055,-0.032611
1292,-0.01874,0.012055,-0.032611
1293,-0.057183,-0.00469,-0.032611
1294,-0.037962,-0.00469,-0.014495
1295,-0.01874,-0.021435,0.003621
1296,-0.01874,-0.021435,0.021737
1297,0.000481,-0.00469,0.003621
1298,-0.037962,-0.088414,0.003621
1299,-0.01874,-0.054924,-0.032611
1300,-0.037962,-0.105159,-0.032611
1301,-0.01874,-0.071669,-0.050727
1302,-0.01874,-0.054924,-0.050727
1303,0.000481,0.012055,-0.014495
1304,-0.037962,0.06229,0.003621
1305,-0.01874,0.079034,-0.014495
1306,0.000481,0.079034,0.021737
1307,0.000481,0.0288,0.003621
1308,0.019703,0.012055,-0.032611
1309,0.000481,0.012055,0.003621
1310,-0.01874,-0.038179,-0.014495
1311,-0.01874,-0.021435,0.021737
1312,0.000481,0.012055,0.039853
1313,-0.01874,-0.00469,0.094201
1314,0.000481,0.012055,0.057969
1315,0.000481,0.0288,0.057969
1316,0.019703,0.012055,0.039853
1317,0.000481,0.0288,-0.032611
1318,-0.01874,0.045545,-0.014495
1319,-0.037962,0.012055,-0.068843
1320,0.000481,-0.021435,-0.050727
1321,0.000481,-0.00469,-0.014495
1322,-0.057183,-0.00469,0.003621
1323,-0.037962,-0.00469,0.076085
1324,-0.01874,-0.00469,0.003621
1325,0.038924,-0.021435,-0.014495
1326,0.019703,-0.021435,-0.014495
1327,0.038924,0.0288,-0.014495
1328,0.019703,0.012055,-0.014495
1329,0.000481,-0.00469,0.003621
1330,0.000481,-0.021435,0.021737
1331,0.000481,-0.00469,-0.032611
1332,0.000481,-0.00469,0.021737
1333,0.019703,0.0288,-0.014495
1334,0.000481,-0.00469,-0.032611
1335,0.000481,0.012055,0.003621
1336,0.019703,-0.071669,-0.068843
1337,-0.01874,-0.088414,-0.032611
1338,0.000481,-0.105159,0.003621
1339,0.019703,-0.071669,0.021737
1340,0.000481,-0.021435,-0.014495
1341,-0.01874,-0.021435,0.003621
1342,-0.01874,0.012055,-0.032611
1343,0.019703,0.06229,-0.032611
1344,0.038924,0.079034,0.003621
1345,0.000481,0.129269,-0.032611
1346,0.000481,0.06229,0.021737
1347,0.000481,0.0288,0.021737
1348,0.000481,0.045545,0.003621
1349,-0.01874,0.012055,0.039853
1350,-0.01874,-0.021435,-0.014495
1351,0.000481,-0.00469,-0.032611
1352,-0.01874,0.0288,-0.014495
1353,0.000481,0.0288,0.003621
1354,0.000481,0.0288,0.003621
1355,0.000481,0.0288,0.039853
1356,0.000481,0.0288,0.057969
1357,0.000481,0.045545,0.003621
1358,0.019703,-0.00469,0.003621
1359,0.000481,-0.038179,-0.014495
1360,-0.01874,-0.054924,-0.032611
1361,0.000481,-0.088414,0.003621
1362,0.000481,-0.088414,0.003621
1363,-0.01874,-0.054924,-0.032611
1364,0.000481,-0.088414,-0.014495
1365,-0.01874,-0.038179,0.003621
1366,0.000481,-0.038179,-0.032611
1367,-0.01874,0.012055,0.003621
1368,0.019703,0.012055,-0.014495
1369,0.019703,-0.00469,-0.032611
1370,0.019703,-0.00469,0.003621
1371,0.019703,0.012055,-0.014495
1372,-0.01874,0.112524,0.021737
1373,0.000481,0.146014,0.021737
1374,0.019703,0.129269,0.021737
1375,-0.01874,0.06229,0.021737
1376,0.000481,0.06229,0.003621
1377,-0.037962,0.06229,-0.014495
1378,0.000481,0.079034,-0.032611
1379,0.000481,-0.00469,-0.032611
1380,0.000481,-0.00469,0.021737
1381,0.000481,-0.00469,0.021737
1382,-0.037962,0.012055,0.003621
1383,-0.01874,-0.00469,-0.014495
1384,0.000481,0.012055,-0.032611
1385,0.000481,-0.00469,0.003621
1386,-0.01874,-0.00469,-0.032611
1387,-0.01874,-0.021435,-0.032611
1388,-0.037962,-0.00469,0.021737
1389,0.000481,-0.038179,-0.014495
1390,-0.01874,-0.038179,0.021737
1391,-0.01874,-0.038179,-0.014495
1392,0.000481,-0.038179,-0.014495
1393,0.000481,-0.00469,-0.014495
1394,-0.01874,-0.00469,-0.032611
1395,0.000481,-0.021435,-0.014495
1396,0.019703,-0.038179,0.003621
1397,-0.01874,-0.071669,0.021737
1398,-0.01874,-0.038179,-0.014495
1399,0.000481,-0.038179,-0.014495
1400,-0.01874,-0.021435,-0.032611
1401,0.000481,-0.00469,-0.068843
1402,0.000481,-0.021435,-0.032611
1403,-0.01874,0.0288,-0.068843
1404,0.019703,0.079034,-0.068843
1405,0.000481,0.095779,-0.014495
1406,-0.01874,0.045545,-0.014495
1407,0.019703,0.012055,0.003621
1408,0.019703,0.012055,0.039853
1409,0.000481,0.0288,-0.032611
1410,0.019703,0.0288,0.003621
1411,0.000481,0.012055,0.021737
1412,0.000481,0.012055,0.003621
1413,-0.01874,0.012055,0.057969
1414,-0.037962,-0.00469,0.039853
1415,0.000481,0.0288,0.039853
1416,0.058146,0.012055,0.039853
1417,0.038924,-0.00469,0.021737
1418,0.019703,-0.00469,0.003621
1419,0.000481,-0.021435,-0.014495
1420,0.019703,-0.00469,-0.014495
1421,0.019703,-0.038179,0.021737
1422,0.000481,-0.038179,0.039853
1423,0.000481,-0.021435,0.076085
1424,0.019703,-0.088414,0.021737
1425,0.000481,-0.105159,0.039853
1426,-0.01874,-0.155393,0.003621
1427,-0.037962,-0.155393,-0.014495
1428,-0.057183,-0.121903,-0.014495
1429,-0.057183,-0.021435,-0.050727
1430,-0.01874,0.112524,-0.050727
1431,0.000481,0.112524,-0.014495
1432,0.000481,0.162759,-0.050727
1433,0.000481,0.146014,-0.032611
1434,0.038924,0.146014,-0.014495
1435,0.058146,0.146014,-0.014495
1436,0.019703,0.06229,-0.014495
1437,0.019703,0.045545,0.003621
1438,0.000481,0.012055,-0.032611
1439,0.000481,0.012055,-0.014495
1440,0.000481,0.012055,0.039853
1441,-0.01874,-0.00469,0.021737
1442,0.019703,0.0288,0.021737
1443,0.019703,0.0288,0.003621
1444,0.019703,-0.00469,-0.050727
1445,0.000481,0.012055,-0.068843
1446,0.000481,-0.021435,-0.032611
1447,-0.01874,-0.038179,-0.050727
1448,0.000481,-0.054924,0.021737
1449,0.000481,0.012055,0.057969
1450,0.019703,0.012055,0.076085
1451,-0.01874,-0.021435,0.094201
1452,-0.01874,-0.021435,0.094201
1453,0.000481,-0.00469,-0.014495
1454,-0.01874,0.012055,0.021737
1455,0.000481,0.0288,-0.014495
1456,-0.01874,0.045545,-0.014495
1457,0.000481,-0.00469,-0.014495
1458,0.000481,-0.00469,0.003621
1459,0.000481,-0.021435,0.039853
1460,-0.01874,-0.054924,0.039853
1461,0.000481,-0.054924,0.021737
1462,0.000481,-0.021435,-0.068843
1463,0.019703,-0.038179,0.003621
1464,0.000481,-0.021435,-0.050727
1465,-0.01874,-0.038179,-0.014495
1466,-0.01874,-0.038179,0.021737
1467,-0.037962,-0.121903,0.057969
1468,-0.01874,-0.155393,0.039853
1469,0.000481,-0.138648,0.021737
1470,-0.01874,-0.105159,0.003621
1471,-0.01874,-0.021435,-0.068843
1472,-0.01874,0.0288,-0.014495
1473,0.000481,0.079034,-0.086959
1474,-0.01874,0.129269,-0.068843
1475,0.000481,0.162759,0.039853
1476,0.019703,0.095779,-0.014495
1477,-0.01874,0.045545,0.021737
1478,0.019703,0.045545,0.003621
1479,0.019703,0.045545,-0.014495
1480,0.000481,0.012055,0.003621
1481,0.019703,0.045545,0.039853
1482,0.000481,0.012055,-0.014495
1483,0.000481,-0.00469,0.003621
1484,0.000481,-0.00469,0.021737
1485,0.000481,0.012055,0.021737
1486,-0.01874,0.0288,0.057969
1487,0.000481,0.012055,0.003621
1488,0.000481,0.012055,-0.014495
1489,0.000481,0.012055,0.039853
1490,0.000481,0.012055,-0.050727
1491,0.000481,-0.021435,0.039853
1492,0.000481,-0.021435,0.021737
1493,0.000481,-0.038179,0.003621
1494,0.000481,-0.054924,-0.032611
1495,-0.01874,-0.105159,-0.014495
1496,-0.01874,-0.105159,-0.014495
1497,-0.037962,-0.138648,-0.050727
1498,-0.01874,-0.105159,-0.014495
1499,-0.01874,-0.054924,-0.032611
1500,0.000481,0.012055,-0.014495
1501,0.000481,0.095779,0.039853
1502,0.000481,0.095779,-0.032611
1503,-0.01874,0.095779,0.021737
1504,0.000481,0.079034,0.003621
1505,0.019703,0.045545,-0.032611
1506,0.019703,-0.00469,0.003621
1507,0.000481,-0.021435,0.021737
1508,0.000481,-0.00469,0.003621
1509,0.000481,0.0288,0.021737
1510,0.019703,0.045545,0.021737
1511,0.019703,0.045545,0.021737
1512,-0.01874,0.06229,0.003621
1513,0.000481,0.012055,-0.014495
1514,0.019703,0.012055,-0.050727
1515,-0.01874,0.012055,0.021737
1516,0.000481,-0.00469,0.021737
1517,0.019703,-0.038179,-0.014495
1518,-0.01874,-0.00469,0.057969
1519,0.000481,-0.00469,0.021737
1520,0.000481,0.012055,0.003621
1521,-0.01874,-0.021435,-0.032611
1522,-0.037962,-0.021435,-0.050727
1523,-0.01874,-0.071669,-0.050727
1524,-0.01874,-0.021435,-0.014495
1525,-0.01874,-0.021435,-0.050727
1526,0.000481,-0.00469,0.039853
1527,0.000481,0.012055,0.076085
1528,0.000481,-0.00469,0.039853
1529,0.000481,0.012055,0.039853
1530,0.019703,-0.00469,0.039853
1531,0.000481,0.012055,0.003621
1532,0.019703,-0.021435,-0.014495
1533,0.019703,-0.021435,0.003621
1534,0.000481,-0.00469,-0.014495
1535,-0.01874,0.0288,0.003621
1536,0.000481,-0.00469,-0.014495
1537,0.000481,-0.021435,0.003621
1538,0.019703,-0.021435,-0.032611
1539,-0.01874,-0.00469,-0.014495
1540,-0.01874,-0.00469,-0.014495
1541,-0.037962,-0.021435,-0.032611
1542,-0.037962,-0.021435,0.003621
1543,-0.01874,-0.038179,-0.014495
1544,0.019703,-0.038179,0.003621
1545,-0.01874,-0.054924,-0.032611
1546,0.000481,-0.00469,0.003621
1547,0.019703,-0.00469,0.021737
1548,0.000481,0.0288,-0.014495
1549,0.019703,0.012055,-0.014495
1550,-0.01874,0.012055,-0.032611
1551,0.000481,0.06229,0.003621
1552,0.000481,0.045545,0.021737
1553,0.000481,0.045545,0.039853
1554,-0.01874,0.012055,0.021737
1555,0.000481,-0.00469,-0.050727
1556,0.000481,-0.021435,-0.032611
1557,0.000481,-0.00469,-0.032611
1558,-0.01874,-0.00469,-0.014495
1559,-0.01874,-0.00469,-0.014495
1560,-0.01874,-0.00469,0.003621
1561,0.019703,0.012055,0.003621
1562,0.019703,0.012055,0.021737
1563,0.019703,-0.00469,-0.032611
1564,-0.01874,-0.021435,-0.050727
1565,-0.037962,-0.054924,-0.032611
1566,-0.01874,-0.054924,-0.068843
1567,0.000481,-0.038179,0.039853
1568,-0.01874,-0.00469,0.021737
1569,-0.01874,-0.00469,0.021737
1570,-0.037962,0.0288,0.076085
1571,0.000481,0.045545,0.039853
1572,-0.01874,-0.00469,0.003621
1573,0.000481,0.012055,0.003621
1574,-0.01874,-0.021435,0.039853
1575,0.000481,-0.00469,0.003621
1576,-0.01874,-0.021435,0.003621
1577,-0.01874,-0.038179,0.039853
1578,-0.037962,-0.038179,0.039853
1579,-0.037962,-0.054924,0.057969
1580,0.000481,-0.054924,-0.014495
1581,0.019703,0.0288,-0.014495
1582,0.038924,-0.054924,0.039853
1583,-0.01874,-0.071669,0.003621
1584,0.019703,-0.071669,0.021737
1585,0.000481,-0.038179,0.039853
1586,-0.01874,-0.038179,0.021737
1587,-0.01874,0.012055,0.021737
1588,-0.037962,0.06229,0.021737
1589,-0.037962,0.079034,-0.014495
1590,0.000481,0.129269,-0.050727
1591,0.019703,0.129269,-0.014495
1592,-0.01874,0.079034,-0.050727
1593,-0.037962,0.06229,-0.014495
1594,0.019703,0.112524,0.003621
1595,0.000481,0.112524,-0.032611
1596,0.000481,0.112524,-0.032611
1597,0.019703,0.045545,0.003621
1598,0.038924,0.0288,-0.032611
1599,0.019703,-0.00469,-0.032611
1600,0.000481,-0.038179,-0.014495
1601,0.000481,-0.038179,-0.032611
1602,-0.01874,-0.021435,-0.014495
1603,0.019703,-0.038179,-0.014495
1604,0.019703,0.012055,-0.032611
1605,0.000481,0.0288,0.021737
1606,-0.01874,0.0288,-0.014495
1607,-0.01874,0.045545,-0.032611
1608,0.000481,0.012055,-0.032611
1609,-0.037962,-0.021435,-0.050727
1610,0.000481,-0.038179,-0.032611
1611,-0.01874,-0.038179,0.003621
1612,0.019703,-0.021435,0.057969
1613,0.000481,-0.00469,0.003621
1614,-0.01874,-0.00469,0.057969
1615,0.000481,0.045545,0.003621
1616,0.038924,0.0288,-0.014495
1617,-0.01874,0.0288,0.057969
1618,0.000481,0.0288,-0.032611
1619,0.000481,0.0288,0.003621
1620,0.000481,-0.021435,0.057969
1621,0.019703,-0.00469,0.039853
1622,-0.01874,-0.021435,0.039853
1623,0.000481,-0.00469,0.021737
1624,0.019703,-0.021435,-0.014495
1625,0.019703,-0.021435,-0.032611
1626,0.019703,-0.00469,-0.014495
1627,-0.01874,-0.00469,-0.032611
1628,-0.01874,-0.021435,0.021737
1629,-0.057183,-0.00469,0.003621
1630,-0.057183,-0.021435,0.003621
1631,0.019703,-0.00469,0.003621
1632,0.000481,-0.00469,-0.050727
1633,0.000481,0.012055,-0.050727
1634,0.019703,-0.00469,-0.086959
1635,0.019703,0.012055,-0.050727
1636,0.038924,-0.021435,-0.050727
1637,0.019703,-0.054924,-0.068843
1638,0.000481,-0.054924,0.021737
1639,-0.01874,-0.071669,-0.032611
1640,-0.037962,-0.038179,0.076085
1641,0.000481,-0.00469,0.057969
1642,0.000481,0.0288,-0.014495
1643,0.000481,0.045545,0.039853
1644,0.038924,0.079034,0.021737
1645,-0.01874,0.0288,0.021737
1646,-0.01874,0.012055,0.021737
1647,0.000481,-0.00469,0.039853
1648,-0.01874,-0.054924,0.021737
1649,0.000481,-0.054924,0.057969
1650,0.000481,-0.038179,-0.014495
1651,-0.01874,-0.021435,-0.068843
1652,-0.01874,0.012055,-0.032611
1653,-0.01874,0.0288,-0.050727
1654,-0.01874,0.045545,0.021737
1655,0.000481,0.045545,0.003621
1656,0.000481,0.045545,0.003621
1657,0.000481,0.012055,0.021737
1658,-0.01874,0.012055,0.003621
1659,0.000481,-0.021435,-0.050727
1660,0.019703,0.0288,-0.032611
1661,-0.01874,0.012055,0.021737
1662,0.000481,-0.00469,-0.050727
1663,0.019703,-0.021435,-0.014495
1664,0.000481,-0.021435,0.021737
1665,0.000481,-0.054924,-0.032611
1666,0.000481,-0.088414,0.039853
1667,0.000481,-0.054924,0.039853
1668,-0.01874,-0.038179,0.003621
1669,0.000481,-0.054924,-0.032611
1670,-0.01874,-0.021435,0.021737
1671,0.000481,0.012055,-0.032611
1672,0.000481,0.012055,0.021737
1673,0.019703,0.079034,0.057969
1674,-0.01874,0.06229,0.021737
1675,-0.01874,0.045545,0.039853
1676,0.000481,0.045545,-0.032611
1677,0.000481,0.012055,-0.050727
1678,0.019703,0.012055,-0.032611
1679,0.019703,0.06229,-0.014495
1680,-0.01874,0.079034,0.021737
1681,0.038924,0.045545,0.057969
1682,0.000481,-0.00469,0.021737
1683,0.000481,-0.00469,0.003621
1684,0.019703,0.012055,0.003621
1685,0.000481,-0.021435,-0.032611
1686,0.000481,-0.021435,-0.032611
1687,0.000481,-0.021435,0.003621
1688,-0.01874,-0.088414,-0.032611
1689,-0.01874,-0.088414,-0.014495
1690,-0.01874,-0.071669,0.039853
1691,0.000481,-0.038179,0.003621
1692,0.000481,0.0288,-0.014495
1693,0.000481,0.0288,-0.032611
1694,-0.01874,0.079034,-0.050727
1695,-0.01874,0.06229,-0.086959
1696,-0.037962,0.079034,0.003621
1697,0.000481,0.045545,-0.014495
1698,0.000481,0.0288,0.039853
1699,-0.01874,0.012055,0.021737
1700,0.019703,-0.038179,0.003621
1701,0.000481,-0.038179,0.039853
1702,-0.01874,-0.071669,-0.050727
1703,0.000481,-0.071669,-0.050727
1704,-0.01874,-0.121903,-0.050727
1705,0.000481,-0.054924,0.039853
1706,-0.01874,-0.038179,-0.014495
1707,-0.01874,-0.038179,0.039853
1708,-0.01874,0.079034,0.057969
1709,-0.01874,0.045545,0.003621
1710,0.000481,0.129269,0.003621
1711,0.038924,0.212993,0.039853
1712,0.038924,0.146014,0.003621
1713,0.000481,0.045545,0.021737
1714,0.000481,0.0288,0.039853
1715,0.000481,0.012055,0.003621
1716,0.000481,0.0288,0.021737
1717,0.000481,-0.00469,0.021737
1718,0.019703,0.012055,-0.050727
1719,0.019703,0.012055,0.003621
1720,0.000481,-0.00469,-0.032611
1721,0.000481,0.0288,0.003621
1722,-0.01874,-0.00469,-0.014495
1723,0.000481,-0.00469,0.021737
1724,-0.01874,-0.021435,0.003621
1725,0.019703,0.0288,0.003621
1726,0.000481,0.012055,0.003621
1727,0.019703,-0.021435,-0.050727
1728,-0.01874,-0.021435,0.021737
1729,0.000481,-0.021435,-0.050727
1730,0.000481,-0.021435,0.021737
1731,-0.01874,-0.038179,0.003621
1732,0.000481,-0.038179,-0.032611
1733,0.000481,-0.038179,-0.014495
1734,0.000481,-0.054924,0.021737
1735,0.000481,-0.054924,0.003621
1736,0.019703,-0.038179,-0.014495
1737,0.000481,0.012055,0.003621
1738,-0.01874,-0.00469,-0.032611
1739,0.000481,-0.021435,0.003621
1740,-0.01874,-0.021435,0.021737
1741,0.000481,0.012055,0.021737
1742,0.019703,0.06229,0.057969
1743,0.019703,0.045545,0.003621
1744,0.000481,0.012055,0.003621
1745,-0.01874,0.012055,0.039853
1746,0.000481,0.012055,-0.050727
1747,-0.01874,0.045545,0.021737
1748,-0.01874,0.012055,-0.014495
1749,0.000481,0.012055,0.021737
1750,-0.01874,-0.00469,0.021737
1751,0.000481,-0.00469,0.021737
1752,-0.01874,-0.021435,-0.014495
1753,0.000481,-0.00469,-0.050727
1754,0.000481,-0.00469,-0.014495
1755,0.000481,-0.00469,-0.032611
1756,0.000481,0.0288,-0.014495
1757,-0.01874,-0.021435,0.003621
1758,0.000481,-0.038179,0.021737
1759,0.000481,-0.00469,0.021737
1760,-0.01874,-0.00469,0.003621
1761,0.000481,0.012055,-0.032611
1762,0.019703,-0.00469,-0.014495
1763,0.000481,0.012055,-0.032611
1764,-0.01874,-0.00469,-0.032611
1765,-0.01874,-0.00469,0.039853
1766,-0.01874,-0.021435,0.039853
1767,-0.01874,-0.00469,0.003621
1768,0.000481,-0.00469,-0.014495
1769,-0.037962,-0.00469,-0.014495
1770,0.000481,-0.021435,-0.050727
1771,-0.01874,-0.021435,0.003621
1772,-0.01874,-0.038179,-0.032611
1773,-0.01874,-0.00469,0.003621
1774,0.000481,-0.038179,0.057969
1775,0.000481,-0.00469,0.021737
1776,-0.01874,-0.00469,0.021737
1777,-0.01874,0.0288,0.021737
1778,0.000481,0.0288,0.003621
1779,-0.01874,0.045545,-0.014495
1780,-0.01874,0.012055,0.003621
1781,0.000481,0.0288,-0.014495
1782,0.000481,0.0288,0.003621
1783,-0.01874,-0.00469,0.003621
1784,0.000481,0.012055,-0.014495
1785,0.000481,0.012055,0.021737
1786,0.000481,-0.00469,-0.014495
1787,0.000481,-0.038179,-0.014495
1788,0.000481,-0.00469,-0.014495
1789,0.019703,0.0288,-0.032611
1790,0.000481,-0.00469,-0.032611
1791,-0.01874,-0.00469,0.021737
1792,0.000481,-0.00469,0.021737
1793,0.000481,0.012055,0.057969
1794,0.000481,-0.038179,0.076085
1795,0.000481,-0.054924,-0.014495
1796,0.000481,-0.088414,-0.014495
1797,-0.01874,-0.071669,0.003621
1798,0.000481,-0.038179,0.003621
1799,0.019703,-0.00469,-0.014495
1800,-0.01874,0.012055,0.021737
1801,-0.037962,-0.00469,0.003621
1802,-0.01874,-0.071669,-0.050727
1803,0.000481,-0.088414,0.003621
1804,-0.01874,-0.172138,-0.032611
1805,-0.037962,-0.105159,-0.032611
1806,-0.01874,-0.054924,0.039853
1807,0.000481,0.045545,0.003621
1808,0.000481,0.112524,0.057969
1809,-0.01874,0.162759,0.094201
1810,-0.01874,0.146014,0.039853
1811,0.000481,0.162759,0.021737
1812,0.019703,0.179503,0.021737
1813,0.038924,0.129269,0.021737
1814,0.058146,0.079034,0.003621
1815,0.058146,0.095779,-0.014495
1816,0.000481,0.012055,-0.032611
1817,-0.037962,0.012055,-0.032611
1818,-0.01874,-0.00469,-0.014495
1819,-0.01874,-0.00469,-0.050727
1820,0.000481,0.012055,0.003621
1821,0.000481,-0.021435,-0.032611
1822,0.019703,-0.00469,-0.050727
1823,0.000481,-0.021435,0.003621
1824,-0.01874,-0.021435,-0.014495
1825,-0.037962,-0.021435,-0.014495
1826,-0.037962,-0.021435,0.003621
1827,-0.037962,-0.00469,0.057969
1828,-0.01874,-0.038179,0.003621
1829,-0.01874,-0.021435,0.021737
1830,-0.01874,-0.00469,-0.014495
1831,0.000481,-0.054924,-0.032611
1832,-0.01874,-0.021435,-0.014495
1833,0.000481,-0.021435,-0.014495
1834,-0.01874,-0.00469,0.021737
1835,0.000481,-0.021435,0.003621
1836,0.019703,-0.021435,0.021737
1837,-0.01874,-0.00469,-0.014495
1838,0.000481,-0.038179,0.003621
1839,0.000481,0.012055,-0.014495
1840,0.000481,-0.00469,-0.050727
1841,0.000481,-0.021435,0.003621
1842,0.019703,0.012055,0.021737
1843,-0.01874,0.0288,0.021737
1844,-0.01874,0.012055,0.039853
1845,0.000481,0.012055,-0.032611
1846,-0.01874,0.012055,-0.050727
1847,-0.01874,-0.00469,-0.032611
1848,0.000481,-0.038179,-0.068843
1849,-0.01874,-0.021435,-0.050727
1850,0.000481,-0.00469,-0.014495
1851,-0.01874,-0.021435,-0.014495
1852,0.000481,-0.021435,0.021737
1853,0.000481,-0.021435,-0.014495
1854,-0.01874,-0.021435,-0.014495
1855,-0.01874,-0.021435,-0.050727
1856,0.000481,0.0288,0.003621
1857,-0.01874,0.012055,-0.014495
1858,0.000481,0.0288,0.021737
1859,-0.01874,0.0288,0.057969
1860,0.000481,-0.00469,0.021737
1861,-0.01874,-0.00469,0.076085
1862,-0.01874,-0.021435,0.039853
1863,0.000481,-0.00469,0.039853
1864,0.000481,-0.00469,0.057969
1865,0.019703,-0.021435,0.021737
1866,0.000481,0.012055,-0.050727
1867,0.000481,-0.00469,-0.014495
1868,0.000481,0.012055,0.057969
1869,-0.01874,-0.00469,-0.014495
1870,0.000481,-0.00469,0.039853
1871,0.019703,0.012055,0.021737
1872,0.000481,-0.00469,-0.032611
1873,0.000481,-0.00469,0.003621
1874,-0.01874,-0.00469,-0.032611
1875,0.000481,-0.021435,0.003621
1876,0.000481,0.012055,0.021737
1877,-0.01874,-0.021435,0.003621
1878,-0.037962,0.012055,0.021737
1879,0.000481,0.0288,0.003621
1880,0.000481,-0.00469,-0.014495
1881,-0.01874,0.012055,-0.050727
1882,0.000481,0.012055,-0.014495
1883,0.000481,-0.00469,-0.014495
1884,0.019703,0.079034,0.039853
1885,0.019703,0.0288,0.057969
1886,0.000481,0.0288,0.003621
1887,-0.01874,0.012055,-0.014495
1888,0.000481,-0.00469,-0.014495
1889,0.000481,-0.021435,-0.032611
1890,-0.01874,-0.021435,-0.050727
1891,0.000481,-0.054924,-0.032611
1892,-0.01874,-0.088414,-0.032611
1893,0.000481,-0.038179,0.003621
1894,0.000481,-0.071669,0.003621
1895,0.000481,-0.038179,-0.014495
1896,-0.01874,-0.038179,0.021737
1897,0.000481,-0.00469,-0.050727
1898,-0.01874,0.012055,-0.050727
1899,0.000481,0.045545,-0.014495
1900,-0.01874,0.0288,-0.014495
1901,0.000481,0.0288,0.021737
1902,0.000481,0.095779,-0.014495
1903,0.000481,0.079034,-0.014495
1904,0.019703,0.06229,0.021737
1905,-0.01874,0.0288,0.039853
1906,0.000481,0.012055,-0.014495
1907,0.000481,0.0288,-0.050727
1908,-0.01874,0.012055,0.003621
1909,0.000481,0.012055,-0.014495
1910,0.000481,-0.021435,-0.014495
1911,-0.01874,-0.038179,0.021737
1912,-0.01874,-0.038179,0.003621
1913,0.019703,-0.00469,0.039853
1914,0.000481,0.012055,0.039853
1915,0.000481,-0.00469,0.021737
1916,-0.01874,-0.00469,0.003621
1917,0.000481,0.0288,-0.014495
1918,-0.01874,0.012055,-0.014495
1919,-0.01874,0.012055,0.003621
1920,0.019703,0.0288,0.021737
1921,-0.01874,-0.00469,-0.014495
1922,-0.01874,0.012055,0.039853
1923,0.019703,-0.00469,0.021737
1924,0.000481,-0.021435,-0.032611
1925,0.000481,-0.021435,-0.014495
1926,0.019703,-0.021435,-0.068843
1927,0.000481,-0.00469,0.003621
1928,0.000481,-0.021435,0.003621
1929,0.019703,-0.00469,0.039853
1930,-0.01874,0.0288,0.003621
1931,0.000481,0.012055,0.003621
1932,-0.01874,-0.00469,0.003621
1933,0.000481,0.06229,-0.050727
1934,-0.01874,0.012055,0.021737
1935,0.000481,0.012055,-0.014495
1936,0.000481,-0.00469,0.021737
1937,-0.01874,-0.00469,0.057969
1938,0.019703,0.012055,0.021737
1939,0.000481,0.045545,-0.050727
1940,-0.01874,-0.021435,-0.050727
1941,0.000481,-0.00469,-0.068843
1942,0.000481,-0.00469,-0.050727
1943,0.000481,-0.021435,-0.032611
1944,0.000481,-0.00469,-0.014495
1945,0.000481,-0.00469,0.021737
1946,-0.01874,0.012055,0.094201
1947,-0.01874,-0.021435,0.003621
1948,0.000481,0.012055,0.094201
1949,0.000481,-0.00469,0.003621
1950,0.000481,0.012055,-0.014495
1951,0.000481,-0.00469,-0.032611
1952,0.000481,-0.00469,-0.014495
1953,-0.01874,-0.00469,-0.050727
1954,0.000481,0.012055,-0.032611
1955,0.019703,-0.00469,-0.032611
1956,0.000481,-0.00469,-0.068843
1957,0.000481,-0.021435,-0.032611
1958,0.000481,-0.021435,0.003621
1959,0.000481,-0.021435,-0.032611
1960,0.000481,-0.021435,-0.014495
1961,0.000481,-0.021435,0.021737
1962,-0.01874,-0.00469,0.057969
1963,0.019703,0.0288,0.112317
1964,0.000481,-0.00469,0.112317
1965,-0.01874,0.0288,0.112317
1966,-0.01874,0.012055,0.112317
1967,0.000481,0.012055,0.021737
1968,0.000481,0.0288,0.003621
1969,-0.01874,0.012055,0.003621
1970,0.019703,0.0288,-0.068843
1971,0.000481,0.012055,-0.014495
1972,0.000481,0.012055,0.039853
1973,0.019703,0.012055,-0.014495
1974,0.019703,0.012055,0.039853
1975,-0.01874,-0.00469,-0.014495
1976,-0.01874,0.012055,-0.032611
1977,0.019703,0.0288,-0.014495
1978,-0.01874,0.012055,-0.014495
1979,-0.01874,-0.00469,-0.032611
1980,0.019703,0.012055,-0.014495
1981,-0.01874,0.0288,0.057969
1982,-0.057183,-0.00469,-0.014495
1983,0.000481,-0.038179,0.003621
1984,-0.01874,-0.038179,-0.032611
1985,-0.01874,-0.00469,-0.086959
1986,0.000481,-0.00469,-0.032611
1987,0.000481,-0.021435,-0.014495
1988,0.000481,-0.021435,-0.032611
1989,-0.01874,0.012055,0.021737
1990,0.000481,-0.021435,0.039853
1991,0.019703,-0.00469,0.021737
1992,0.019703,-0.00469,0.003621
1993,0.000481,-0.021435,-0.032611
1994,-0.037962,-0.038179,-0.014495
1995,-0.01874,0.012055,0.003621
1996,-0.01874,-0.021435,-0.032611
1997,-0.01874,0.012055,0.003621
1998,-0.01874,0.06229,0.076085
1999,-0.01874,0.012055,0.003621
2000,0.000481,0.0288,-0.032611
2001,0.000481,0.0288,0.003621
2002,0.019703,-0.021435,-0.050727
2003,0.000481,0.0288,0.003621
2004,0.000481,-0.00469,0.003621
2005,-0.01874,-0.021435,-0.032611
2006,0.000481,0.012055,0.021737
2007,0.019703,0.012055,0.021737
2008,0.000481,-0.021435,-0.032611
2009,0.000481,-0.00469,-0.050727
2010,0.019703,-0.021435,-0.014495
2011,0.000481,-0.00469,-0.014495
2012,-0.01874,0.012055,-0.050727
2013,0.019703,0.012055,0.003621
2014,0.000481,0.012055,-0.050727
2015,-0.037962,-0.021435,0.021737
2016,-0.01874,-0.00469,0.021737
2017,0.000481,-0.00469,-0.032611
2018,0.000481,0.012055,-0.032611
2019,0.000481,-0.021435,0.021737
2020,-0.01874,0.0288,-0.050727
2021,0.000481,0.012055,0.039853
2022,-0.01874,0.012055,0.094201
2023,-0.01874,0.0288,0.057969
2024,0.019703,0.0288,0.076085
2025,-0.01874,-0.00469,0.039853
2026,-0.037962,-0.00469,0.021737
2027,0.000481,0.012055,0.021737
2028,0.019703,-0.00469,-0.032611
2029,-0.01874,-0.00469,-0.050727
2030,-0.01874,-0.00469,-0.032611
2031,0.019703,-0.00469,-0.014495
2032,0.000481,-0.021435,-0.014495
2033,0.000481,-0.021435,-0.014495
2034,0.000481,-0.00469,-0.014495
2035,0.019703,0.0288,-0.014495
2036,0.019703,0.012055,0.021737
2037,0.000481,-0.00469,0.003621
2038,0.000481,0.012055,0.021737
2039,0.000481,-0.00469,0.003621
2040,0.019703,0.012055,0.021737
2041,-0.01874,0.012055,0.039853
2042,-0.037962,-0.00469,0.039853
2043,-0.01874,0.012055,0.003621
2044,0.000481,-0.00469,-0.032611
2045,0.000481,-0.00469,-0.050727
2046,0.000481,-0.00469,-0.068843
2047,0.000481,-0.00469,-0.050727
2048,0.000481,-0.038179,0.021737
2049,0.000481,-0.021435,-0.014495
2050,-0.01874,0.0288,-0.014495
2051,0.038924,-0.00469,-0.014495
2052,0.019703,-0.00469,0.003621
2053,0.019703,0.012055,0.003621
2054,0.000481,0.0288,0.021737
2055,0.019703,0.012055,-0.014495
2056,0.019703,-0.00469,0.003621
2057,0.019703,-0.00469,0.021737
2058,-0.01874,0.012055,0.021737
2059,0.038924,-0.021435,0.094201
2060,0.019703,0.012055,0.021737
2061,0.019703,0.012055,-0.032611
2062,0.019703,-0.00469,-0.050727
2063,0.019703,0.012055,-0.032611
2064,0.000481,0.012055,-0.032611
2065,0.000481,-0.054924,-0.050727
2066,0.000481,-0.038179,-0.014495
2067,0.000481,-0.00469,-0.068843
2068,0.000481,-0.00469,-0.032611
2069,0.000481,-0.038179,-0.068843
2070,0.000481,-0.038179,-0.086959
2071,0.019703,-0.038179,-0.032611
2072,0.000481,-0.00469,-0.068843
2073,0.000481,0.012055,-0.068843
2074,0.019703,0.012055,-0.050727
2075,0.000481,0.0288,0.076085
2076,0.000481,0.0288,0.112317
2077,0.000481,0.079034,0.148549
2078,0.000481,0.045545,0.130433
2079,0.019703,0.045545,0.076085
2080,0.000481,0.0288,0.094201
2081,0.000481,0.012055,0.094201
2082,0.038924,0.012055,0.094201
2083,0.038924,0.0288,0.112317
2084,0.019703,0.0288,0.057969
2085,0.000481,0.012055,0.039853
2086,0.000481,0.012055,0.021737
2087,0.000481,0.012055,-0.014495
2088,-0.01874,0.0288,0.003621
2089,0.000481,-0.00469,-0.014495
2090,0.000481,-0.021435,-0.086959
2091,-0.01874,0.012055,-0.032611
2092,-0.01874,-0.00469,0.039853
2093,0.000481,-0.00469,-0.014495
2094,0.000481,-0.00469,0.021737
2095,0.000481,-0.00469,-0.050727
2096,0.000481,-0.00469,-0.032611
2097,-0.01874,-0.00469,-0.032611
2098,-0.01874,0.012055,-0.032611
2099,-0.01874,0.012055,0.003621
2100,-0.01874,-0.00469,0.021737
2101,0.000481,0.012055,0.057969
2102,0.000481,-0.021435,0.003621
2103,-0.01874,-0.021435,0.039853
2104,-0.01874,-0.021435,-0.014495
2105,-0.01874,-0.00469,-0.050727
2106,0.000481,0.012055,-0.014495
2107,0.000481,-0.00469,-0.050727
2108,0.000481,-0.00469,0.003621
2109,-0.01874,-0.021435,0.021737
2110,-0.037962,0.012055,0.021737
2111,-0.037962,0.045545,0.039853
2112,-0.01874,-0.00469,-0.014495
2113,0.000481,0.045545,0.003621
2114,0.000481,0.0288,-0.032611
2115,0.019703,0.045545,0.003621
2116,-0.01874,0.012055,-0.014495
2117,0.019703,-0.00469,0.057969
2118,0.000481,0.012055,0.021737
2119,0.000481,0.012055,0.003621
2120,-0.01874,-0.021435,0.039853
2121,0.019703,0.012055,0.003621
2122,0.000481,-0.021435,-0.014495
2123,0.000481,0.012055,-0.014495
2124,0.019703,-0.038179,-0.050727
2125,0.019703,0.012055,0.003621
2126,0.000481,0.012055,-0.014495
2127,-0.01874,-0.00469,-0.032611
2128,0.000481,-0.00469,-0.032611
2129,0.019703,-0.00469,0.003621
2130,0.000481,-0.021435,0.003621
2131,-0.01874,0.012055,-0.032611
2132,0.000481,-0.021435,0.021737
2133,-0.01874,0.012055,0.003621
2134,0.019703,0.0288,0.003621
2135,0.000481,0.012055,0.039853
2136,-0.01874,-0.00469,-0.014495
2137,0.000481,-0.021435,0.003621
2138,0.000481,-0.00469,-0.014495
2139,0.000481,0.012055,-0.032611
2140,-0.01874,-0.00469,-0.050727
2141,0.000481,-0.038179,0.021737
2142,-0.01874,-0.038179,-0.014495
2143,0.000481,-0.038179,0.003621
2144,0.000481,-0.054924,0.021737
2145,-0.01874,0.012055,-0.014495
2146,0.000481,-0.00469,0.039853
2147,-0.037962,0.0288,0.003621
2148,-0.01874,0.079034,0.003621
2149,0.000481,0.079034,0.021737
2150,0.000481,0.045545,0.021737
2151,-0.01874,0.012055,0.021737
2152,0.000481,-0.021435,0.021737
2153,-0.01874,-0.021435,0.021737
2154,0.000481,0.012055,-0.014495
2155,0.000481,-0.00469,0.003621
2156,-0.01874,-0.00469,-0.050727
2157,0.000481,0.012055,-0.050727
2158,-0.01874,0.0288,-0.014495
2159,0.000481,0.0288,-0.014495
2160,-0.01874,0.0288,0.003621
2161,0.019703,0.045545,0.021737
2162,0.000481,0.012055,0.021737
2163,0.000481,0.012055,-0.014495
2164,0.000481,0.012055,-0.032611
2165,0.000481,-0.00469,-0.032611
2166,0.000481,-0.038179,-0.032611
2167,0.000481,-0.021435,0.003621
2168,0.000481,0.012055,-0.014495
2169,0.000481,-0.021435,0.021737
2170,0.000481,-0.00469,0.003621
2171,-0.01874,-0.021435,-0.050727
2172,0.000481,-0.021435,-0.050727
2173,0.000481,-0.00469,0.003621
2174,0.000481,0.012055,-0.050727
2175,-0.01874,0.012055,0.021737
2176,0.000481,-0.00469,0.039853
2177,-0.01874,0.012055,0.021737
2178,0.000481,0.012055,0.076085
2179,0.000481,0.012055,0.039853
2180,0.000481,-0.00469,0.039853
2181,0.000481,0.012055,0.021737
2182,0.000481,-0.00469,0.003621
2183,-0.01874,-0.00469,0.003621
2184,-0.01874,0.012055,0.003621
2185,0.000481,0.012055,0.021737
2186,0.000481,0.012055,0.039853
2187,-0.01874,-0.00469,0.021737
2188,-0.01874,-0.021435,0.003621
2189,-0.037962,-0.00469,-0.032611
2190,-0.01874,-0.00469,-0.014495
2191,0.000481,-0.00469,-0.014495
2192,-0.01874,-0.021435,0.021737
2193,-0.01874,0.012055,0.039853
2194,-0.01874,-0.021435,0.003621
2195,-0.01874,-0.00469,0.039853
2196,-0.01874,0.012055,-0.014495
2197,-0.01874,-0.021435,-0.032611
2198,0.000481,0.012055,-0.086959
2199,0.019703,-0.00469,-0.068843
2200,0.019703,-0.00469,-0.068843
2201,0.000481,0.012055,-0.050727
2202,-0.01874,-0.021435,-0.032611
2203,-0.01874,-0.021435,-0.032611
2204,0.000481,-0.038179,-0.032611
2205,-0.01874,0.012055,-0.014495
2206,0.000481,0.012055,-0.014495
2207,0.000481,0.012055,0.003621
2208,-0.01874,-0.00469,-0.014495
2209,0.000481,0.012055,0.057969
2210,0.000481,-0.00469,0.076085
2211,0.019703,0.012055,0.112317
2212,0.000481,-0.00469,0.094201
2213,0.000481,0.0288,0.057969
2214,-0.01874,0.012055,0.039853
2215,0.000481,0.0288,0.003621
2216,0.000481,0.012055,0.021737
2217,0.038924,0.012055,-0.032611
2218,-0.01874,0.012055,0.039853
2219,0.019703,-0.00469,0.003621
2220,0.019703,0.012055,0.021737
2221,0.000481,0.012055,0.003621
2222,0.019703,0.012055,0.003621
2223,0.000481,-0.00469,-0.014495
2224,0.000481,-0.038179,-0.050727
2225,0.019703,-0.021435,-0.014495
2226,-0.01874,0.012055,-0.032611
2227,-0.01874,0.012055,-0.014495
2228,-0.01874,-0.00469,0.039853
2229,-0.01874,-0.00469,-0.014495
2230,0.000481,-0.021435,0.003621
2231,0.000481,-0.021435,-0.032611
2232,0.000481,-0.00469,-0.032611
2233,0.000481,-0.021435,-0.032611
2234,0.000481,0.012055,0.003621
2235,0.000481,-0.00469,-0.032611
2236,0.019703,-0.00469,0.021737
2237,-0.01874,-0.021435,0.021737
2238,-0.01874,-0.00469,0.021737
2239,-0.01874,0.012055,0.021737
2240,0.000481,-0.00469,-0.014495
2241,0.000481,0.012055,-0.032611
2242,-0.01874,-0.00469,-0.014495
2243,0.000481,-0.021435,-0.050727
2244,-0.037962,-0.00469,-0.014495
2245,0.000481,-0.00469,-0.032611
2246,0.000481,-0.021435,-0.014495
2247,-0.01874,-0.00469,-0.086959
2248,-0.01874,-0.021435,-0.032611
2249,-0.037962,0.012055,-0.050727
2250,-0.01874,-0.00469,-0.050727
2251,-0.037962,-0.021435,-0.014495
2252,-0.01874,-0.00469,-0.050727
2253,-0.01874,-0.021435,-0.014495
2254,0.000481,-0.00469,0.039853
2255,-0.01874,0.012055,0.021737
2256,-0.01874,-0.00469,0.057969
2257,0.000481,0.0288,0.039853
2258,0.000481,0.0288,0.039853
2259,0.019703,0.045545,0.057969
2260,0.000481,0.0288,0.039853
2261,0.000481,0.0288,0.039853
2262,0.000481,-0.00469,0.057969
2263,-0.01874,-0.00469,0.021737
2264,0.000481,0.012055,-0.014495
2265,0.000481,-0.00469,0.003621
2266,0.000481,0.0288,0.003621
2267,0.000481,-0.00469,-0.032611
2268,0.019703,-0.00469,0.057969
2269,0.019703,0.0288,0.039853
2270,0.019703,-0.00469,-0.032611
2271,0.000481,-0.00469,0.003621
2272,-0.01874,-0.038179,-0.032611
2273,-0.01874,-0.00469,-0.068843
2274,-0.01874,-0.021435,-0.068843
2275,-0.01874,-0.00469,-0.086959
2276,0.000481,-0.021435,-0.068843
2277,-0.01874,-0.021435,-0.032611
2278,-0.01874,-0.00469,-0.032611
2279,-0.01874,-0.00469,0.021737
2280,-0.01874,-0.021435,-0.014495
2281,-0.01874,0.012055,-0.014495
2282,-0.01874,-0.00469,-0.014495
2283,-0.057183,0.012055,0.039853
2284,0.000481,0.012055,0.021737
2285,0.000481,0.012055,0.076085
2286,0.000481,0.012055,0.094201
2287,0.000481,0.012055,0.057969
2288,0.000481,0.012055,0.076085
2289,0.019703,0.012055,0.057969
2290,0.000481,0.012055,0.003621
2291,-0.01874,0.045545,0.039853
2292,0.000481,0.012055,0.039853
2293,0.000481,-0.00469,0.003621
2294,0.000481,-0.00469,0.039853
2295,0.000481,-0.00469,-0.014495
2296,-0.01874,-0.00469,0.003621
2297,0.000481,0.012055,-0.032611
2298,-0.01874,-0.00469,-0.068843
2299,0.000481,0.012055,-0.086959
2300,-0.01874,-0.00469,-0.014495
2301,0.000481,-0.00469,-0.032611
2302,-0.01874,0.0288,0.003621
2303,0.000481,0.045545,-0.032611
2304,0.000481,-0.00469,0.021737
2305,0.000481,0.012055,0.021737
2306,0.000481,0.012055,0.003621
2307,0.019703,-0.021435,-0.050727
2308,0.019703,0.012055,-0.014495
2309,0.038924,-0.00469,-0.014495
2310,0.000481,0.012055,0.003621
2311,0.000481,-0.038179,-0.014495
2312,0.019703,0.012055,-0.014495
2313,0.019703,-0.00469,-0.050727
2314,0.038924,0.012055,-0.014495
2315,0.019703,0.012055,-0.014495
2316,0.038924,-0.021435,-0.050727
2317,0.019703,0.012055,-0.014495
2318,0.000481,0.012055,-0.032611
2319,0.000481,0.012055,-0.014495
2320,0.000481,0.012055,0.076085
2321,0.000481,-0.00469,0.021737
2322,-0.037962,-0.00469,0.021737
2323,-0.01874,0.012055,-0.014495
2324,0.000481,0.012055,0.003621
2325,-0.01874,-0.00469,0.003621
2326,-0.01874,-0.021435,0.021737
2327,-0.01874,-0.021435,-0.014495
2328,-0.037962,-0.00469,0.003621
2329,0.000481,-0.021435,-0.032611
2330,-0.01874,-0.021435,-0.050727
2331,-0.037962,-0.00469,-0.050727
2332,-0.057183,-0.00469,-0.068843
2333,-0.057183,-0.00469,-0.105075
2334,-0.057183,0.012055,-0.032611
2335,-0.057183,-0.038179,-0.032611
2336,-0.057183,-0.021435,-0.050727
2337,-0.057183,-0.021435,-0.032611
2338,-0.037962,-0.038179,0.003621
2339,-0.01874,-0.038179,0.039853
2340,-0.01874,0.012055,0.039853
2341,-0.01874,0.012055,0.039853
2342,0.000481,-0.00469,0.094201
2343,0.019703,0.012055,0.130433
2344,0.019703,0.045545,0.094201
2345,0.019703,0.0288,0.094201
2346,0.000481,0.0288,0.039853
2347,0.000481,0.012055,0.021737
2348,0.000481,0.012055,0.003621
2349,-0.01874,-0.021435,-0.032611
2350,0.000481,0.012055,-0.050727
2351,0.000481,0.012055,-0.014495
2352,0.000481,-0.00469,0.021737
2353,-0.01874,-0.00469,-0.032611
2354,-0.01874,-0.00469,0.021737
2355,-0.01874,0.0288,-0.014495
2356,0.000481,-0.00469,-0.014495
2357,0.000481,0.012055,-0.014495
2358,0.000481,0.012055,-0.050727
2359,-0.01874,0.012055,-0.014495
2360,-0.01874,-0.00469,-0.014495
2361,-0.01874,-0.00469,0.003621
2362,0.019703,-0.00469,0.003621
2363,-0.01874,-0.00469,0.039853
2364,0.000481,-0.00469,0.003621
2365,0.019703,0.0288,-0.032611
2366,0.000481,0.012055,0.021737
2367,-0.01874,-0.00469,-0.014495
2368,-0.01874,-0.00469,0.003621
2369,0.019703,-0.021435,0.039853
2370,-0.01874,0.012055,0.039853
2371,-0.01874,0.012055,0.021737
2372,0.000481,0.045545,-0.032611
2373,0.000481,0.012055,0.003621
2374,-0.01874,0.012055,-0.032611
2375,0.000481,0.012055,-0.032611
2376,0.019703,-0.00469,-0.032611
2377,0.019703,0.012055,-0.014495
2378,0.019703,0.012055,0.021737
2379,0.019703,-0.00469,-0.014495
2380,0.000481,-0.00469,0.021737
2381,-0.01874,0.012055,-0.014495
2382,0.000481,-0.021435,-0.050727
2383,-0.01874,0.0288,-0.032611
2384,-0.037962,-0.00469,-0.050727
2385,-0.01874,0.0288,-0.014495
2386,-0.037962,0.012055,0.039853
2387,-0.057183,0.012055,0.039853
2388,-0.01874,-0.00469,0.039853
2389,-0.01874,-0.021435,0.039853
2390,-0.01874,0.012055,-0.014495
2391,0.000481,0.012055,-0.050727
2392,-0.057183,-0.038179,-0.032611
2393,0.000481,-0.00469,-0.068843
2394,-0.01874,0.012055,-0.068843
2395,-0.01874,-0.00469,0.021737
2396,0.019703,-0.021435,-0.050727
2397,0.000481,-0.00469,-0.014495
2398,0.038924,-0.00469,-0.014495
2399,-0.037962,0.0288,-0.014495
2400,-0.01874,-0.038179,-0.032611
2401,-0.01874,-0.038179,-0.032611
2402,0.000481,0.045545,-0.014495
2403,0.019703,-0.00469,0.003621
2404,-0.01874,0.012055,0.039853
2405,-0.01874,0.0288,0.057969
2406,-0.01874,0.012055,0.094201
2407,-0.01874,0.0288,0.076085
2408,0.019703,0.012055,0.057969
2409,0.000481,-0.021435,0.039853
2410,0.000481,0.012055,0.039853
2411,0.000481,0.012055,0.057969
2412,-0.01874,0.012055,0.057969
2413,-0.01874,0.012055,0.057969
2414,-0.01874,-0.00469,-0.014495
2415,-0.037962,0.012055,0.003621
2416,0.019703,-0.00469,-0.014495
2417,-0.01874,-0.021435,-0.050727
2418,-0.01874,-0.038179,-0.014495
2419,0.000481,-0.00469,-0.050727
2420,-0.037962,-0.00469,-0.014495
2421,-0.01874,-0.00469,-0.014495
2422,-0.037962,0.0288,-0.050727
2423,0.000481,0.012055,-0.050727
2424,0.019703,-0.00469,-0.032611
2425,0.000481,-0.00469,-0.032611
2426,-0.01874,-0.038179,-0.086959
2427,-0.01874,0.012055,-0.014495
2428,-0.01874,-0.021435,-0.068843
2429,-0.01874,0.012055,-0.014495
2430,-0.01874,-0.00469,0.021737
2431,0.000481,0.012055,0.003621
2432,0.000481,-0.038179,0.021737
2433,-0.01874,0.0288,0.003621
2434,-0.01874,-0.00469,-0.032611
2435,-0.037962,-0.00469,-0.014495
2436,-0.01874,0.012055,0.003621
2437,0.000481,-0.00469,-0.014495
2438,0.000481,-0.00469,0.003621
2439,-0.01874,0.012055,-0.014495
2440,-0.01874,0.012055,-0.050727
2441,-0.037962,-0.00469,0.021737
2442,-0.057183,-0.00469,-0.014495
2443,-0.01874,-0.021435,-0.068843
2444,-0.01874,-0.00469,0.021737
2445,0.000481,-0.00469,0.021737
2446,0.000481,0.0288,0.021737
2447,0.000481,-0.00469,0.021737
2448,-0.037962,0.012055,0.021737
2449,-0.01874,0.012055,0.021737
2450,0.019703,0.012055,0.057969
2451,-0.01874,0.012055,-0.014495
2452,0.000481,-0.021435,-0.032611
2453,0.000481,-0.00469,0.039853
2454,0.000481,-0.00469,-0.014495
2455,0.019703,0.012055,-0.014495
2456,0.000481,0.012055,0.003621
2457,-0.01874,0.012055,-0.032611
2458,-0.01874,-0.00469,-0.050727
2459,0.000481,-0.00469,0.021737
2460,-0.01874,0.012055,0.003621
2461,-0.01874,0.012055,-0.032611
2462,-0.01874,-0.021435,0.003621
2463,-0.01874,-0.038179,-0.032611
2464,-0.037962,-0.021435,-0.014495
2465,-0.01874,0.012055,0.021737
2466,0.000481,0.012055,-0.014495
2467,0.000481,-0.00469,-0.032611
2468,0.000481,-0.00469,-0.032611
2469,0.000481,-0.021435,0.003621
2470,0.019703,-0.00469,0.039853
2471,-0.01874,-0.00469,0.021737
2472,0.000481,0.012055,0.003621
2473,-0.01874,-0.00469,0.021737
2474,0.019703,-0.00469,0.021737
2475,0.019703,-0.00469,0.003621
2476,0.000481,0.012055,0.039853
2477,-0.01874,0.0288,0.003621
2478,-0.01874,-0.00469,0.003621
2479,-0.01874,0.012055,0.021737
2480,-0.037962,0.012055,0.039853
2481,-0.01874,-0.00469,0.021737
2482,0.019703,0.012055,0.039853
2483,0.019703,0.012055,0.003621
2484,0.038924,-0.00469,-0.032611
2485,0.000481,0.012055,0.021737
2486,0.000481,-0.021435,-0.032611
2487,-0.01874,-0.00469,-0.032611
2488,0.000481,0.012055,-0.014495
2489,-0.01874,-0.021435,0.003621
2490,-0.037962,-0.00469,-0.032611
2491,-0.037962,-0.00469,0.003621
2492,-0.01874,-0.021435,0.003621
2493,-0.01874,-0.00469,-0.050727
2494,-0.01874,-0.021435,-0.014495
2495,-0.01874,-0.00469,-0.050727
2496,-0.01874,-0.021435,0.003621
2497,0.000481,0.012055,-0.014495
2498,0.000481,-0.00469,-0.050727
2499,0.000481,-0.00469,0.003621
2500,0.000481,-0.038179,0.003621
2501,-0.01874,-0.021435,-0.014495
2502,-0.01874,-0.00469,-0.068843
2503,0.000481,-0.00469,-0.050727
2504,0.000481,0.012055,-0.050727
2505,0.000481,0.012055,-0.014495
2506,-0.01874,0.0288,0.076085
2507,0.000481,0.012055,0.094201
2508,0.000481,0.012055,0.057969
2509,-0.01874,0.012055,0.021737
2510,0.000481,-0.00469,0.003621
2511,0.000481,-0.00469,-0.032611
2512,-0.01874,0.012055,-0.014495
2513,-0.01874,0.0288,-0.014495
2514,0.000481,0.0288,0.039853
2515,0.019703,0.012055,0.076085
2516,0.019703,-0.00469,0.039853
2517,0.000481,0.012055,0.003621
2518,0.019703,0.012055,0.003621
2519,-0.01874,0.012055,-0.014495
2520,0.000481,0.012055,-0.032611
2521,-0.01874,0.0288,-0.068843
2522,0.000481,-0.00469,-0.032611
2523,-0.01874,0.012055,0.003621
2524,0.000481,0.012055,0.003621
2525,-0.01874,-0.00469,0.039853
2526,0.000481,0.012055,0.021737
2527,-0.01874,0.012055,-0.032611
2528,-0.037962,0.0288,-0.032611
2529,-0.01874,-0.021435,-0.014495
2530,-0.01874,-0.00469,-0.050727
2531,0.000481,-0.00469,0.003621
2532,0.000481,-0.00469,0.039853
2533,0.019703,-0.00469,-0.050727
2534,-0.01874,0.012055,0.003621
2535,-0.037962,-0.038179,-0.032611
2536,0.000481,0.012055,-0.068843
2537,-0.01874,-0.021435,-0.014495
2538,0.000481,0.012055,0.003621
2539,0.000481,-0.00469,0.003621
2540,0.000481,0.012055,0.021737
2541,0.000481,0.012055,0.039853
2542,0.000481,-0.00469,0.039853
2543,-0.01874,0.0288,0.003621
2544,0.000481,0.012055,-0.014495
2545,0.000481,0.012055,-0.050727
2546,0.000481,0.0288,0.021737
2547,0.000481,-0.021435,0.003621
2548,0.000481,0.012055,0.021737
2549,-0.01874,-0.00469,0.039853
2550,0.000481,0.012055,-0.014495
2551,0.000481,-0.00469,-0.014495
2552,-0.01874,-0.00469,0.021737
2553,0.000481,-0.00469,0.003621
2554,0.000481,0.012055,-0.014495
2555,-0.01874,-0.00469,0.021737
2556,-0.057183,0.012055,-0.032611
2557,0.000481,-0.021435,-0.032611
2558,-0.01874,0.012055,0.021737
2559,-0.01874,-0.00469,-0.032611
2560,-0.01874,0.012055,0.003621
2561,0.000481,-0.021435,-0.014495
2562,0.000481,0.079034,-0.050727
2563,-0.037962,0.012055,-0.014495
2564,-0.01874,-0.00469,-0.032611
2565,0.000481,0.012055,0.003621
2566,0.019703,-0.021435,0.039853
2567,-0.01874,-0.021435,0.021737
2568,-0.01874,0.012055,-0.014495
2569,0.000481,0.012055,-0.014495
2570,-0.01874,-0.00469,0.021737
2571,-0.01874,-0.00469,0.021737
2572,0.000481,0.012055,0.039853
2573,0.000481,-0.038179,-0.050727
2574,-0.057183,-0.00469,-0.014495
2575,-0.01874,-0.00469,-0.014495
2576,0.000481,0.0288,0.003621
2577,0.019703,0.012055,-0.014495
2578,0.000481,0.012055,-0.014495
2579,0.000481,-0.00469,-0.032611
2580,-0.037962,-0.00469,-0.050727
2581,-0.01874,-0.021435,0.021737
2582,0.019703,0.0288,-0.014495
2583,-0.01874,0.045545,0.039853
2584,0.000481,0.012055,0.057969
2585,0.000481,-0.00469,0.003621
2586,0.000481,-0.021435,0.003621
2587,0.019703,-0.00469,-0.014495
2588,-0.01874,0.012055,-0.032611
2589,-0.01874,-0.00469,-0.014495
2590,0.000481,-0.00469,0.021737
2591,-0.01874,0.0288,-0.014495
2592,0.019703,0.012055,-0.014495
2593,0.019703,-0.00469,0.003621
2594,0.019703,-0.021435,-0.050727
2595,0.000481,-0.038179,-0.032611
2596,-0.037962,0.012055,0.021737
2597,0.000481,-0.00469,0.039853
2598,-0.01874,0.012055,0.039853
2599,0.000481,0.012055,0.076085
2600,-0.01874,-0.00469,-0.014495
2601,0.019703,-0.00469,0.003621
2602,0.019703,-0.00469,0.003621
2603,0.000481,-0.021435,-0.050727
2604,-0.01874,0.045545,0.003621
2605,0.019703,0.012055,-0.014495
2606,-0.01874,-0.00469,-0.032611
2607,-0.01874,-0.038179,-0.014495
2608,-0.01874,-0.00469,-0.032611
2609,-0.01874,0.06229,0.021737
2610,0.000481,0.012055,0.039853
2611,0.019703,0.012055,0.039853
2612,-0.037962,0.012055,-0.014495
2613,0.000481,-0.00469,-0.032611
2614,0.000481,-0.00469,-0.014495
2615,0.000481,-0.00469,0.003621
2616,0.019703,-0.00469,0.003621
2617,-0.01874,-0.00469,-0.032611
2618,0.000481,-0.00469,-0.014495
2619,-0.01874,0.012055,0.003621
2620,-0.01874,-0.00469,-0.014495
2621,0.000481,-0.00469,-0.032611
2622,0.000481,0.012055,-0.014495
2623,-0.01874,0.012055,-0.032611
2624,-0.01874,-0.00469,0.021737
2625,-0.01874,-0.00469,0.021737
2626,0.000481,-0.00469,0.003621
2627,0.000481,0.012055,0.003621
2628,-0.01874,0.012055,-0.014495
2629,-0.01874,-0.00469,-0.014495
2630,-0.01874,-0.00469,-0.032611
2631,-0.01874,0.0288,0.003621
2632,0.000481,0.012055,-0.014495
2633,0.000481,0.012055,-0.014495
2634,-0.01874,0.012055,0.003621
2635,-0.01874,-0.021435,-0.032611
2636,-0.037962,-0.00469,0.003621
2637,0.000481,0.012055,-0.014495
2638,-0.01874,-0.00469,-0.032611
2639,-0.037962,-0.038179,0.021737
2640,-0.037962,-0.00469,-0.014495
2641,-0.01874,0.012055,0.003621
2642,0.000481,-0.00469,0.021737
2643,-0.01874,-0.00469,-0.014495
2644,-0.037962,-0.00469,0.039853
2645,0.000481,0.012055,0.039853
2646,-0.01874,0.012055,0.021737
2647,0.000481,0.012055,-0.014495
2648,-0.01874,0.012055,-0.014495
2649,-0.01874,-0.054924,-0.050727
2650,-0.01874,-0.021435,0.003621
2651,0.019703,-0.021435,0.021737
2652,-0.01874,-0.00469,0.021737
2653,-0.01874,0.012055,0.021737
2654,-0.037962,-0.021435,-0.014495
2655,-0.01874,-0.00469,0.021737
2656,0.000481,0.012055,0.094201
2657,-0.01874,0.0288,0.021737
2658,-0.01874,0.06229,0.021737
2659,-0.01874,0.045545,0.039853
2660,-0.01874,0.0288,0.057969
2661,0.019703,0.0288,0.039853
2662,0.019703,0.06229,0.021737
2663,0.019703,0.0288,0.003621
2664,0.000481,0.0288,-0.014495
2665,0.000481,0.0288,0.003621
2666,0.000481,-0.00469,-0.014495
2667,0.000481,-0.00469,0.039853
2668,0.000481,-0.00469,0.021737
2669,0.000481,0.0288,0.039853
2670,0.019703,0.0288,0.039853
2671,0.038924,-0.00469,0.039853
2672,0.000481,0.079034,0.021737
2673,0.019703,-0.00469,-0.014495
2674,0.038924,0.012055,0.003621
2675,0.038924,-0.00469,-0.014495
2676,0.019703,-0.00469,0.057969
2677,0.000481,0.0288,0.039853
2678,0.019703,-0.00469,0.021737
2679,0.019703,0.012055,0.057969
2680,0.038924,-0.00469,0.003621
2681,0.000481,-0.021435,-0.014495
2682,0.038924,-0.00469,-0.050727
2683,0.019703,-0.00469,0.003621
2684,0.000481,0.012055,0.003621
2685,0.000481,0.012055,0.021737
2686,-0.01874,-0.00469,0.057969
2687,0.019703,-0.021435,0.021737
2688,0.000481,-0.00469,0.039853
2689,-0.01874,0.012055,-0.014495
2690,0.000481,-0.00469,-0.014495
2691,0.000481,-0.00469,0.003621
2692,0.000481,0.0288,-0.014495
2693,0.000481,-0.021435,0.003621
2694,0.019703,0.0288,-0.014495
2695,0.019703,0.012055,0.003621
2696,0.000481,-0.00469,0.003621
2697,-0.01874,-0.021435,0.021737
2698,-0.01874,-0.021435,-0.014495
2699,0.000481,0.045545,-0.068843
2700,-0.01874,-0.00469,0.003621
2701,-0.01874,-0.00469,-0.032611
2702,-0.01874,0.012055,0.003621
2703,-0.01874,-0.00469,0.039853
2704,-0.037962,0.012055,0.021737
2705,-0.037962,0.012055,0.039853
2706,0.000481,0.012055,-0.014495
2707,0.000481,0.012055,0.003621
2708,-0.037962,-0.00469,-0.032611
2709,-0.01874,0.012055,-0.014495
2710,-0.037962,0.0288,-0.050727
2711,-0.037962,0.012055,0.003621
2712,-0.01874,-0.00469,0.039853
2713,-0.037962,0.0288,-0.014495
2714,-0.01874,0.012055,0.021737
2715,-0.01874,-0.00469,0.003621
2716,-0.01874,0.012055,-0.014495
2717,-0.01874,-0.00469,-0.014495
2718,-0.037962,0.012055,0.003621
2719,0.000481,-0.00469,0.003621
2720,-0.01874,-0.00469,0.021737
2721,-0.01874,-0.00469,0.039853
2722,-0.01874,-0.00469,-0.014495
2723,-0.01874,0.012055,0.039853
2724,0.000481,-0.021435,-0.014495
2725,-0.01874,0.012055,-0.032611
2726,0.019703,-0.00469,0.021737
2727,0.000481,0.012055,-0.068843
2728,-0.01874,0.012055,-0.014495
2729,-0.01874,-0.00469,-0.014495
2730,0.019703,-0.00469,-0.014495
2731,-0.01874,-0.00469,-0.032611
2732,0.000481,-0.00469,0.003621
2733,-0.01874,0.012055,-0.032611
2734,-0.01874,-0.00469,-0.032611
2735,0.000481,-0.00469,-0.050727
2736,0.000481,-0.00469,-0.105075
2737,-0.01874,0.012055,-0.032611
2738,0.019703,-0.00469,0.003621
2739,-0.01874,-0.021435,-0.014495
2740,0.000481,-0.021435,-0.014495
2741,-0.01874,-0.00469,-0.014495
2742,0.000481,-0.00469,-0.050727
2743,0.000481,-0.00469,-0.050727
2744,0.019703,-0.00469,-0.014495
2745,0.019703,-0.00469,-0.014495
2746,0.000481,-0.00469,0.021737
2747,0.000481,0.079034,0.021737
2748,0.019703,0.012055,-0.014495
2749,0.019703,-0.00469,0.003621
2750,-0.037962,0.012055,-0.032611
2751,0.000481,-0.021435,-0.032611
2752,0.019703,0.012055,-0.014495
2753,0.000481,-0.021435,-0.014495
2754,0.019703,-0.021435,-0.032611
2755,0.000481,-0.00469,-0.014495
2756,0.000481,-0.00469,0.003621
2757,-0.01874,0.012055,-0.050727
2758,0.000481,0.012055,0.021737
2759,-0.01874,0.0288,-0.014495
2760,-0.037962,0.012055,-0.014495
2761,0.019703,-0.021435,0.003621
2762,0.000481,-0.00469,-0.014495
2763,-0.01874,0.012055,0.003621
2764,-0.01874,0.012055,0.021737
2765,0.000481,-0.00469,0.003621
2766,0.000481,-0.021435,0.003621
2767,-0.01874,0.0288,0.003621
2768,-0.01874,-0.00469,-0.032611
2769,-0.01874,-0.021435,-0.068843
2770,-0.037962,0.012055,-0.014495
2771,-0.01874,0.012055,-0.014495
2772,-0.01874,-0.00469,-0.014495
2773,0.000481,0.012055,0.021737
2774,0.000481,0.045545,-0.014495
2775,-0.01874,-0.021435,-0.014495
2776,0.000481,-0.00469,0.003621
2777,0.000481,0.012055,-0.050727
2778,-0.01874,-0.00469,-0.032611
2779,0.000481,-0.00469,0.003621
2780,-0.057183,0.012055,-0.032611
2781,0.000481,0.0288,0.003621
2782,-0.01874,0.012055,0.003621
2783,0.000481,0.0288,0.003621
2784,0.000481,0.0288,-0.014495
2785,-0.01874,-0.00469,0.021737
2786,-0.01874,-0.00469,-0.032611
2787,0.000481,-0.021435,0.021737
2788,-0.01874,-0.00469,0.021737
2789,0.019703,0.0288,0.003621
2790,0.000481,-0.00469,0.003621
2791,0.000481,0.0288,0.003621
2792,0.000481,-0.00469,0.003621
2793,0.000481,0.0288,0.039853
2794,-0.01874,-0.00469,0.003621
2795,-0.01874,-0.00469,-0.032611
2796,-0.01874,0.012055,-0.014495
2797,0.000481,0.045545,0.021737
2798,-0.01874,0.0288,0.003621
2799,0.019703,-0.00469,0.003621
2800,0.000481,-0.00469,0.039853
2801,-0.01874,-0.021435,0.021737
2802,0.019703,0.012055,0.003621
2803,0.000481,-0.00469,0.003621
2804,0.000481,0.012055,-0.032611
2805,-0.01874,0.012055,-0.014495
2806,0.000481,0.012055,0.021737
2807,0.000481,0.012055,-0.014495
2808,0.019703,0.0288,0.003621
2809,0.000481,0.0288,0.039853
2810,-0.01874,-0.00469,0.003621
2811,-0.01874,-0.00469,0.057969
2812,0.000481,0.012055,0.003621
2813,-0.01874,0.012055,0.003621
2814,-0.01874,0.012055,-0.014495
2815,-0.01874,0.012055,-0.014495
2816,0.019703,0.012055,0.003621
2817,0.019703,0.012055,0.039853
2818,0.000481,0.012055,0.021737
2819,-0.01874,0.012055,-0.014495
2820,0.000481,-0.00469,0.021737
2821,0.000481,-0.00469,0.003621
2822,-0.01874,-0.00469,-0.032611
2823,-0.01874,-0.00469,0.021737
2824,0.019703,0.012055,0.003621
2825,0.000481,0.079034,0.039853
2826,0.000481,0.012055,0.021737
2827,0.019703,0.012055,0.021737
2828,0.019703,0.012055,-0.014495
2829,-0.01874,-0.038179,0.039853
2830,0.019703,-0.00469,0.021737
2831,0.000481,-0.00469,-0.050727
2832,0.019703,0.012055,0.003621
2833,0.000481,-0.00469,0.003621
2834,0.019703,-0.00469,-0.014495
2835,0.000481,-0.00469,0.021737
2836,-0.037962,0.012055,0.003621
2837,-0.01874,0.012055,-0.014495
2838,0.000481,0.012055,0.021737
2839,-0.01874,0.0288,-0.032611
2840,-0.01874,0.012055,-0.014495
2841,0.019703,-0.00469,0.003621
2842,0.000481,-0.00469,-0.050727
2843,-0.01874,0.012055,-0.014495
2844,0.000481,-0.038179,0.039853
2845,0.019703,0.012055,0.021737
2846,0.019703,0.012055,0.039853
2847,0.019703,-0.00469,0.021737
2848,0.019703,-0.00469,-0.050727
2849,0.000481,-0.00469,0.003621
2850,0.000481,-0.021435,0.003621
2851,-0.01874,0.012055,-0.032611
2852,-0.01874,0.012055,0.003621
2853,-0.01874,0.012055,0.039853
2854,-0.037962,-0.021435,-0.014495
2855,0.000481,-0.00469,0.039853
2856,0.000481,-0.00469,-0.014495
2857,-0.01874,0.012055,-0.050727
2858,0.038924,0.045545,-0.032611
2859,0.058146,0.0288,-0.014495
2860,0.077367,-0.00469,-0.014495
2861,0.019703,0.012055,0.021737
2862,-0.01874,0.012055,0.021737
2863,-0.076405,-0.00469,0.003621
2864,-0.095626,0.012055,0.003621
2865,-0.01874,-0.00469,-0.032611
2866,0.019703,-0.021435,-0.014495
2867,-0.01874,0.0288,-0.014495
2868,0.000481,-0.00469,-0.050727
2869,0.000481,0.012055,-0.014495
2870,0.019703,-0.00469,0.003621
2871,0.000481,0.012055,0.039853
2872,0.019703,0.0288,-0.014495
2873,0.000481,-0.00469,0.003621
2874,0.019703,0.012055,0.003621
2875,0.019703,0.0288,-0.032611
2876,0.000481,0.012055,0.003621
2877,0.019703,0.012055,-0.068843
2878,-0.01874,0.012055,-0.014495
2879,0.019703,-0.00469,0.039853
2880,-0.01874,0.012055,0.021737
2881,0.000481,-0.021435,-0.014495
2882,-0.01874,-0.021435,0.039853
2883,0.000481,-0.00469,0.003621
2884,0.000481,0.012055,-0.068843
2885,0.019703,-0.00469,-0.032611
2886,0.000481,-0.00469,-0.032611
2887,0.019703,-0.00469,0.003621
2888,0.000481,-0.021435,0.021737
2889,0.019703,0.012055,-0.014495
2890,0.019703,-0.00469,0.021737
2891,0.019703,0.012055,-0.014495
2892,0.000481,-0.00469,-0.014495
2893,0.000481,0.012055,-0.032611
2894,0.000481,0.0288,-0.014495
2895,-0.01874,-0.00469,-0.032611
2896,-0.01874,0.012055,-0.014495
2897,0.000481,-0.00469,0.003621
2898,-0.01874,0.012055,-0.032611
2899,0.000481,-0.00469,0.021737
2900,-0.01874,0.012055,0.021737
2901,-0.01874,-0.00469,-0.014495
2902,-0.01874,-0.00469,-0.032611
2903,-0.01874,0.012055,-0.032611
2904,0.000481,0.012055,0.003621
2905,0.000481,-0.00469,0.003621
2906,-0.01874,-0.00469,0.021737
2907,0.000481,-0.021435,-0.014495
2908,0.019703,0.0288,0.039853
2909,0.000481,-0.021435,-0.014495
2910,0.000481,-0.00469,-0.014495
2911,0.000481,0.012055,0.003621
2912,0.000481,0.0288,-0.032611
2913,-0.01874,0.012055,0.003621
2914,0.000481,-0.00469,0.021737
2915,0.000481,-0.00469,-0.014495
2916,0.019703,-0.00469,0.003621
2917,-0.01874,0.012055,0.094201
2918,-0.01874,0.0288,-0.014495
2919,0.000481,-0.021435,-0.032611
2920,0.000481,-0.00469,0.021737
2921,0.038924,-0.00469,-0.032611
2922,0.000481,-0.00469,-0.032611
2923,0.019703,-0.00469,0.021737
2924,0.000481,-0.021435,-0.032611
2925,0.000481,0.012055,0.039853
2926,0.000481,-0.00469,-0.014495
2927,0.000481,0.012055,-0.014495
2928,0.000481,0.012055,0.003621
2929,-0.01874,-0.021435,0.003621
2930,-0.037962,-0.00469,0.021737
2931,-0.01874,-0.00469,0.021737
2932,0.000481,0.0288,0.021737
2933,0.000481,0.012055,0.021737
2934,0.000481,-0.00469,0.003621
2935,0.000481,0.012055,0.003621
2936,0.019703,-0.00469,-0.032611
2937,0.019703,0.012055,-0.014495
2938,0.000481,-0.00469,0.003621
2939,-0.01874,0.0288,0.003621
2940,-0.01874,-0.00469,0.039853
2941,-0.01874,-0.038179,0.021737
2942,-0.01874,0.0288,0.003621
2943,0.000481,-0.00469,-0.032611
2944,-0.01874,-0.00469,-0.050727
2945,0.000481,0.0288,-0.014495
2946,0.000481,-0.021435,0.003621
2947,0.000481,-0.021435,-0.014495
2948,-0.01874,0.012055,0.003621
2949,0.000481,0.012055,0.039853
2950,0.000481,0.012055,-0.032611
2951,0.019703,-0.021435,-0.014495
2952,0.019703,0.012055,0.003621
2953,0.019703,-0.00469,0.003621
2954,-0.01874,0.012055,0.021737
2955,0.000481,-0.00469,0.021737
2956,-0.01874,0.0288,-0.014495
2957,0.000481,0.012055,0.003621
2958,0.000481,-0.00469,0.021737
2959,-0.01874,-0.00469,-0.014495
2960,-0.01874,-0.00469,-0.032611
2961,0.000481,0.012055,-0.014495
2962,-0.01874,0.012055,-0.014495
2963,0.000481,0.012055,0.039853
2964,0.000481,0.0288,0.021737
2965,0.000481,0.012055,0.021737
2966,-0.01874,0.012055,0.057969
2967,0.000481,-0.00469,-0.032611
2968,0.000481,-0.00469,-0.032611
2969,0.000481,-0.00469,-0.014495
2970,0.000481,0.012055,-0.050727
2971,-0.01874,0.0288,-0.050727
2972,0.000481,-0.00469,0.003621
2973,0.000481,-0.00469,0.039853
2974,-0.01874,-0.00469,0.021737
2975,0.000481,-0.00469,0.021737
2976,-0.01874,0.0288,0.003621
2977,0.000481,-0.00469,-0.014495
2978,0.000481,-0.021435,-0.014495
2979,0.000481,0.012055,-0.050727
2980,-0.01874,-0.00469,0.003621
2981,0.000481,0.012055,0.021737
2982,0.000481,-0.00469,0.021737
2983,0.019703,0.012055,0.094201
2984,0.000481,0.012055,0.003621
2985,0.000481,-0.00469,0.003621
2986,-0.037962,0.012055,-0.050727
2987,0.000481,-0.00469,-0.014495
2988,0.000481,-0.00469,-0.032611
2989,-0.01874,-0.00469,-0.014495
2990,0.019703,-0.021435,0.021737
2991,-0.01874,-0.00469,0.003621
2992,-0.037962,-0.00469,0.021737
2993,0.000481,-0.021435,0.003621
2994,-0.01874,-0.038179,-0.032611
2995,-0.037962,-0.00469,-0.032611
2996,0.000481,0.012055,-0.050727
2997,-0.01874,0.012055,-0.032611
2998,0.000481,0.0288,0.021737
2999,0.000481,-0.00469,0.003621
3000,0.019703,0.012055,-0.014495
3001,-0.037962,0.0288,0.021737
3002,-0.01874,-0.00469,0.003621
3003,-0.037962,0.012055,-0.050727
3004,0.019703,-0.00469,-0.014495
3005,0.000481,-0.00469,-0.032611
3006,0.019703,0.012055,-0.014495
3007,0.000481,-0.00469,0.021737
3008,-0.01874,0.012055,0.039853
3009,-0.01874,-0.00469,-0.032611
3010,0.000481,-0.00469,0.039853
3011,0.019703,-0.00469,-0.032611
3012,-0.01874,-0.021435,-0.050727
3013,0.000481,-0.021435,-0.032611
3014,-0.01874,0.012055,-0.032611
3015,0.000481,-0.00469,0.039853
3016,-0.01874,0.012055,0.039853
3017,0.000481,-0.021435,-0.014495
3018,0.000481,-0.00469,0.021737
3019,0.000481,-0.00469,0.003621
3020,0.000481,0.012055,0.003621
3021,-0.01874,0.012055,-0.050727
3022,0.000481,-0.021435,-0.014495
3023,-0.01874,0.012055,-0.050727
3024,-0.01874,-0.00469,0.003621
3025,0.000481,0.012055,0.039853
3026,-0.01874,0.012055,0.003621
3027,0.000481,0.012055,0.021737
3028,0.000481,-0.00469,-0.014495
3029,0.000481,-0.00469,0.003621
3030,0.000481,-0.00469,-0.014495
3031,-0.01874,-0.00469,-0.050727
3032,-0.01874,-0.00469,-0.032611
3033,0.000481,-0.00469,0.021737
3034,0.019703,0.012055,0.039853
3035,0.019703,0.0288,0.003621
3036,-0.01874,-0.021435,-0.014495
3037,0.000481,0.012055,-0.014495
3038,0.019703,-0.00469,-0.032611
3039,0.000481,-0.00469,-0.032611
3040,0.000481,-0.021435,-0.032611
3041,0.000481,0.012055,-0.014495
3042,-0.01874,0.012055,0.003621
3043,0.000481,-0.00469,0.021737
3044,0.000481,0.0288,-0.014495
3045,-0.01874,-0.00469,0.039853
3046,0.000481,0.012055,0.021737
3047,-0.01874,-0.00469,-0.050727
3048,0.000481,-0.00469,-0.014495
3049,0.000481,0.012055,-0.032611
3050,-0.01874,-0.00469,0.021737
3051,-0.01874,-0.00469,0.003621
3052,-0.01874,-0.00469,-0.014495
3053,-0.01874,0.012055,0.021737
3054,0.000481,0.012055,0.003621
3055,0.000481,-0.00469,-0.014495
3056,0.000481,0.012055,-0.068843
3057,-0.037962,0.012055,-0.032611
3058,0.000481,0.012055,-0.050727
3059,0.000481,0.012055,-0.032611
3060,0.000481,-0.00469,0.003621
3061,-0.01874,0.012055,0.003621
3062,-0.01874,-0.00469,0.039853
3063,-0.037962,0.012055,-0.014495
3064,0.000481,-0.021435,-0.014495
3065,-0.01874,0.012055,-0.014495
3066,-0.01874,-0.00469,0.003621
3067,0.000481,-0.00469,-0.014495
3068,0.000481,0.012055,0.021737
3069,0.000481,0.012055,0.003621
3070,0.000481,0.012055,0.003621
3071,-0.01874,-0.00469,0.039853
3072,0.000481,0.0288,0.003621
3073,-0.01874,-0.00469,-0.050727
3074,-0.01874,0.012055,-0.014495
3075,-0.01874,0.045545,-0.032611
3076,0.000481,-0.00469,-0.014495
3077,0.000481,-0.00469,0.021737
3078,0.000481,-0.00469,0.039853
3079,0.000481,0.012055,-0.014495
3080,0.019703,0.0288,0.039853
3081,0.000481,0.0288,-0.014495
3082,0.019703,-0.00469,-0.032611
3083,0.000481,-0.038179,-0.032611
3084,-0.01874,-0.00469,0.003621
3085,0.000481,-0.00469,0.003621
3086,0.019703,-0.00469,0.021737
3087,0.000481,-0.00469,0.021737
3088,0.019703,0.012055,0.021737
3089,0.038924,0.012055,0.003621
3090,0.000481,0.012055,-0.014495
3091,0.019703,-0.00469,-0.014495
3092,0.000481,-0.00469,0.039853
3093,0.000481,0.012055,-0.050727
3094,0.000481,-0.00469,0.003621
3095,0.000481,0.012055,0.021737
3096,0.000481,-0.00469,-0.032611
3097,-0.01874,0.0288,0.021737
3098,0.000481,0.012055,0.003621
3099,0.000481,0.012055,0.003621
3100,-0.01874,-0.021435,-0.050727
3101,0.000481,-0.00469,-0.014495
3102,-0.01874,0.0288,-0.050727
3103,-0.01874,0.012055,0.003621
3104,0.019703,0.012055,0.039853
3105,0.000481,-0.00469,0.003621
3106,-0.01874,0.012055,0.021737
3107,-0.037962,-0.00469,-0.014495
3108,0.000481,-0.00469,-0.032611
3109,0.000481,0.012055,-0.014495
3110,-0.01874,-0.00469,-0.014495
3111,0.000481,0.012055,-0.014495
3112,0.019703,0.012055,0.021737
3113,-0.01874,-0.021435,0.039853
3114,0.000481,-0.00469,0.003621
3115,0.019703,-0.00469,0.039853
3116,0.077367,0.012055,0.003621
3117,0.077367,0.012055,-0.014495
3118,0.000481,-0.00469,-0.014495
3119,-0.057183,-0.00469,-0.014495
3120,-0.095626,0.012055,-0.032611
3121,-0.114848,-0.00469,0.039853
3122,-0.037962,0.012055,0.039853
3123,0.000481,-0.00469,0.021737
3124,0.019703,0.012055,0.021737
3125,0.000481,0.012055,0.003621
3126,0.000481,-0.00469,-0.068843
3127,-0.01874,0.012055,-0.014495
3128,-0.037962,0.012055,-0.014495
3129,0.000481,0.012055,0.021737
3130,0.038924,-0.00469,0.021737
3131,0.000481,0.012055,-0.014495
3132,0.019703,-0.00469,-0.014495
3133,0.019703,0.0288,0.003621
3134,-0.01874,-0.00469,-0.014495
3135,-0.01874,-0.00469,0.003621
3136,-0.01874,0.012055,0.021737
3137,0.000481,-0.00469,-0.014495
3138,0.000481,0.012055,0.003621
3139,-0.01874,-0.00469,0.039853
3140,-0.01874,-0.00469,0.003621
3141,-0.01874,-0.00469,0.021737
3142,-0.01874,-0.00469,-0.032611
3143,0.000481,-0.021435,0.003621
3144,-0.01874,-0.021435,-0.014495
3145,0.000481,0.012055,-0.014495
3146,0.000481,-0.00469,0.021737
3147,-0.01874,-0.00469,0.021737
3148,-0.037962,-0.00469,0.057969
3149,-0.01874,-0.00469,0.003621
3150,-0.01874,0.012055,0.021737
3151,-0.057183,-0.00469,-0.032611
3152,-0.01874,-0.00469,-0.050727
3153,-0.01874,0.012055,0.003621
3154,-0.01874,-0.00469,-0.014495
3155,0.019703,-0.00469,0.003621
3156,0.000481,-0.00469,0.039853
3157,0.000481,-0.00469,-0.014495
3158,0.019703,0.012055,-0.032611
3159,0.000481,0.012055,0.003621
3160,0.000481,-0.00469,0.021737
3161,0.000481,-0.00469,-0.032611
3162,0.000481,-0.021435,-0.014495
3163,0.000481,-0.021435,-0.032611
3164,0.000481,-0.00469,0.021737
3165,0.000481,0.012055,0.039853
3166,0.019703,-0.00469,0.003621
3167,0.000481,0.012055,0.039853
3168,-0.01874,-0.00469,-0.014495
3169,0.000481,-0.00469,-0.032611
3170,-0.01874,-0.00469,-0.032611
3171,-0.01874,-0.00469,0.021737
3172,0.000481,0.012055,-0.014495
3173,0.000481,0.012055,0.003621
3174,0.019703,-0.00469,0.021737
3175,0.000481,-0.00469,-0.014495
3176,-0.01874,0.0288,0.003621
3177,0.000481,0.012055,-0.050727
3178,0.000481,-0.00469,-0.014495
3179,-0.01874,0.012055,0.003621
3180,-0.01874,0.012055,0.039853
3181,-0.037962,-0.00469,-0.014495
3182,-0.01874,0.012055,0.003621
3183,-0.01874,0.0288,0.021737
3184,0.000481,-0.021435,-0.014495
3185,0.000481,0.012055,0.003621
3186,0.019703,-0.00469,-0.014495
3187,-0.01874,-0.00469,-0.032611
3188,0.000481,-0.021435,-0.050727
3189,-0.01874,-0.00469,-0.014495
3190,0.000481,-0.00469,0.003621
3191,0.000481,-0.021435,0.021737
3192,0.000481,-0.00469,0.003621
3193,-0.01874,-0.021435,-0.014495
3194,0.000481,0.012055,0.003621
3195,0.000481,0.012055,0.003621
3196,0.000481,0.012055,-0.050727
3197,-0.01874,0.012055,0.003621
3198,0.000481,0.045545,-0.014495
3199,-0.01874,-0.00469,-0.014495
3200,0.000481,0.012055,0.039853
3201,-0.01874,0.012055,0.021737
3202,0.000481,0.012055,-0.014495
3203,0.000481,0.0288,0.003621
3204,0.019703,-0.021435,0.003621
3205,0.000481,-0.00469,-0.050727
3206,-0.01874,0.012055,0.003621
3207,-0.01874,0.012055,-0.032611
3208,0.000481,-0.038179,0.003621
3209,-0.057183,-0.00469,-0.032611
3210,-0.01874,-0.00469,0.003621
3211,0.019703,-0.021435,0.021737
3212,0.000481,-0.00469,0.021737
3213,-0.01874,-0.021435,0.021737
3214,0.000481,-0.00469,-0.014495
3215,0.000481,0.012055,0.039853
3216,0.019703,0.012055,0.003621
3217,0.000481,-0.00469,0.021737
3218,-0.01874,0.012055,0.021737
3219,0.038924,0.0288,0.003621
3220,0.038924,-0.00469,0.021737
3221,0.077367,0.012055,-0.032611
3222,0.058146,-0.021435,-0.032611
3223,-0.01874,0.045545,0.021737
3224,-0.057183,0.012055,0.003621
3225,-0.114848,0.012055,-0.032611
3226,-0.037962,-0.021435,0.021737
3227,0.019703,-0.021435,-0.032611
3228,0.019703,-0.021435,-0.014495
3229,0.000481,0.045545,0.021737
3230,0.000481,0.012055,-0.014495
3231,0.000481,-0.00469,-0.032611
3232,0.038924,-0.021435,0.021737
3233,0.019703,-0.00469,-0.032611
3234,0.000481,0.012055,-0.014495
3235,0.019703,0.012055,0.039853
3236,-0.01874,0.012055,-0.014495
3237,0.019703,0.0288,-0.050727
3238,-0.01874,-0.038179,-0.014495
3239,-0.057183,-0.038179,-0.050727
3240,-0.01874,-0.00469,-0.014495
3241,0.000481,0.012055,0.039853
3242,0.000481,-0.021435,0.021737
3243,-0.01874,0.0288,0.039853
3244,0.019703,-0.00469,0.039853
3245,0.000481,-0.038179,-0.014495
3246,0.000481,-0.021435,-0.032611
3247,-0.01874,0.012055,-0.014495
3248,0.019703,-0.00469,-0.032611
3249,0.000481,0.012055,-0.014495
3250,0.019703,0.012055,0.003621
3251,0.000481,0.0288,0.021737
3252,0.000481,-0.00469,0.039853
3253,-0.037962,-0.054924,-0.014495
3254,-0.037962,0.012055,-0.032611
3255,0.019703,-0.00469,-0.014495
3256,-0.01874,0.012055,-0.032611
3257,-0.01874,0.012055,-0.050727
3258,-0.01874,0.012055,0.003621
3259,-0.01874,0.012055,0.021737
3260,0.019703,-0.038179,0.003621
3261,-0.01874,-0.00469,0.039853
3262,0.000481,-0.00469,-0.050727
3263,0.019703,-0.00469,-0.032611
3264,-0.01874,0.0288,-0.014495
3265,0.019703,-0.00469,-0.014495
3266,0.019703,0.0288,-0.014495
3267,0.019703,-0.00469,0.021737
3268,0.000481,0.012055,0.039853
3269,0.000481,0.012055,0.094201
3270,0.000481,-0.00469,0.039853
3271,-0.01874,0.012055,-0.032611
3272,-0.01874,-0.00469,-0.014495
3273,-0.01874,0.045545,-0.014495
3274,-0.01874,-0.00469,-0.032611
3275,-0.01874,-0.00469,0.003621
3276,-0.01874,-0.00469,-0.014495
3277,0.000481,-0.00469,0.021737
3278,0.019703,0.012055,0.003621
3279,0.019703,-0.00469,0.021737
3280,0.000481,-0.021435,0.003621
3281,0.019703,-0.00469,-0.032611
3282,0.000481,-0.00469,-0.014495
3283,0.000481,0.0288,-0.050727
3284,-0.01874,-0.00469,0.021737
3285,0.038924,0.012055,0.039853
3286,0.000481,-0.00469,0.003621
3287,-0.01874,0.012055,0.021737
3288,0.000481,-0.00469,0.021737
3289,0.019703,-0.00469,-0.032611
3290,0.000481,-0.00469,-0.014495
3291,0.019703,0.0288,-0.050727
3292,0.000481,0.012055,-0.014495
3293,-0.057183,0.012055,0.003621
3294,0.000481,-0.00469,0.021737
3295,0.000481,0.012055,0.021737
3296,-0.01874,0.012055,0.021737
3297,-0.037962,0.012055,0.003621
3298,-0.01874,0.012055,-0.014495
3299,-0.01874,-0.038179,0.003621
3300,-0.01874,-0.00469,-0.014495
3301,-0.01874,-0.00469,0.003621
3302,0.000481,0.012055,0.057969
3303,0.000481,-0.00469,0.021737
3304,-0.01874,-0.00469,0.021737
3305,-0.037962,0.0288,0.021737
3306,0.019703,0.012055,-0.014495
3307,0.000481,0.0288,-0.032611
3308,0.000481,0.012055,0.003621
3309,-0.01874,-0.00469,-0.032611
3310,-0.037962,-0.00469,0.021737
3311,-0.01874,0.012055,0.039853
3312,-0.01874,0.045545,0.021737
3313,-0.01874,-0.00469,-0.014495
3314,0.000481,0.012055,0.021737
3315,-0.01874,-0.021435,0.003621
3316,0.000481,-0.00469,-0.032611
3317,0.000481,0.012055,-0.032611
3318,0.019703,0.012055,-0.032611
3319,-0.01874,-0.021435,0.021737
3320,0.019703,0.0288,0.021737
3321,0.000481,-0.00469,-0.014495
3322,0.000481,-0.00469,0.003621
3323,0.019703,-0.00469,0.021737
3324,0.000481,-0.00469,0.003621
3325,0.000481,0.012055,-0.032611
3326,0.038924,-0.038179,-0.032611
3327,0.058146,-0.00469,-0.014495
3328,0.096589,0.012055,0.021737
3329,0.077367,0.012055,0.039853
3330,-0.037962,-0.00469,0.021737
3331,-0.057183,0.0288,0.021737
3332,-0.134069,-0.021435,-0.014495
3333,-0.134069,-0.021435,-0.032611
3334,-0.01874,-0.038179,-0.014495
3335,-0.037962,-0.00469,0.003621
3336,-0.037962,-0.00469,0.003621
3337,0.000481,0.012055,0.039853
3338,0.038924,-0.00469,0.039853
3339,0.038924,0.012055,0.003621
3340,0.038924,0.012055,-0.014495
3341,0.038924,-0.00469,0.003621
3342,0.019703,0.045545,-0.050727
3343,0.000481,0.012055,0.003621
3344,0.000481,0.012055,-0.032611
3345,-0.01874,0.012055,0.039853
3346,0.000481,0.012055,0.021737
3347,0.000481,0.012055,0.003621
3348,0.000481,-0.00469,0.021737
3349,0.019703,0.0288,0.003621
3350,0.038924,-0.00469,-0.014495
3351,0.000481,-0.00469,-0.050727
3352,-0.01874,-0.00469,-0.032611
3353,0.000481,-0.00469,0.021737
3354,-0.01874,0.012055,0.039853
3355,0.000481,0.012055,0.003621
3356,0.000481,-0.00469,0.003621
3357,0.019703,-0.021435,0.076085
3358,0.019703,-0.021435,0.003621
3359,0.000481,0.012055,-0.032611
3360,0.019703,-0.00469,0.003621
3361,0.019703,-0.00469,0.003621
3362,0.000481,-0.00469,0.003621
3363,-0.037962,-0.00469,0.021737
3364,0.000481,0.0288,0.039853
3365,0.000481,0.012055,-0.014495
3366,0.000481,0.012055,0.039853
3367,0.000481,0.012055,0.003621
3368,0.000481,0.012055,-0.086959
3369,0.000481,0.012055,0.003621
3370,0.000481,-0.00469,-0.032611
3371,0.000481,0.012055,-0.014495
3372,-0.01874,-0.00469,0.039853
3373,0.000481,-0.00469,-0.014495
3374,-0.01874,-0.00469,0.021737
3375,0.000481,0.012055,-0.014495
3376,-0.037962,0.012055,-0.050727
3377,-0.01874,-0.00469,-0.014495
3378,0.000481,-0.021435,0.003621
3379,0.000481,-0.021435,-0.050727
3380,-0.037962,-0.00469,0.021737
3381,-0.01874,0.012055,0.021737
3382,0.019703,-0.00469,0.021737
3383,0.019703,0.012055,0.039853
3384,0.000481,-0.021435,0.039853
3385,0.000481,-0.00469,0.003621
3386,0.000481,0.012055,0.003621
3387,-0.01874,-0.00469,-0.032611
3388,0.019703,-0.021435,-0.014495
3389,-0.01874,-0.00469,0.021737
3390,0.019703,-0.00469,0.039853
3391,-0.01874,-0.00469,0.003621
3392,0.000481,-0.00469,0.039853
3393,0.000481,0.012055,0.003621
3394,0.000481,0.012055,-0.014495
3395,0.019703,0.012055,-0.014495
3396,-0.01874,-0.00469,-0.014495
3397,0.000481,0.012055,0.021737
3398,0.019703,-0.00469,0.021737
3399,0.019703,-0.00469,0.021737
3400,0.019703,0.012055,-0.014495
3401,-0.01874,-0.00469,0.003621
3402,0.000481,0.012055,-0.014495
3403,-0.01874,0.0288,-0.014495
3404,0.000481,0.012055,-0.014495
3405,0.019703,-0.00469,-0.050727
3406,0.000481,-0.00469,0.003621
3407,-0.01874,0.0288,0.039853
3408,-0.01874,0.012055,0.003621
3409,0.000481,-0.00469,0.021737
3410,0.000481,-0.00469,0.003621
3411,0.000481,0.012055,-0.014495
3412,-0.01874,-0.021435,-0.014495
3413,-0.01874,-0.021435,0.003621
3414,0.000481,-0.00469,-0.032611
3415,0.000481,-0.00469,0.003621
3416,0.000481,-0.00469,0.021737
3417,0.000481,-0.00469,0.003621
3418,0.000481,-0.021435,0.021737
3419,-0.037962,-0.021435,0.021737
3420,-0.037962,-0.00469,-0.014495
3421,0.000481,-0.00469,0.003621
3422,-0.01874,0.012055,0.003621
3423,0.000481,-0.00469,0.094201
3424,0.000481,0.012055,-0.014495
3425,0.000481,0.012055,0.021737
3426,0.000481,-0.00469,-0.032611
3427,0.000481,0.012055,0.021737
3428,0.000481,-0.021435,-0.014495
3429,0.000481,-0.00469,0.003621
3430,-0.01874,-0.00469,-0.014495
3431,0.000481,0.012055,0.003621
3432,0.000481,-0.00469,-0.014495
3433,-0.01874,-0.00469,0.003621
3434,-0.01874,0.045545,0.039853
3435,-0.01874,0.012055,-0.014495
3436,0.000481,-0.00469,0.003621
3437,-0.037962,0.012055,-0.050727
3438,-0.037962,-0.00469,0.003621
3439,-0.01874,-0.00469,0.021737
3440,-0.037962,-0.021435,-0.050727
3441,0.000481,-0.021435,0.003621
3442,-0.01874,-0.00469,0.021737
3443,0.000481,-0.00469,0.003621
3444,0.019703,0.012055,-0.032611
3445,0.058146,-0.021435,0.021737
3446,0.11581,0.012055,-0.032611
3447,0.096589,-0.00469,-0.032611
3448,0.000481,0.045545,0.021737
3449,-0.037962,0.012055,-0.014495
3450,-0.076405,-0.00469,-0.014495
3451,-0.076405,0.079034,0.021737
3452,0.000481,-0.00469,-0.014495
3453,-0.01874,-0.00469,0.021737
3454,-0.01874,-0.00469,0.003621
3455,-0.01874,0.012055,-0.032611
3456,0.000481,0.012055,0.003621
3457,0.000481,0.012055,0.021737
3458,0.019703,0.012055,0.003621
3459,0.000481,-0.021435,0.003621
3460,-0.01874,-0.00469,0.039853
3461,0.000481,-0.00469,0.021737
3462,-0.01874,0.012055,0.057969
3463,0.000481,-0.00469,-0.014495
3464,0.000481,0.012055,-0.032611
3465,0.000481,-0.00469,0.021737
3466,-0.01874,-0.00469,0.021737
3467,0.000481,-0.021435,0.003621
3468,-0.01874,-0.00469,0.021737
3469,0.000481,0.012055,0.021737
3470,-0.01874,-0.00469,-0.050727
3471,-0.01874,-0.00469,0.021737
3472,0.000481,-0.00469,-0.032611
3473,-0.01874,-0.00469,-0.032611
3474,0.000481,-0.00469,0.003621
3475,-0.01874,-0.021435,-0.014495
3476,0.019703,-0.00469,0.003621
3477,-0.01874,-0.021435,0.039853
3478,-0.01874,-0.00469,0.003621
3479,0.000481,-0.00469,-0.014495
3480,-0.01874,0.012055,-0.014495
3481,-0.01874,0.012055,-0.050727
3482,-0.01874,-0.00469,-0.050727
3483,-0.037962,-0.021435,-0.014495
3484,0.000481,0.012055,-0.014495
3485,0.038924,0.045545,0.039853
3486,0.000481,-0.00469,0.021737
3487,-0.01874,-0.021435,0.003621
3488,0.000481,-0.00469,-0.014495
3489,0.019703,-0.00469,-0.014495
3490,0.000481,-0.00469,-0.050727
3491,0.000481,0.012055,0.003621
3492,-0.01874,-0.00469,0.021737
3493,-0.01874,-0.00469,0.003621
3494,0.000481,0.012055,0.021737
3495,0.000481,0.012055,0.003621
3496,0.000481,-0.00469,0.003621
3497,0.019703,0.0288,0.021737
3498,0.000481,-0.00469,0.021737
3499,0.019703,-0.00469,-0.032611
3500,0.000481,-0.00469,-0.014495
3501,-0.01874,0.012055,-0.014495
3502,-0.01874,0.012055,0.003621
3503,-0.037962,0.012055,0.039853
3504,0.000481,0.012055,0.003621
3505,0.019703,-0.00469,-0.032611
3506,0.019703,0.012055,0.003621
3507,0.000481,0.012055,-0.014495
3508,-0.01874,-0.00469,0.003621
3509,-0.01874,0.012055,-0.014495
3510,0.000481,-0.00469,0.003621
3511,-0.01874,0.012055,-0.032611
3512,-0.01874,0.012055,0.021737
3513,0.000481,-0.00469,0.021737
3514,-0.01874,-0.00469,0.003621
3515,0.019703,0.0288,-0.014495
3516,0.000481,-0.00469,-0.032611
3517,0.000481,0.012055,-0.050727
3518,0.019703,0.0288,-0.032611
3519,0.019703,0.012055,0.003621
3520,-0.01874,0.012055,0.021737
3521,0.019703,-0.00469,0.021737
3522,0.000481,0.012055,-0.032611
3523,0.000481,0.012055,-0.032611
3524,0.019703,0.045545,-0.014495
3525,-0.037962,-0.021435,-0.032611
3526,-0.01874,-0.00469,0.003621
3527,-0.01874,-0.021435,0.039853
3528,0.000481,0.012055,0.021737
3529,0.000481,0.012055,0.021737
3530,0.000481,0.012055,0.021737
3531,0.019703,0.012055,0.003621
3532,-0.01874,0.0288,-0.014495
3533,0.000481,-0.00469,0.021737
3534,0.000481,-0.00469,-0.014495
3535,0.019703,0.012055,-0.014495
3536,0.019703,-0.021435,0.021737
3537,0.000481,0.012055,0.003621
3538,-0.037962,-0.021435,0.021737
3539,0.000481,-0.00469,-0.014495
3540,0.000481,0.012055,-0.014495
3541,0.019703,0.012055,0.021737
3542,0.019703,0.012055,-0.050727
3543,0.000481,0.012055,-0.014495
3544,0.000481,0.0288,0.039853
3545,0.019703,0.012055,0.039853
3546,0.000481,0.012055,-0.014495
3547,0.000481,-0.00469,0.039853
3548,0.019703,-0.00469,-0.014495
3549,0.019703,-0.00469,-0.014495
3550,-0.01874,0.012055,0.021737
3551,0.000481,-0.00469,-0.050727
3552,0.000481,0.012055,-0.032611
3553,0.000481,-0.021435,0.003621
3554,0.000481,-0.00469,0.039853
3555,0.000481,-0.00469,0.003621
3556,-0.01874,0.012055,0.021737
3557,-0.01874,-0.021435,0.021737
3558,-0.01874,-0.00469,-0.032611
3559,-0.01874,-0.00469,-0.032611
3560,-0.01874,0.012055,-0.032611
3561,0.019703,0.012055,0.003621
3562,0.019703,-0.00469,0.039853
3563,-0.01874,0.012055,0.021737
3564,0.038924,0.012055,0.021737
3565,0.000481,-0.00469,-0.014495
3566,0.000481,0.012055,-0.032611
3567,0.019703,0.012055,0.021737
3568,0.019703,-0.00469,-0.050727
3569,0.019703,0.012055,-0.068843
3570,0.11581,-0.00469,0.003621
3571,0.077367,0.0288,0.021737
3572,0.019703,0.012055,-0.014495
3573,-0.01874,-0.00469,0.039853
3574,-0.057183,-0.00469,-0.014495
3575,-0.076405,0.012055,-0.014495
3576,-0.037962,-0.00469,0.003621
3577,-0.037962,-0.00469,-0.014495
3578,-0.037962,-0.00469,0.003621
3579,-0.01874,0.012055,0.003621
3580,-0.01874,-0.00469,0.021737
3581,0.000481,0.012055,-0.014495
3582,0.019703,-0.021435,0.003621
3583,0.000481,0.0288,0.003621
3584,0.019703,-0.00469,0.003621
3585,0.000481,-0.00469,0.021737
3586,0.000481,-0.00469,-0.050727
3587,0.000481,0.012055,-0.014495
3588,0.000481,0.0288,0.003621
3589,0.019703,-0.00469,0.021737
3590,0.000481,-0.00469,0.021737
3591,0.019703,-0.00469,-0.014495
3592,0.000481,-0.00469,0.003621
3593,0.000481,-0.00469,-0.032611
3594,0.000481,-0.00469,-0.014495
3595,0.019703,0.012055,-0.014495
3596,0.000481,0.012055,0.003621
3597,0.000481,0.012055,0.003621
3598,0.000481,-0.00469,-0.014495
3599,0.000481,-0.021435,0.021737
3600,0.000481,0.012055,-0.014495
3601,0.019703,-0.00469,-0.032611
3602,-0.01874,-0.00469,-0.014495
3603,0.000481,-0.021435,-0.014495
3604,0.000481,-0.00469,0.003621
3605,-0.01874,-0.00469,0.021737
3606,0.000481,-0.00469,0.003621
3607,0.000481,0.012055,-0.014495
3608,0.019703,-0.00469,0.021737
3609,0.019703,0.012055,0.021737
3610,0.000481,-0.00469,-0.032611
3611,-0.01874,-0.00469,0.003621
3612,-0.01874,-0.00469,-0.014495
3613,0.019703,-0.00469,-0.014495
3614,0.019703,0.012055,0.039853
3615,0.000481,-0.00469,0.003621
3616,-0.037962,-0.00469,0.003621
3617,-0.01874,0.0288,0.003621
3618,0.019703,-0.00469,0.003621
3619,0.000481,-0.00469,-0.032611
3620,0.000481,0.012055,0.021737
3621,-0.037962,0.0288,-0.032611
3622,-0.01874,-0.00469,0.003621
3623,-0.01874,-0.00469,0.003621
3624,0.000481,0.012055,-0.014495
3625,0.000481,-0.021435,0.003621
3626,0.019703,0.012055,0.003621
3627,-0.01874,0.012055,-0.014495
3628,0.000481,-0.00469,-0.014495
3629,-0.01874,0.012055,-0.032611
3630,-0.01874,-0.021435,0.003621
3631,-0.01874,0.045545,0.076085
3632,0.000481,-0.00469,0.039853
3633,0.000481,-0.00469,0.003621
3634,0.000481,-0.00469,0.039853
3635,0.019703,-0.021435,0.003621
3636,0.000481,-0.00469,-0.032611
3637,0.019703,0.012055,-0.032611
3638,-0.01874,-0.00469,-0.032611
3639,-0.01874,-0.00469,0.003621
3640,-0.037962,-0.00469,0.057969
3641,-0.01874,0.012055,0.039853
3642,-0.01874,-0.00469,0.003621
3643,0.000481,-0.00469,0.003621
3644,0.000481,0.012055,-0.014495
3645,0.000481,-0.021435,-0.014495
3646,0.019703,-0.00469,-0.014495
3647,0.000481,0.012055,-0.032611
3648,-0.01874,-0.00469,0.003621
3649,0.019703,-0.021435,0.021737
3650,0.019703,-0.00469,-0.014495
3651,-0.01874,0.0288,0.039853
3652,-0.01874,-0.00469,0.021737
3653,0.000481,0.0288,-0.032611
3654,-0.01874,0.012055,-0.032611
3655,0.000481,-0.00469,0.003621
3656,0.019703,0.012055,-0.014495
3657,-0.01874,-0.00469,0.003621
3658,-0.01874,-0.021435,0.057969
3659,-0.01874,0.0288,-0.014495
3660,0.000481,-0.021435,0.039853
3661,0.000481,0.012055,-0.014495
3662,0.000481,-0.00469,-0.032611
3663,0.000481,0.012055,-0.050727
3664,0.000481,-0.00469,0.021737
3665,-0.037962,-0.021435,-0.032611
3666,-0.01874,-0.00469,0.003621
3667,0.000481,0.0288,-0.014495
3668,0.019703,0.045545,0.003621
3669,0.000481,-0.021435,0.021737
3670,-0.01874,-0.00469,0.021737
3671,-0.01874,0.012055,0.021737
3672,0.019703,0.012055,0.039853
3673,0.000481,0.045545,0.003621
3674,-0.01874,-0.00469,0.003621
3675,0.000481,0.012055,0.003621
3676,-0.01874,-0.021435,0.003621
3677,-0.01874,-0.00469,-0.014495
3678,-0.01874,-0.00469,0.003621
3679,-0.037962,-0.00469,-0.014495
3680,0.000481,-0.00469,-0.032611
3681,-0.01874,-0.00469,0.003621
3682,0.000481,-0.00469,-0.014495
3683,-0.037962,-0.021435,-0.032611
3684,0.000481,-0.00469,0.003621
3685,0.000481,-0.00469,0.021737
3686,0.019703,0.012055,-0.014495
3687,0.000481,-0.00469,0.003621
3688,0.000481,-0.00469,-0.032611
3689,-0.01874,-0.038179,-0.032611
3690,0.019703,0.012055,-0.014495
3691,0.000481,-0.021435,-0.014495
3692,0.000481,0.012055,0.021737
3693,0.000481,0.012055,0.003621
3694,-0.01874,0.012055,-0.014495
3695,0.000481,0.0288,0.021737
3696,-0.01874,-0.021435,0.021737
3697,0.038924,0.0288,-0.032611
3698,0.038924,0.012055,-0.014495
3699,-0.01874,-0.00469,0.021737
