# Requested Sampling Rate (Hz):,1000
# Actual Sampling Rate (Hz):,998.616
# Requested Duration (s):,5.0
# Actual Duration (s):,5.045
# REST Calibration:,831.9749657534268,832.2800684931498,831.8001369863033
# MAX Calibration:,884.0000,892.0000,887.0000
# Normalization: MVC-based  (x_norm = (x - REST) / (MAX - REST))
sample_idx,EMG1,EMG2,EMG3
0,0.000481,-0.00469,-0.014495
1,0.019703,-0.00469,-0.050727
2,-0.01874,-0.021435,-0.068843
3,0.000481,-0.00469,-0.050727
4,-0.01874,0.012055,-0.014495
5,0.019703,0.012055,0.003621
6,0.000481,-0.021435,0.021737
7,0.000481,-0.00469,0.039853
8,-0.01874,-0.00469,0.021737
9,0.000481,-0.00469,-0.032611
10,0.000481,0.012055,0.003621
11,0.000481,-0.00469,-0.032611
12,0.019703,0.0288,-0.014495
13,-0.01874,-0.00469,0.039853
14,-0.01874,-0.00469,0.057969
15,-0.01874,-0.00469,0.057969
16,-0.01874,-0.054924,0.057969
17,-0.01874,-0.054924,0.003621
18,-0.037962,-0.054924,-0.050727
19,0.000481,-0.021435,-0.014495
20,-0.037962,-0.038179,-0.068843
21,0.000481,-0.00469,-0.014495
22,0.000481,0.012055,0.021737
23,0.000481,0.012055,-0.032611
24,0.000481,0.0288,0.003621
25,0.000481,0.012055,0.003621
26,0.000481,0.012055,0.003621
27,0.000481,0.012055,-0.014495
28,-0.037962,-0.00469,0.003621
29,0.000481,0.0288,0.003621
30,0.000481,0.012055,0.021737
31,0.000481,-0.021435,0.057969
32,-0.01874,-0.021435,0.021737
33,-0.01874,-0.021435,0.021737
34,-0.01874,-0.021435,0.003621
35,0.000481,-0.00469,-0.050727
36,0.000481,-0.00469,-0.014495
37,0.000481,0.0288,-0.014495
38,-0.01874,0.0288,-0.014495
39,0.000481,0.079034,-0.014495
40,0.000481,0.0288,0.021737
41,0.000481,-0.038179,-0.014495
42,0.000481,-0.00469,0.021737
43,0.000481,-0.00469,-0.032611
44,-0.01874,0.012055,-0.050727
45,-0.01874,-0.00469,-0.050727
46,0.019703,0.0288,-0.050727
47,0.038924,0.0288,-0.014495
48,0.019703,0.012055,0.039853
49,0.000481,-0.00469,0.094201
50,0.000481,0.012055,0.076085
51,0.019703,0.0288,0.057969
52,0.000481,-0.00469,0.057969
53,0.019703,-0.021435,0.003621
54,0.000481,-0.021435,-0.032611
55,0.000481,-0.021435,-0.014495
56,-0.01874,-0.021435,-0.050727
57,-0.01874,0.012055,0.003621
58,0.096589,-0.00469,0.003621
59,0.000481,0.012055,0.003621
60,0.000481,-0.00469,-0.032611
61,-0.01874,0.012055,0.003621
62,0.000481,0.012055,-0.014495
63,-0.037962,0.0288,-0.050727
64,-0.037962,-0.00469,0.003621
65,0.000481,-0.00469,-0.014495
66,0.000481,-0.00469,0.003621
67,-0.01874,0.0288,0.021737
68,0.000481,-0.021435,0.003621
69,0.000481,0.012055,0.003621
70,0.000481,-0.038179,-0.050727
71,0.000481,-0.038179,-0.068843
72,-0.01874,-0.054924,-0.014495
73,-0.01874,-0.021435,0.003621
74,-0.037962,-0.021435,0.003621
75,-0.01874,-0.00469,0.021737
76,-0.037962,-0.021435,0.039853
77,0.000481,-0.021435,0.021737
78,0.000481,-0.021435,0.021737
79,-0.01874,-0.038179,0.021737
80,0.000481,0.012055,-0.032611
81,0.000481,-0.00469,0.003621
82,0.000481,0.045545,-0.014495
83,0.000481,0.06229,0.003621
84,-0.01874,0.045545,0.021737
85,-0.01874,0.045545,-0.014495
86,0.019703,0.012055,-0.014495
87,0.000481,0.0288,0.003621
88,-0.01874,0.012055,0.039853
89,-0.037962,-0.00469,0.003621
90,-0.037962,0.0288,0.003621
91,0.000481,0.0288,-0.014495
92,0.000481,0.012055,0.021737
93,0.000481,-0.00469,0.039853
94,0.000481,-0.021435,-0.032611
95,0.000481,-0.054924,-0.050727
96,-0.01874,-0.071669,-0.050727
97,-0.01874,-0.054924,-0.050727
98,0.000481,-0.054924,-0.032611
99,0.019703,0.012055,-0.032611
100,0.000481,0.012055,-0.014495
101,-0.01874,0.012055,0.003621
102,-0.01874,0.0288,0.003621
103,0.000481,0.045545,-0.014495
104,-0.01874,0.079034,0.003621
105,0.000481,0.06229,0.021737
106,0.000481,0.0288,0.003621
107,0.000481,-0.00469,0.003621
108,0.000481,0.012055,0.039853
109,-0.01874,0.012055,0.003621
110,0.000481,-0.00469,0.039853
111,0.019703,0.0288,0.057969
112,0.000481,-0.00469,-0.014495
113,0.019703,0.0288,0.021737
114,-0.01874,-0.00469,-0.014495
115,0.000481,-0.021435,-0.050727
116,-0.01874,-0.038179,-0.014495
117,-0.01874,-0.00469,0.021737
118,0.000481,0.0288,-0.014495
119,-0.01874,0.012055,0.021737
120,-0.01874,-0.00469,0.021737
121,0.019703,-0.038179,0.003621
122,0.000481,-0.054924,0.021737
123,-0.01874,-0.021435,-0.032611
124,-0.01874,-0.054924,-0.050727
125,-0.037962,-0.054924,0.021737
126,-0.01874,-0.021435,-0.032611
127,-0.01874,-0.021435,0.003621
128,0.000481,0.0288,0.021737
129,-0.037962,0.095779,-0.014495
130,0.000481,0.045545,-0.032611
131,-0.01874,0.0288,-0.014495
132,0.000481,0.012055,-0.032611
133,0.019703,-0.00469,-0.050727
134,-0.01874,-0.00469,0.003621
135,0.000481,0.0288,-0.050727
136,0.000481,0.012055,0.021737
137,0.019703,-0.00469,0.003621
138,0.019703,-0.00469,0.003621
139,0.000481,0.012055,-0.014495
140,-0.037962,-0.00469,0.021737
141,0.019703,0.012055,-0.032611
142,0.000481,-0.00469,-0.032611
143,-0.01874,-0.038179,-0.014495
144,-0.01874,0.012055,-0.032611
145,-0.01874,-0.00469,0.003621
146,0.000481,-0.00469,0.039853
147,0.019703,-0.00469,0.003621
148,-0.01874,-0.00469,0.003621
149,-0.01874,0.012055,0.039853
150,-0.037962,-0.021435,0.003621
151,0.000481,-0.00469,0.021737
152,0.000481,-0.00469,0.039853
153,0.000481,0.0288,0.021737
154,0.000481,0.012055,0.057969
155,0.000481,0.0288,0.039853
156,0.000481,0.0288,0.003621
157,0.019703,-0.00469,0.021737
158,0.000481,-0.00469,-0.014495
159,0.000481,-0.00469,-0.068843
160,0.000481,-0.038179,-0.014495
161,-0.01874,-0.00469,0.003621
162,-0.01874,-0.00469,-0.032611
163,0.000481,-0.021435,0.039853
164,0.000481,-0.00469,0.021737
165,0.019703,-0.021435,-0.032611
166,-0.01874,-0.00469,-0.014495
167,0.000481,-0.038179,0.003621
168,0.019703,-0.038179,-0.014495
169,0.000481,0.012055,0.003621
170,-0.01874,0.045545,-0.068843
171,-0.01874,0.0288,-0.014495
172,-0.01874,-0.021435,0.021737
173,0.000481,-0.021435,0.021737
174,0.000481,-0.054924,-0.014495
175,0.000481,-0.038179,0.003621
176,-0.01874,-0.038179,-0.014495
177,0.000481,-0.00469,-0.014495
178,0.019703,-0.00469,0.021737
179,0.000481,-0.038179,0.003621
180,-0.01874,-0.00469,0.021737
181,-0.01874,0.0288,0.021737
182,0.000481,0.045545,0.003621
183,0.019703,0.045545,-0.032611
184,0.000481,0.06229,0.021737
185,0.000481,0.045545,-0.014495
186,-0.01874,0.06229,0.003621
187,0.019703,0.06229,0.076085
188,0.019703,0.06229,0.021737
189,0.000481,-0.038179,0.021737
190,0.000481,-0.021435,0.021737
191,-0.01874,0.012055,0.003621
192,0.000481,-0.00469,0.021737
193,0.019703,0.012055,-0.014495
194,0.019703,-0.00469,-0.032611
195,0.019703,-0.038179,0.003621
196,0.000481,-0.00469,-0.014495
197,-0.01874,-0.021435,-0.032611
198,-0.01874,-0.021435,0.057969
199,-0.01874,0.012055,0.003621
200,0.000481,-0.00469,-0.050727
201,-0.01874,-0.021435,-0.014495
202,0.000481,0.012055,-0.032611
203,0.000481,0.012055,-0.050727
204,0.000481,0.012055,-0.050727
205,0.000481,0.0288,-0.032611
206,-0.01874,-0.00469,-0.014495
207,0.000481,-0.038179,-0.014495
208,-0.01874,0.0288,0.003621
209,0.000481,-0.00469,-0.014495
210,-0.01874,-0.00469,0.021737
211,-0.01874,-0.021435,-0.032611
212,0.019703,-0.038179,-0.014495
213,0.000481,-0.121903,0.003621
214,-0.01874,-0.105159,-0.050727
215,-0.037962,-0.071669,0.003621
216,-0.01874,-0.054924,0.021737
217,-0.01874,-0.038179,-0.014495
218,0.000481,0.0288,0.003621
219,0.000481,0.0288,0.039853
220,0.000481,0.095779,-0.014495
221,0.019703,0.112524,0.003621
222,0.019703,0.079034,0.057969
223,0.038924,0.06229,0.039853
224,0.019703,0.045545,0.039853
225,0.000481,0.0288,0.057969
226,0.000481,-0.00469,-0.014495
227,-0.037962,0.012055,0.003621
228,0.000481,0.012055,0.003621
229,0.019703,0.012055,-0.050727
230,-0.01874,-0.00469,0.021737
231,0.000481,0.012055,0.057969
232,-0.01874,0.012055,0.057969
233,-0.01874,-0.00469,0.039853
234,0.000481,-0.00469,0.003621
235,0.000481,0.012055,-0.050727
236,-0.01874,0.012055,0.003621
237,0.000481,-0.021435,-0.050727
238,0.000481,-0.038179,-0.050727
239,-0.01874,-0.038179,-0.032611
240,0.000481,-0.021435,-0.014495
241,0.019703,-0.021435,-0.050727
242,0.019703,-0.021435,0.003621
243,0.019703,-0.021435,0.003621
244,0.000481,-0.00469,-0.014495
245,-0.01874,-0.021435,0.003621
246,0.038924,-0.021435,-0.068843
247,0.000481,-0.00469,-0.032611
248,0.019703,-0.00469,0.003621
249,-0.01874,0.012055,0.057969
250,-0.037962,0.012055,0.021737
251,-0.01874,-0.00469,0.076085
252,0.000481,0.0288,0.021737
253,-0.01874,0.012055,-0.032611
254,0.000481,-0.00469,-0.014495
255,-0.01874,0.012055,0.003621
256,0.000481,-0.00469,0.003621
257,-0.037962,0.012055,0.021737
258,-0.01874,-0.00469,0.003621
259,-0.01874,-0.021435,-0.032611
260,0.019703,-0.00469,0.021737
261,0.019703,-0.00469,0.003621
262,0.000481,-0.00469,-0.014495
263,-0.01874,-0.021435,-0.014495
264,-0.01874,-0.038179,-0.032611
265,0.000481,-0.038179,-0.050727
266,0.000481,-0.038179,0.021737
267,-0.01874,-0.00469,0.003621
268,0.000481,-0.021435,0.003621
269,0.000481,0.012055,-0.014495
270,-0.01874,-0.00469,-0.014495
271,0.000481,0.0288,-0.014495
272,0.000481,0.06229,-0.014495
273,0.000481,0.0288,-0.032611
274,0.038924,0.012055,0.021737
275,0.019703,0.0288,0.039853
276,0.000481,0.0288,0.039853
277,0.000481,-0.00469,0.057969
278,0.019703,-0.021435,0.021737
279,-0.01874,-0.038179,-0.014495
280,0.000481,-0.021435,0.021737
281,0.000481,-0.021435,-0.032611
282,0.019703,-0.00469,-0.014495
283,0.019703,-0.038179,-0.014495
284,-0.037962,-0.021435,0.003621
285,-0.01874,-0.00469,0.021737
286,-0.037962,0.045545,-0.014495
287,0.000481,0.0288,-0.032611
288,0.019703,0.0288,-0.050727
289,0.000481,0.0288,0.003621
290,0.000481,0.012055,-0.014495
291,0.000481,0.045545,-0.032611
292,0.000481,0.0288,0.003621
293,-0.01874,0.0288,0.039853
294,0.000481,0.012055,0.021737
295,0.000481,-0.038179,0.021737
296,0.000481,-0.054924,-0.032611
297,0.000481,-0.121903,-0.032611
298,0.000481,-0.105159,-0.014495
299,0.000481,-0.071669,-0.032611
300,-0.037962,-0.038179,-0.032611
301,0.000481,-0.00469,0.003621
302,-0.01874,0.045545,0.003621
303,-0.01874,0.129269,0.039853
304,-0.01874,0.095779,0.057969
305,-0.01874,0.06229,0.039853
306,-0.01874,0.045545,0.003621
307,0.000481,0.0288,0.021737
308,0.019703,0.012055,0.003621
309,0.000481,0.045545,-0.014495
310,0.000481,-0.021435,0.021737
311,0.000481,-0.071669,-0.014495
312,0.000481,-0.071669,-0.014495
313,-0.01874,-0.088414,0.039853
314,0.019703,-0.054924,0.003621
315,0.000481,-0.038179,-0.068843
316,0.019703,0.045545,0.003621
317,-0.01874,0.045545,-0.014495
318,-0.01874,0.045545,-0.032611
319,0.000481,0.06229,0.003621
320,0.019703,0.06229,0.003621
321,0.019703,0.012055,0.021737
322,0.000481,0.012055,0.039853
323,0.000481,0.012055,0.021737
324,-0.01874,-0.00469,0.057969
325,0.000481,-0.00469,0.003621
326,0.000481,-0.00469,-0.014495
327,0.000481,0.012055,0.021737
328,0.000481,-0.038179,0.021737
329,-0.01874,-0.021435,-0.032611
330,-0.01874,-0.021435,0.003621
331,0.000481,-0.00469,-0.014495
332,0.000481,0.0288,-0.032611
333,0.019703,0.012055,-0.032611
334,0.000481,0.012055,-0.086959
335,-0.01874,-0.054924,-0.032611
336,0.000481,-0.021435,-0.014495
337,-0.01874,-0.021435,0.057969
338,-0.01874,-0.038179,0.021737
339,-0.01874,-0.038179,0.057969
340,-0.01874,0.012055,0.039853
341,0.000481,-0.00469,0.021737
342,0.019703,0.045545,0.003621
343,-0.01874,0.0288,-0.014495
344,0.000481,0.0288,0.003621
345,0.000481,-0.00469,0.039853
346,0.000481,0.012055,-0.014495
347,0.000481,-0.00469,-0.014495
348,0.000481,0.012055,0.039853
349,0.019703,-0.00469,0.003621
350,0.000481,-0.021435,-0.032611
351,-0.01874,-0.021435,-0.014495
352,-0.057183,-0.00469,-0.050727
353,-0.01874,-0.021435,-0.032611
354,0.000481,-0.00469,-0.014495
355,0.000481,0.012055,-0.050727
356,0.000481,-0.021435,-0.014495
357,0.019703,0.012055,0.021737
358,0.000481,-0.00469,0.003621
359,0.000481,-0.00469,-0.068843
360,0.000481,-0.00469,-0.014495
361,-0.01874,0.012055,-0.050727
362,-0.01874,-0.00469,-0.032611
363,0.000481,-0.021435,0.039853
364,0.000481,-0.021435,0.021737
365,0.000481,-0.021435,0.057969
366,0.000481,0.012055,0.076085
367,0.000481,-0.00469,-0.014495
368,0.019703,-0.021435,0.039853
369,0.000481,-0.021435,0.003621
370,0.000481,-0.021435,-0.050727
371,0.000481,-0.021435,0.039853
372,-0.01874,-0.021435,0.003621
373,-0.01874,-0.00469,-0.014495
374,-0.037962,-0.00469,-0.014495
375,-0.01874,-0.00469,0.021737
376,-0.037962,-0.021435,-0.068843
377,-0.01874,-0.00469,0.021737
378,0.000481,0.012055,-0.032611
379,0.000481,-0.00469,-0.032611
380,-0.01874,0.012055,-0.014495
381,-0.01874,0.012055,0.021737
382,0.019703,0.0288,0.039853
383,0.000481,0.012055,0.076085
384,0.000481,-0.038179,0.021737
385,-0.01874,-0.038179,-0.014495
386,0.000481,-0.00469,0.039853
387,0.019703,-0.021435,-0.032611
388,0.019703,0.0288,-0.032611
389,-0.01874,0.0288,0.003621
390,0.000481,0.045545,-0.014495
391,-0.01874,-0.00469,0.003621
392,0.000481,-0.054924,0.021737
393,-0.01874,-0.071669,-0.032611
394,0.000481,-0.071669,-0.050727
395,0.000481,-0.054924,-0.032611
396,-0.037962,-0.038179,-0.068843
397,-0.01874,-0.038179,-0.068843
398,0.000481,0.012055,-0.014495
399,0.019703,0.06229,-0.068843
400,-0.037962,0.0288,-0.014495
401,0.000481,-0.038179,0.003621
402,-0.01874,-0.071669,-0.014495
403,0.000481,-0.054924,-0.050727
404,-0.01874,-0.038179,0.003621
405,-0.037962,-0.021435,-0.068843
406,-0.01874,0.012055,-0.050727
407,0.000481,0.06229,0.021737
408,0.000481,0.079034,-0.014495
409,-0.01874,0.06229,0.003621
410,0.000481,0.045545,0.057969
411,0.000481,0.012055,0.003621
412,0.019703,0.012055,0.039853
413,0.019703,0.0288,0.003621
414,0.000481,-0.00469,0.021737
415,0.019703,-0.00469,0.039853
416,0.000481,0.012055,0.039853
417,0.000481,-0.021435,0.021737
418,0.000481,-0.021435,0.039853
419,0.000481,-0.00469,0.021737
420,0.000481,-0.00469,0.021737
421,-0.01874,-0.038179,0.039853
422,-0.01874,-0.038179,-0.032611
423,0.000481,-0.021435,-0.032611
424,0.019703,-0.038179,-0.014495
425,0.000481,-0.021435,-0.014495
426,-0.01874,-0.021435,-0.014495
427,-0.01874,0.012055,0.021737
428,0.000481,0.0288,-0.014495
429,0.019703,-0.00469,0.021737
430,0.019703,0.012055,0.021737
431,0.000481,0.012055,-0.014495
432,0.000481,0.0288,-0.032611
433,-0.01874,0.012055,-0.032611
434,0.000481,0.012055,-0.032611
435,0.019703,0.012055,-0.014495
436,-0.037962,-0.00469,0.021737
437,0.000481,-0.021435,-0.014495
438,0.000481,-0.00469,-0.014495
439,-0.037962,0.012055,-0.014495
440,0.000481,-0.021435,-0.032611
441,-0.01874,-0.00469,0.021737
442,0.000481,-0.00469,0.039853
443,0.000481,-0.00469,0.003621
444,0.000481,0.012055,0.021737
445,-0.037962,-0.00469,0.021737
446,0.000481,0.012055,-0.014495
447,-0.01874,-0.021435,-0.032611
448,0.000481,0.012055,0.021737
449,0.019703,-0.021435,0.003621
450,0.019703,0.045545,0.021737
451,0.000481,0.045545,0.021737
452,0.000481,0.012055,-0.014495
453,0.000481,-0.00469,0.021737
454,-0.01874,-0.038179,0.039853
455,-0.037962,-0.00469,0.021737
456,-0.01874,-0.054924,0.003621
457,-0.01874,-0.038179,-0.050727
458,0.019703,-0.038179,-0.032611
459,-0.037962,-0.021435,0.003621
460,0.000481,-0.00469,0.021737
461,-0.01874,-0.021435,-0.032611
462,0.000481,-0.021435,0.021737
463,0.000481,-0.00469,-0.032611
464,0.019703,-0.021435,-0.014495
465,-0.037962,-0.00469,-0.014495
466,-0.037962,-0.021435,-0.032611
467,0.000481,-0.00469,-0.014495
468,-0.01874,-0.00469,0.021737
469,0.000481,-0.00469,0.003621
470,0.000481,-0.00469,0.021737
471,-0.01874,-0.038179,0.057969
472,-0.01874,-0.054924,-0.014495
473,-0.01874,-0.054924,-0.050727
474,-0.01874,-0.088414,-0.014495
475,-0.01874,-0.038179,-0.014495
476,0.019703,-0.038179,-0.050727
477,0.000481,-0.021435,-0.014495
478,0.000481,-0.038179,-0.032611
479,-0.01874,0.012055,0.039853
480,-0.01874,0.012055,0.021737
481,-0.01874,-0.00469,0.021737
482,0.000481,0.045545,-0.032611
483,0.000481,0.06229,0.021737
484,0.019703,0.095779,0.039853
485,0.000481,0.112524,0.039853
486,-0.01874,0.095779,0.003621
487,0.019703,0.079034,0.003621
488,0.019703,0.0288,0.021737
489,0.019703,0.0288,-0.032611
490,0.000481,0.0288,-0.014495
491,0.019703,-0.00469,-0.014495
492,-0.037962,-0.00469,0.003621
493,0.000481,0.012055,0.003621
494,0.000481,0.012055,0.039853
495,0.000481,0.0288,0.039853
496,0.038924,0.012055,0.057969
497,0.000481,0.012055,0.057969
498,0.000481,0.012055,0.057969
499,0.000481,-0.00469,0.021737
500,0.000481,0.0288,0.003621
501,0.000481,0.012055,0.003621
502,-0.01874,0.012055,-0.050727
503,-0.01874,-0.00469,-0.032611
504,0.000481,-0.00469,-0.032611
505,-0.01874,-0.00469,-0.050727
506,-0.037962,-0.021435,0.003621
507,-0.01874,-0.021435,-0.032611
508,0.000481,-0.021435,-0.032611
509,0.000481,-0.021435,-0.014495
510,0.000481,-0.021435,-0.032611
511,0.019703,-0.021435,-0.014495
512,-0.01874,-0.021435,-0.014495
513,-0.01874,-0.021435,0.057969
514,0.019703,-0.00469,-0.014495
515,-0.01874,-0.00469,0.021737
516,-0.037962,-0.00469,-0.014495
517,-0.01874,0.012055,-0.014495
518,-0.01874,-0.00469,0.076085
519,0.000481,0.012055,0.039853
520,-0.01874,0.012055,0.057969
521,-0.037962,0.012055,0.039853
522,0.000481,0.012055,-0.032611
523,-0.01874,-0.038179,-0.068843
524,0.000481,-0.021435,-0.032611
525,0.000481,-0.021435,-0.032611
526,-0.01874,-0.021435,-0.050727
527,0.000481,-0.00469,-0.032611
528,-0.01874,-0.021435,-0.050727
529,-0.01874,-0.00469,-0.032611
530,0.000481,0.012055,0.021737
531,0.019703,0.012055,0.021737
532,0.000481,0.012055,0.021737
533,0.000481,0.0288,0.039853
534,0.019703,-0.00469,0.003621
535,0.019703,0.06229,0.003621
536,0.019703,0.012055,0.076085
537,0.038924,0.045545,0.130433
538,0.058146,0.045545,0.221013
539,0.019703,0.079034,0.257245
540,0.019703,0.06229,0.112317
541,0.019703,0.012055,0.112317
542,0.038924,0.045545,0.166665
543,0.038924,0.06229,0.148549
544,0.019703,0.045545,0.076085
545,0.019703,0.045545,0.003621
546,0.038924,0.06229,0.039853
547,0.038924,0.012055,0.021737
548,0.019703,-0.021435,0.003621
549,0.000481,-0.021435,0.021737
550,0.019703,-0.00469,-0.032611
551,-0.057183,-0.038179,-0.141307
552,-0.057183,-0.054924,-0.195655
553,-0.037962,-0.038179,-0.086959
554,0.000481,0.012055,0.003621
555,0.058146,0.0288,0.112317
556,0.019703,0.012055,0.076085
557,-0.076405,-0.054924,-0.105075
558,-0.076405,-0.088414,-0.231887
559,-0.057183,-0.038179,-0.050727
560,0.019703,0.0288,-0.032611
561,0.000481,-0.00469,-0.086959
562,-0.037962,-0.038179,-0.086959
563,0.019703,-0.021435,-0.105075
564,0.000481,-0.00469,-0.050727
565,-0.01874,-0.021435,0.003621
566,-0.01874,-0.00469,0.003621
567,-0.037962,0.0288,0.076085
568,-0.01874,0.012055,0.057969
569,-0.01874,0.012055,0.003621
570,-0.037962,0.012055,-0.086959
571,-0.057183,-0.00469,-0.159423
572,-0.037962,-0.021435,-0.213771
573,-0.095626,-0.021435,-0.177539
574,-0.037962,0.0288,-0.105075
575,-0.037962,-0.038179,-0.123191
576,-0.01874,-0.021435,-0.032611
577,0.000481,0.012055,-0.014495
578,0.000481,-0.00469,0.021737
579,-0.01874,-0.021435,-0.032611
580,-0.01874,-0.038179,-0.014495
581,-0.037962,-0.021435,-0.014495
582,0.000481,-0.00469,0.039853
583,0.077367,0.012055,0.057969
584,0.038924,0.012055,0.057969
585,0.019703,0.045545,0.057969
586,-0.037962,0.0288,0.039853
587,-0.057183,0.0288,0.021737
588,-0.172512,0.0288,0.039853
589,-0.076405,-0.00469,-0.014495
590,0.038924,-0.021435,0.003621
591,0.058146,0.012055,0.076085
592,0.019703,0.045545,0.148549
593,0.019703,0.0288,0.130433
594,0.038924,0.06229,0.184781
595,0.096589,0.045545,0.202897
596,0.11581,0.0288,0.166665
597,0.077367,0.06229,0.112317
598,0.077367,0.0288,0.003621
599,0.019703,-0.00469,-0.068843
600,-0.01874,-0.021435,-0.050727
601,0.000481,0.0288,0.021737
602,0.019703,0.012055,0.112317
603,0.019703,0.012055,0.112317
604,0.000481,-0.038179,0.021737
605,-0.01874,-0.021435,0.057969
606,0.038924,-0.00469,0.184781
607,0.019703,0.012055,0.166665
608,0.000481,0.0288,0.112317
609,-0.01874,0.0288,0.057969
610,-0.037962,-0.021435,0.057969
611,-0.01874,-0.00469,0.039853
612,0.000481,0.0288,-0.050727
613,0.019703,0.045545,-0.141307
614,0.000481,-0.021435,-0.050727
615,0.019703,0.0288,0.076085
616,0.038924,0.045545,0.112317
617,0.077367,0.079034,0.112317
618,0.058146,0.045545,0.112317
619,0.000481,-0.00469,-0.159423
620,-0.037962,-0.054924,-0.195655
621,-0.057183,-0.054924,-0.141307
622,-0.01874,0.012055,-0.141307
623,-0.01874,-0.021435,-0.195655
624,-0.01874,-0.038179,-0.141307
625,-0.057183,-0.038179,-0.105075
626,-0.037962,-0.021435,-0.050727
627,0.000481,-0.038179,-0.032611
628,0.019703,0.0288,-0.014495
629,-0.037962,-0.00469,0.039853
630,-0.076405,0.079034,-0.159423
631,-0.037962,-0.021435,-0.105075
632,-0.037962,0.012055,-0.014495
633,-0.037962,0.0288,0.039853
634,-0.01874,0.045545,-0.014495
635,-0.037962,-0.038179,-0.231887
636,-0.057183,-0.088414,-0.250003
637,0.000481,-0.054924,-0.032611
638,0.058146,0.0288,0.148549
639,0.096589,0.045545,0.148549
640,0.058146,0.045545,0.166665
641,0.058146,0.095779,0.293477
642,0.058146,0.112524,0.293477
643,-0.01874,0.079034,0.130433
644,-0.076405,0.012055,-0.105075
645,-0.057183,-0.00469,-0.050727
646,-0.037962,0.0288,0.094201
647,0.000481,0.045545,0.166665
648,0.077367,0.079034,0.094201
649,-0.01874,-0.038179,-0.123191
650,-0.057183,-0.105159,-0.213771
651,-0.095626,-0.155393,-0.195655
652,-0.076405,-0.054924,-0.213771
653,-0.057183,-0.038179,-0.231887
654,0.019703,0.012055,-0.050727
655,0.019703,0.045545,0.112317
656,0.019703,0.012055,0.130433
657,0.077367,0.06229,0.202897
658,0.11581,0.06229,0.239129
659,0.019703,0.045545,0.184781
660,0.038924,-0.00469,0.076085
661,0.038924,-0.021435,-0.086959
662,0.000481,-0.071669,-0.141307
663,-0.01874,0.012055,0.021737
664,0.058146,0.045545,0.293477
665,-0.01874,-0.021435,0.257245
666,0.058146,-0.038179,0.130433
667,0.096589,-0.00469,0.057969
668,0.000481,-0.021435,-0.123191
669,-0.01874,-0.038179,-0.304351
670,-0.01874,-0.071669,-0.431163
671,-0.095626,-0.138648,-0.503627
672,-0.153291,-0.121903,-0.304351
673,-0.057183,-0.00469,0.094201
674,0.000481,-0.00469,0.094201
675,0.019703,-0.021435,0.094201
676,0.058146,0.112524,0.275361
677,0.019703,0.146014,0.275361
678,-0.01874,0.06229,0.257245
679,0.058146,0.095779,0.420288
680,0.019703,0.012055,0.257245
681,-0.037962,-0.038179,0.257245
682,0.000481,-0.00469,0.293477
683,-0.037962,0.045545,0.076085
684,-0.057183,-0.00469,-0.159423
685,-0.095626,-0.054924,-0.340583
686,-0.076405,-0.054924,-0.304351
687,-0.037962,-0.038179,-0.123191
688,-0.057183,-0.054924,-0.014495
689,-0.076405,-0.105159,-0.213771
690,-0.057183,-0.038179,-0.376815
691,0.000481,0.06229,-0.159423
692,0.038924,0.095779,-0.123191
693,0.058146,0.129269,-0.032611
694,0.058146,0.129269,0.184781
695,0.077367,0.179503,0.221013
696,-0.076405,0.079034,-0.086959
697,-0.095626,-0.038179,-0.177539
698,-0.057183,-0.071669,-0.014495
699,0.019703,-0.00469,0.275361
700,-0.057183,0.012055,0.384056
701,-0.153291,-0.121903,0.057969
702,-0.095626,-0.138648,-0.195655
703,-0.037962,-0.088414,-0.177539
704,0.038924,0.012055,-0.014495
705,0.11581,0.112524,0.184781
706,0.11581,0.095779,0.166665
707,0.019703,0.06229,0.202897
708,0.096589,0.079034,0.257245
709,0.019703,-0.00469,-0.014495
710,0.019703,-0.00469,-0.032611
711,0.038924,-0.00469,0.057969
712,0.038924,0.012055,0.021737
713,-0.01874,-0.054924,-0.159423
714,-0.076405,-0.121903,-0.376815
715,-0.01874,-0.071669,-0.105075
716,0.096589,0.012055,0.184781
717,0.058146,0.012055,0.130433
718,-0.076405,-0.088414,-0.195655
719,-0.057183,-0.054924,-0.195655
720,0.058146,0.079034,-0.032611
721,0.096589,0.112524,0.021737
722,0.000481,0.0288,0.130433
723,-0.057183,-0.021435,-0.105075
724,-0.076405,0.012055,-0.123191
725,-0.057183,0.012055,-0.159423
726,0.077367,0.06229,-0.105075
727,0.077367,0.06229,-0.050727
728,0.019703,0.0288,0.021737
729,0.058146,0.0288,0.130433
730,-0.01874,-0.00469,0.003621
731,-0.076405,-0.021435,0.003621
732,-0.076405,-0.038179,-0.195655
733,-0.114848,-0.088414,-0.250003
734,-0.114848,-0.021435,-0.050727
735,-0.076405,0.012055,0.039853
736,0.096589,0.079034,0.112317
737,0.077367,0.079034,0.275361
738,0.11581,0.079034,0.239129
739,0.000481,0.079034,0.130433
740,-0.095626,-0.021435,-0.014495
741,-0.114848,-0.054924,-0.159423
742,-0.037962,-0.00469,-0.086959
743,-0.037962,-0.00469,0.094201
744,0.000481,-0.038179,0.076085
745,-0.037962,-0.105159,-0.086959
746,0.019703,-0.038179,0.094201
747,0.038924,0.0288,0.239129
748,-0.037962,0.045545,0.184781
749,0.077367,0.095779,0.166665
750,0.11581,0.06229,0.003621
751,0.000481,-0.054924,-0.322467
752,-0.210955,-0.222372,-0.684787
753,-0.230177,-0.205628,-0.557975
754,0.019703,0.012055,-0.195655
755,-0.01874,0.079034,0.094201
756,0.000481,0.06229,0.166665
757,0.000481,0.045545,0.130433
758,-0.076405,-0.038179,-0.068843
759,-0.057183,-0.021435,-0.086959
760,0.000481,-0.038179,0.021737
761,0.019703,-0.021435,-0.050727
762,0.077367,0.045545,0.021737
763,0.096589,0.012055,0.166665
764,0.11581,0.045545,0.239129
765,0.038924,0.0288,0.166665
766,0.019703,0.045545,0.293477
767,-0.037962,0.0288,0.112317
768,0.000481,0.045545,0.112317
769,-0.076405,-0.021435,-0.086959
770,-0.076405,-0.038179,-0.250003
771,-0.057183,-0.071669,-0.304351
772,-0.037962,-0.071669,-0.123191
773,0.000481,0.012055,0.039853
774,0.077367,0.06229,0.166665
775,0.11581,0.079034,0.239129
776,0.096589,0.095779,0.239129
777,0.077367,0.079034,0.184781
778,-0.01874,-0.00469,-0.032611
779,-0.076405,-0.121903,-0.250003
780,-0.037962,-0.054924,-0.141307
781,-0.01874,-0.00469,0.076085
782,0.038924,-0.021435,-0.068843
783,0.038924,-0.021435,-0.105075
784,0.019703,-0.00469,-0.123191
785,0.000481,0.012055,-0.068843
786,-0.01874,-0.038179,0.021737
787,-0.076405,-0.054924,0.003621
788,-0.01874,0.012055,0.039853
789,0.000481,0.012055,-0.014495
790,-0.037962,-0.054924,0.003621
791,-0.037962,-0.021435,-0.068843
792,-0.095626,-0.105159,-0.250003
793,-0.114848,-0.071669,-0.231887
794,-0.01874,0.045545,0.039853
795,0.000481,0.095779,0.221013
796,0.038924,0.079034,0.202897
797,0.038924,0.06229,0.166665
798,0.019703,-0.00469,0.039853
799,0.019703,0.045545,0.003621
800,-0.01874,-0.038179,-0.195655
801,-0.01874,-0.021435,-0.068843
802,-0.01874,0.012055,0.003621
803,-0.01874,0.012055,-0.086959
804,-0.037962,-0.00469,-0.050727
805,0.019703,0.012055,-0.050727
806,0.038924,0.0288,0.003621
807,0.019703,0.0288,0.057969
808,0.019703,0.0288,0.057969
809,0.000481,-0.00469,0.021737
810,-0.01874,0.012055,0.057969
811,-0.01874,-0.00469,0.094201
812,-0.01874,-0.00469,0.094201
813,0.038924,0.06229,0.130433
814,0.077367,0.095779,0.148549
815,0.038924,0.045545,0.039853
816,0.019703,0.012055,-0.014495
817,-0.057183,-0.088414,-0.304351
818,-0.095626,-0.105159,-0.304351
819,-0.076405,-0.105159,-0.177539
820,-0.114848,-0.054924,0.021737
821,-0.037962,-0.00469,0.076085
822,-0.01874,0.0288,0.148549
823,0.000481,0.0288,0.094201
824,-0.057183,-0.021435,-0.068843
825,-0.037962,-0.054924,-0.068843
826,-0.01874,-0.054924,-0.050727
827,-0.01874,0.0288,0.094201
828,0.038924,0.0288,0.184781
829,0.019703,0.045545,0.094201
830,0.019703,0.0288,0.021737
831,0.058146,0.06229,-0.068843
832,0.000481,0.012055,-0.123191
833,-0.037962,-0.021435,-0.141307
834,-0.057183,-0.038179,-0.086959
835,-0.037962,-0.021435,0.021737
836,0.019703,0.045545,0.112317
837,0.019703,0.045545,0.130433
838,0.000481,0.012055,-0.050727
839,0.000481,-0.00469,-0.014495
840,0.000481,-0.00469,-0.032611
841,0.038924,0.0288,-0.050727
842,0.096589,0.045545,0.094201
843,0.038924,0.0288,0.057969
844,-0.076405,-0.071669,-0.213771
845,-0.076405,-0.105159,-0.231887
846,-0.076405,-0.054924,-0.141307
847,-0.076405,-0.038179,-0.068843
848,0.000481,-0.00469,0.003621
849,0.000481,0.012055,0.021737
850,-0.037962,0.0288,0.003621
851,-0.057183,0.045545,0.057969
852,-0.037962,0.045545,0.130433
853,-0.037962,0.045545,0.076085
854,-0.076405,-0.00469,0.076085
855,-0.076405,-0.00469,0.021737
856,-0.134069,-0.021435,-0.032611
857,-0.153291,-0.038179,-0.050727
858,-0.095626,0.0288,0.039853
859,-0.037962,0.095779,0.184781
860,0.077367,0.095779,0.293477
861,0.173475,0.129269,0.311592
862,0.154253,0.045545,0.130433
863,0.11581,-0.00469,0.003621
864,0.058146,-0.038179,-0.159423
865,0.058146,-0.054924,-0.159423
866,0.058146,-0.00469,-0.068843
867,0.000481,-0.038179,-0.141307
868,-0.01874,-0.021435,-0.123191
869,0.000481,-0.021435,-0.086959
870,-0.01874,-0.038179,-0.105075
871,0.000481,-0.00469,-0.050727
872,0.038924,0.0288,-0.014495
873,0.019703,-0.00469,-0.032611
874,-0.01874,-0.021435,-0.086959
875,-0.037962,-0.021435,-0.050727
876,0.096589,-0.00469,-0.068843
877,0.173475,0.012055,-0.032611
878,0.192696,0.0288,0.076085
879,0.11581,0.045545,0.094201
880,0.096589,0.0288,0.148549
881,0.058146,0.012055,0.021737
882,0.000481,-0.021435,-0.050727
883,-0.153291,-0.038179,-0.032611
884,-0.249399,-0.00469,-0.014495
885,-0.134069,-0.00469,0.021737
886,-0.057183,-0.00469,0.003621
887,-0.01874,-0.021435,-0.032611
888,-0.01874,-0.00469,-0.032611
889,0.000481,0.012055,0.039853
890,-0.037962,-0.038179,-0.050727
891,-0.057183,-0.021435,-0.068843
892,0.000481,-0.00469,0.021737
893,0.000481,-0.00469,-0.068843
894,-0.01874,-0.00469,-0.014495
895,-0.01874,-0.021435,0.039853
896,-0.01874,0.0288,0.076085
897,0.000481,0.012055,0.057969
898,-0.01874,0.0288,0.057969
899,0.000481,-0.00469,0.003621
900,0.038924,-0.038179,-0.050727
901,0.096589,-0.188883,-0.014495
902,0.077367,-0.172138,-0.014495
903,0.135032,-0.138648,0.021737
904,0.077367,-0.054924,0.021737
905,-0.01874,0.012055,0.039853
906,-0.057183,0.012055,0.039853
907,-0.172512,0.012055,0.039853
908,-0.210955,0.012055,-0.068843
909,-0.326285,0.045545,-0.032611
910,-0.249399,0.06229,-0.014495
911,-0.287842,0.045545,-0.032611
912,-0.249399,0.045545,0.021737
913,-0.134069,0.045545,0.003621
914,-0.076405,0.0288,-0.050727
915,-0.01874,0.06229,0.003621
916,0.135032,0.06229,-0.050727
917,0.154253,0.095779,-0.032611
918,0.135032,0.095779,-0.032611
919,0.192696,0.06229,-0.014495
920,0.327247,0.0288,-0.032611
921,0.384912,0.045545,0.039853
922,0.308025,0.095779,0.112317
923,0.211918,0.079034,0.112317
924,0.096589,0.012055,0.148549
925,0.058146,-0.038179,0.057969
926,0.038924,-0.071669,0.021737
927,0.019703,-0.038179,0.039853
928,0.019703,-0.021435,0.039853
929,0.000481,-0.038179,0.021737
930,0.038924,-0.00469,-0.014495
931,0.038924,-0.021435,-0.014495
932,0.019703,-0.021435,-0.068843
933,0.000481,-0.054924,0.003621
934,-0.057183,-0.00469,-0.014495
935,0.000481,-0.00469,-0.068843
936,-0.076405,-0.054924,0.003621
937,-0.114848,-0.054924,0.003621
938,-0.057183,-0.021435,0.021737
939,-0.037962,0.045545,0.039853
940,-0.01874,0.045545,0.021737
941,-0.057183,0.0288,0.003621
942,-0.01874,0.012055,-0.014495
943,-0.057183,-0.00469,-0.050727
944,-0.037962,-0.038179,-0.105075
945,-0.01874,-0.121903,-0.068843
946,0.019703,-0.021435,-0.105075
947,0.000481,-0.021435,-0.032611
948,0.000481,-0.088414,0.039853
949,-0.037962,-0.188883,0.003621
950,-0.057183,-0.239117,0.003621
951,-0.095626,-0.255862,0.021737
952,-0.095626,-0.205628,0.039853
953,-0.114848,-0.105159,0.003621
954,-0.057183,0.012055,0.039853
955,0.077367,0.129269,0.003621
956,0.250361,0.095779,0.057969
957,0.288804,0.129269,0.039853
958,0.288804,0.212993,0.003621
959,0.11581,0.179503,0.039853
960,-0.037962,0.196248,0.039853
961,-0.076405,0.079034,0.003621
962,-0.210955,-0.054924,0.003621
963,-0.153291,-0.00469,-0.014495
964,-0.057183,0.079034,-0.014495
965,-0.057183,0.129269,0.021737
966,-0.134069,0.112524,0.039853
967,-0.095626,0.06229,-0.014495
968,-0.057183,0.112524,0.021737
969,-0.057183,0.079034,-0.032611
970,-0.037962,0.095779,-0.032611
971,-0.037962,0.045545,0.003621
972,-0.037962,-0.188883,-0.014495
973,-0.037962,-0.389821,0.021737
974,-0.076405,-0.339586,0.039853
975,-0.172512,-0.205628,0.039853
976,-0.249399,-0.038179,-0.032611
977,-0.287842,0.06229,0.003621
978,-0.249399,0.162759,0.003621
979,-0.287842,0.279972,-0.032611
980,-0.153291,0.229738,-0.014495
981,0.038924,0.179503,-0.050727
982,0.231139,0.196248,-0.032611
983,0.384912,0.212993,-0.032611
984,0.423355,0.146014,0.003621
985,0.481019,-0.071669,0.021737
986,0.519462,-0.038179,0.057969
987,0.442576,0.06229,0.057969
988,0.173475,0.162759,0.039853
989,0.038924,0.146014,0.021737
990,0.038924,0.146014,-0.014495
991,0.000481,0.162759,0.003621
992,-0.037962,0.129269,-0.014495
993,-0.057183,0.0288,-0.068843
994,-0.076405,-0.021435,-0.050727
995,-0.037962,-0.155393,-0.050727
996,-0.037962,-0.155393,-0.014495
997,-0.076405,-0.188883,-0.032611
998,-0.01874,-0.105159,-0.014495
999,0.019703,-0.00469,0.003621
1000,0.000481,0.045545,0.003621
1001,0.000481,-0.038179,0.021737
1002,-0.037962,-0.088414,0.003621
1003,-0.037962,-0.105159,0.003621
1004,-0.076405,-0.088414,0.003621
1005,-0.114848,-0.021435,-0.032611
1006,-0.095626,-0.105159,-0.032611
1007,-0.114848,-0.121903,-0.014495
1008,-0.114848,-0.172138,-0.050727
1009,-0.076405,-0.121903,0.003621
1010,-0.057183,-0.054924,0.003621
1011,-0.01874,-0.00469,-0.014495
1012,0.038924,0.06229,0.003621
1013,0.058146,0.079034,-0.014495
1014,0.058146,0.06229,-0.014495
1015,0.019703,0.045545,0.003621
1016,0.038924,0.095779,-0.014495
1017,0.019703,0.095779,0.021737
1018,0.038924,0.095779,0.003621
1019,0.000481,0.012055,0.021737
1020,-0.037962,-0.138648,0.003621
1021,-0.076405,-0.289352,0.021737
1022,-0.057183,-0.255862,0.021737
1023,-0.095626,-0.289352,0.003621
1024,-0.076405,-0.255862,0.021737
1025,-0.037962,-0.138648,-0.032611
1026,0.038924,-0.088414,0.021737
1027,0.038924,0.045545,0.021737
1028,0.019703,0.129269,0.021737
1029,-0.057183,0.162759,0.003621
1030,0.000481,0.246483,0.003621
1031,0.000481,0.229738,-0.050727
1032,-0.037962,0.229738,-0.068843
1033,-0.057183,0.179503,-0.014495
1034,0.000481,0.146014,-0.068843
1035,0.038924,0.179503,0.021737
1036,0.058146,0.162759,0.003621
1037,0.019703,0.146014,0.003621
1038,0.000481,0.146014,-0.032611
1039,-0.01874,0.095779,0.003621
1040,-0.01874,0.045545,-0.050727
1041,0.038924,-0.088414,-0.032611
1042,0.058146,-0.155393,-0.014495
1043,0.019703,-0.222372,0.003621
1044,0.000481,-0.205628,0.021737
1045,-0.037962,-0.071669,0.076085
1046,-0.01874,-0.038179,0.057969
1047,-0.057183,-0.054924,0.076085
1048,-0.01874,0.045545,0.057969
1049,0.038924,0.095779,0.076085
1050,0.038924,0.229738,0.021737
1051,0.077367,0.112524,0.021737
1052,0.058146,0.079034,0.021737
1053,0.077367,-0.121903,0.039853
1054,0.000481,-0.255862,0.021737
1055,-0.134069,-0.188883,-0.050727
1056,-0.114848,-0.071669,-0.014495
1057,-0.057183,0.045545,0.003621
1058,-0.01874,0.095779,-0.014495
1059,-0.01874,0.162759,-0.014495
1060,-0.037962,0.162759,-0.068843
1061,0.000481,0.095779,-0.014495
1062,0.058146,0.079034,-0.014495
1063,0.077367,0.06229,0.057969
1064,0.058146,0.0288,0.094201
1065,0.058146,0.012055,0.076085
1066,0.038924,0.0288,0.057969
1067,0.000481,0.012055,-0.014495
1068,-0.037962,0.012055,-0.032611
1069,-0.076405,-0.054924,-0.050727
1070,-0.037962,-0.088414,-0.032611
1071,-0.01874,-0.138648,-0.032611
1072,-0.01874,-0.172138,-0.032611
1073,-0.037962,-0.088414,-0.032611
1074,-0.037962,-0.038179,-0.050727
1075,-0.037962,-0.00469,-0.014495
1076,-0.037962,0.012055,-0.014495
1077,-0.037962,-0.00469,0.003621
1078,-0.01874,-0.00469,0.003621
1079,0.000481,-0.038179,0.039853
1080,-0.01874,-0.071669,0.039853
1081,0.019703,-0.021435,0.021737
1082,-0.01874,-0.054924,-0.014495
1083,0.000481,-0.088414,-0.014495
1084,-0.01874,-0.054924,-0.014495
1085,0.038924,-0.071669,-0.014495
1086,0.019703,-0.00469,0.021737
1087,0.019703,0.045545,-0.032611
1088,0.038924,0.0288,0.021737
1089,0.058146,-0.00469,0.076085
1090,-0.01874,0.0288,0.057969
1091,-0.01874,0.095779,0.021737
1092,0.000481,0.06229,0.039853
1093,0.000481,0.045545,-0.050727
1094,-0.01874,0.045545,-0.050727
1095,-0.01874,-0.00469,-0.014495
1096,0.000481,-0.00469,-0.086959
1097,-0.037962,0.012055,-0.068843
1098,-0.057183,0.012055,-0.032611
1099,-0.01874,-0.054924,-0.032611
1100,-0.01874,-0.021435,-0.014495
1101,0.019703,-0.00469,0.003621
1102,0.000481,-0.038179,0.003621
1103,0.000481,0.012055,0.039853
1104,0.019703,0.012055,0.003621
1105,0.000481,-0.021435,0.003621
1106,0.000481,-0.054924,0.021737
1107,-0.037962,-0.00469,0.039853
1108,-0.037962,0.045545,0.021737
1109,-0.01874,0.012055,0.057969
1110,0.000481,0.012055,0.003621
1111,0.019703,0.012055,-0.032611
1112,0.019703,0.0288,0.003621
1113,0.000481,0.0288,-0.014495
1114,-0.037962,0.06229,-0.032611
1115,0.000481,0.079034,0.021737
1116,-0.01874,0.045545,0.003621
1117,-0.01874,0.045545,-0.014495
1118,0.000481,0.079034,-0.014495
1119,0.000481,0.06229,-0.032611
1120,-0.01874,0.012055,-0.032611
1121,0.000481,0.045545,0.003621
1122,-0.01874,0.0288,-0.014495
1123,-0.01874,-0.088414,0.003621
1124,-0.01874,-0.155393,0.039853
1125,-0.037962,-0.121903,0.021737
1126,-0.037962,-0.071669,0.057969
1127,-0.01874,0.012055,0.076085
1128,0.019703,0.0288,0.021737
1129,-0.01874,0.079034,0.003621
1130,-0.037962,0.06229,0.057969
1131,-0.076405,0.0288,-0.032611
1132,-0.057183,-0.038179,0.021737
1133,-0.114848,-0.054924,0.057969
1134,-0.114848,-0.054924,0.021737
1135,-0.076405,-0.071669,0.039853
1136,-0.037962,-0.021435,0.039853
1137,0.038924,0.012055,-0.032611
1138,0.154253,0.079034,-0.032611
1139,0.154253,0.112524,-0.032611
1140,0.11581,0.095779,-0.050727
1141,0.077367,0.112524,0.021737
1142,0.058146,0.06229,0.039853
1143,0.058146,0.079034,0.039853
1144,0.058146,0.06229,0.039853
1145,0.038924,0.045545,0.021737
1146,0.038924,-0.021435,-0.014495
1147,-0.037962,-0.038179,-0.014495
1148,-0.01874,-0.071669,-0.068843
1149,-0.037962,-0.105159,-0.086959
1150,-0.037962,-0.088414,-0.086959
1151,-0.057183,-0.054924,-0.032611
1152,-0.037962,-0.021435,-0.032611
1153,-0.01874,0.0288,0.003621
1154,-0.01874,0.012055,-0.032611
1155,-0.01874,-0.00469,-0.014495
1156,-0.01874,0.0288,0.021737
1157,-0.037962,0.045545,-0.068843
1158,-0.037962,-0.00469,-0.032611
1159,-0.01874,-0.038179,0.003621
1160,-0.01874,-0.038179,0.021737
1161,-0.01874,0.012055,0.021737
1162,0.019703,0.0288,0.039853
1163,0.019703,0.095779,-0.014495
1164,0.019703,0.06229,-0.032611
1165,0.000481,0.06229,-0.014495
1166,0.000481,0.06229,-0.032611
1167,0.000481,0.045545,0.003621
1168,0.000481,0.0288,0.057969
1169,0.038924,0.0288,0.039853
1170,0.000481,0.045545,0.057969
1171,0.000481,0.0288,0.130433
1172,0.000481,-0.00469,0.057969
1173,-0.01874,-0.021435,0.003621
1174,-0.037962,-0.021435,-0.032611
1175,-0.01874,-0.00469,-0.068843
1176,0.000481,-0.021435,-0.068843
1177,-0.01874,-0.00469,-0.032611
1178,-0.01874,-0.00469,-0.068843
1179,-0.01874,-0.021435,-0.032611
1180,-0.01874,-0.021435,0.021737
1181,0.000481,-0.021435,0.003621
1182,-0.01874,-0.021435,-0.032611
1183,0.000481,-0.021435,-0.014495
1184,-0.01874,-0.021435,-0.032611
1185,-0.037962,-0.038179,0.021737
1186,0.000481,-0.00469,0.003621
1187,-0.01874,-0.021435,-0.050727
1188,-0.01874,-0.021435,0.021737
1189,0.019703,-0.00469,0.021737
1190,-0.01874,-0.00469,-0.032611
1191,0.000481,-0.054924,0.003621
1192,-0.01874,-0.038179,-0.014495
1193,0.019703,0.012055,-0.050727
1194,0.000481,-0.038179,0.021737
1195,-0.037962,-0.038179,0.003621
1196,-0.01874,-0.021435,-0.014495
1197,-0.01874,0.0288,0.021737
1198,0.000481,0.06229,0.021737
1199,0.000481,0.045545,-0.014495
1200,0.000481,0.079034,0.003621
1201,-0.037962,0.06229,-0.014495
1202,0.000481,0.0288,0.003621
1203,0.019703,0.045545,0.021737
1204,0.019703,0.012055,0.057969
1205,0.000481,0.0288,0.057969
1206,0.000481,0.012055,-0.014495
1207,0.000481,-0.054924,0.003621
1208,0.019703,-0.054924,0.021737
1209,-0.01874,-0.054924,0.021737
1210,0.000481,-0.021435,-0.014495
1211,0.000481,-0.00469,0.003621
1212,0.000481,0.0288,0.021737
1213,-0.01874,0.045545,0.003621
1214,0.000481,0.06229,-0.014495
1215,-0.01874,0.0288,0.039853
1216,0.019703,0.012055,0.021737
1217,0.000481,-0.021435,-0.032611
1218,-0.01874,-0.038179,0.003621
1219,0.000481,-0.054924,0.021737
1220,-0.01874,-0.105159,0.039853
1221,0.000481,-0.121903,0.039853
1222,0.019703,-0.105159,0.021737
1223,-0.01874,-0.071669,0.021737
1224,-0.037962,-0.00469,0.021737
1225,-0.037962,0.095779,-0.014495
1226,0.000481,0.162759,-0.014495
1227,0.019703,0.212993,-0.014495
1228,0.058146,0.196248,-0.014495
1229,0.038924,0.129269,0.003621
1230,0.019703,0.06229,0.003621
1231,0.000481,-0.088414,-0.014495
1232,0.000481,-0.105159,0.003621
1233,0.000481,-0.038179,-0.014495
1234,-0.01874,-0.038179,-0.014495
1235,-0.01874,0.012055,0.003621
1236,-0.057183,0.06229,-0.032611
1237,-0.01874,0.079034,-0.014495
1238,0.000481,0.079034,0.039853
1239,0.000481,0.045545,0.039853
1240,0.000481,0.012055,0.021737
1241,-0.01874,-0.00469,0.039853
1242,-0.01874,-0.00469,0.003621
1243,0.000481,0.0288,-0.050727
1244,0.000481,0.012055,0.021737
1245,-0.037962,-0.00469,-0.014495
1246,-0.01874,-0.00469,0.003621
1247,0.019703,-0.021435,0.003621
1248,-0.01874,-0.054924,0.021737
1249,0.000481,-0.054924,-0.014495
1250,-0.037962,-0.00469,-0.014495
1251,0.000481,-0.00469,-0.014495
1252,0.000481,0.012055,-0.014495
1253,-0.01874,-0.00469,-0.014495
1254,-0.01874,-0.021435,-0.050727
1255,-0.01874,-0.00469,0.003621
1256,-0.01874,-0.00469,0.021737
1257,0.000481,-0.038179,-0.014495
1258,0.000481,-0.038179,0.003621
1259,-0.01874,-0.071669,0.057969
1260,0.000481,-0.038179,0.039853
1261,0.000481,-0.054924,0.003621
1262,-0.01874,0.012055,0.021737
1263,0.000481,0.045545,-0.014495
1264,0.000481,0.079034,0.021737
1265,0.019703,0.06229,0.003621
1266,0.019703,0.0288,-0.014495
1267,-0.01874,0.0288,0.021737
1268,0.000481,0.0288,-0.014495
1269,0.000481,-0.00469,-0.050727
1270,-0.01874,-0.021435,-0.050727
1271,0.000481,-0.021435,-0.032611
1272,0.000481,-0.021435,-0.032611
1273,0.000481,-0.038179,-0.050727
1274,0.000481,-0.038179,0.003621
1275,-0.01874,-0.021435,0.003621
1276,0.019703,-0.00469,0.039853
1277,0.000481,0.012055,0.003621
1278,0.019703,0.012055,0.003621
1279,0.019703,0.012055,0.039853
1280,0.000481,-0.021435,0.003621
1281,0.000481,-0.054924,0.003621
1282,0.000481,-0.021435,0.039853
1283,0.019703,-0.054924,0.076085
1284,0.000481,-0.021435,0.021737
1285,0.000481,-0.00469,0.021737
1286,0.000481,-0.021435,-0.014495
1287,0.019703,0.012055,-0.032611
1288,0.019703,0.0288,0.003621
1289,0.000481,0.0288,-0.032611
1290,-0.01874,0.012055,-0.014495
1291,0.000481,0.012055,0.003621
1292,-0.01874,-0.00469,0.057969
1293,-0.01874,-0.021435,0.039853
1294,0.000481,-0.021435,0.039853
1295,0.000481,0.012055,0.003621
1296,0.019703,-0.00469,0.003621
1297,0.000481,0.012055,0.003621
1298,0.019703,-0.00469,-0.032611
1299,0.000481,0.012055,-0.014495
1300,0.000481,-0.00469,0.039853
1301,0.019703,-0.00469,0.003621
1302,-0.01874,-0.071669,0.039853
1303,-0.01874,-0.071669,0.003621
1304,-0.037962,-0.071669,-0.014495
1305,-0.01874,-0.071669,-0.050727
1306,0.000481,-0.021435,-0.014495
1307,-0.01874,0.0288,-0.068843
1308,-0.01874,0.012055,0.021737
1309,-0.01874,0.0288,0.003621
1310,0.000481,0.012055,0.003621
1311,0.000481,0.0288,0.057969
1312,0.000481,0.06229,-0.014495
1313,0.000481,-0.00469,-0.014495
1314,-0.01874,-0.021435,-0.014495
1315,0.000481,-0.038179,-0.014495
1316,-0.037962,-0.021435,-0.050727
1317,0.000481,0.012055,-0.014495
1318,0.000481,0.012055,0.021737
1319,0.019703,0.045545,0.021737
1320,-0.01874,0.0288,0.076085
1321,-0.037962,0.06229,0.021737
1322,0.000481,0.0288,0.021737
1323,0.000481,0.0288,0.039853
1324,-0.01874,0.045545,0.003621
1325,0.000481,0.045545,0.021737
1326,0.000481,0.012055,0.039853
1327,0.000481,0.0288,0.021737
1328,-0.01874,0.0288,0.039853
1329,0.000481,0.012055,0.003621
1330,0.000481,-0.00469,-0.014495
1331,0.000481,-0.00469,-0.032611
1332,0.000481,0.0288,-0.014495
1333,-0.037962,-0.071669,-0.032611
1334,-0.01874,-0.121903,-0.014495
1335,-0.01874,-0.071669,0.021737
1336,-0.01874,-0.054924,0.003621
1337,-0.01874,-0.021435,0.021737
1338,-0.037962,-0.021435,0.003621
1339,0.000481,0.06229,-0.014495
1340,0.000481,0.095779,0.003621
1341,0.019703,0.079034,-0.014495
1342,0.000481,0.0288,-0.032611
1343,0.000481,0.012055,0.021737
1344,0.000481,0.0288,0.021737
1345,0.000481,0.0288,-0.014495
1346,0.019703,0.012055,0.076085
1347,0.038924,-0.00469,0.057969
1348,0.000481,-0.00469,0.003621
1349,0.019703,0.0288,0.003621
1350,0.019703,-0.00469,0.003621
1351,0.000481,-0.021435,-0.050727
1352,0.000481,-0.021435,-0.014495
1353,0.000481,-0.021435,0.021737
1354,0.019703,-0.021435,0.039853
1355,0.000481,-0.00469,0.039853
1356,-0.01874,-0.054924,-0.032611
1357,0.000481,0.012055,-0.068843
1358,0.019703,-0.021435,0.003621
1359,0.019703,-0.00469,-0.032611
1360,0.000481,-0.00469,0.003621
1361,-0.01874,0.012055,0.021737
1362,0.000481,-0.00469,-0.014495
1363,-0.01874,-0.021435,-0.014495
1364,0.000481,-0.00469,-0.014495
1365,0.000481,-0.021435,-0.014495
1366,0.000481,0.0288,-0.050727
1367,0.000481,-0.021435,-0.032611
1368,-0.01874,-0.00469,-0.032611
1369,0.000481,0.012055,0.021737
1370,0.000481,-0.038179,0.057969
1371,-0.01874,-0.038179,0.057969
1372,-0.01874,-0.071669,0.057969
1373,-0.01874,-0.054924,0.021737
1374,-0.01874,-0.021435,-0.050727
1375,-0.037962,-0.021435,-0.050727
1376,0.000481,0.0288,0.003621
1377,0.000481,0.0288,0.003621
1378,0.019703,0.079034,0.021737
1379,0.000481,0.06229,0.003621
1380,0.019703,0.0288,0.003621
1381,-0.01874,0.0288,0.039853
1382,0.000481,0.012055,0.021737
1383,0.000481,0.012055,-0.032611
1384,-0.01874,-0.021435,-0.014495
1385,0.000481,0.012055,-0.050727
1386,-0.037962,-0.00469,-0.050727
1387,-0.01874,-0.038179,-0.032611
1388,0.000481,-0.121903,0.021737
1389,0.019703,-0.105159,-0.014495
1390,0.000481,-0.088414,0.021737
1391,-0.01874,-0.021435,-0.014495
1392,-0.01874,-0.00469,0.003621
1393,-0.01874,0.0288,0.021737
1394,-0.01874,0.079034,0.003621
1395,0.019703,0.146014,0.057969
1396,0.019703,0.079034,0.057969
1397,0.019703,0.045545,0.039853
1398,-0.01874,0.0288,0.057969
1399,-0.01874,0.012055,0.039853
1400,0.000481,0.012055,0.003621
1401,-0.01874,-0.054924,0.003621
1402,0.000481,-0.071669,0.021737
1403,0.000481,-0.088414,-0.014495
1404,0.019703,-0.038179,0.021737
1405,-0.01874,0.012055,0.021737
1406,0.000481,0.0288,0.003621
1407,-0.037962,0.0288,0.003621
1408,0.000481,0.06229,0.021737
1409,0.000481,0.079034,0.003621
1410,0.000481,0.012055,-0.014495
1411,0.000481,-0.00469,-0.050727
1412,0.000481,0.012055,-0.050727
1413,0.019703,0.0288,0.003621
1414,0.000481,0.06229,0.021737
1415,0.038924,0.012055,0.021737
1416,-0.01874,-0.00469,0.057969
1417,0.000481,-0.021435,0.021737
1418,0.019703,-0.021435,-0.032611
1419,0.000481,-0.021435,-0.032611
1420,-0.01874,0.112524,-0.014495
1421,-0.01874,0.06229,-0.032611
1422,0.000481,0.0288,-0.050727
1423,0.019703,0.045545,0.057969
1424,0.019703,-0.00469,0.003621
1425,0.000481,0.012055,0.076085
1426,-0.01874,-0.00469,0.021737
1427,-0.01874,-0.021435,-0.014495
1428,0.038924,-0.00469,-0.014495
1429,-0.01874,-0.00469,-0.032611
1430,-0.01874,-0.00469,-0.014495
1431,0.000481,-0.021435,0.021737
1432,0.000481,-0.021435,0.021737
1433,0.000481,-0.00469,0.021737
1434,0.000481,-0.00469,0.021737
1435,-0.01874,0.012055,0.003621
1436,-0.01874,-0.00469,0.003621
1437,0.038924,-0.021435,0.003621
1438,0.000481,-0.038179,-0.032611
1439,-0.01874,-0.038179,-0.014495
1440,-0.01874,-0.021435,0.021737
1441,0.000481,-0.038179,0.039853
1442,0.000481,-0.021435,0.021737
1443,-0.01874,0.012055,0.003621
1444,-0.01874,-0.00469,0.003621
1445,-0.037962,0.012055,-0.068843
1446,0.000481,0.012055,-0.014495
1447,0.000481,0.045545,-0.014495
1448,0.000481,0.06229,0.039853
1449,0.000481,0.012055,0.039853
1450,0.000481,0.012055,0.003621
1451,0.019703,0.012055,0.003621
1452,0.000481,0.012055,0.021737
1453,0.000481,-0.00469,-0.032611
1454,-0.01874,0.012055,-0.050727
1455,0.000481,0.045545,-0.032611
1456,0.019703,0.012055,-0.050727
1457,-0.01874,0.012055,-0.014495
1458,0.000481,-0.00469,-0.014495
1459,0.000481,-0.021435,0.003621
1460,0.019703,-0.00469,0.021737
1461,-0.037962,-0.021435,0.021737
1462,0.000481,0.012055,0.003621
1463,0.019703,0.045545,-0.032611
1464,0.000481,-0.00469,-0.032611
1465,0.019703,0.012055,-0.032611
1466,0.019703,0.012055,0.003621
1467,-0.01874,0.0288,0.039853
1468,0.000481,-0.00469,-0.014495
1469,-0.01874,-0.038179,0.021737
1470,-0.037962,-0.054924,-0.032611
1471,-0.01874,-0.071669,-0.014495
1472,0.000481,-0.054924,-0.068843
1473,0.000481,-0.088414,-0.032611
1474,-0.01874,-0.105159,-0.014495
1475,-0.01874,-0.071669,0.003621
1476,-0.01874,-0.054924,0.021737
1477,-0.01874,0.012055,-0.014495
1478,0.019703,-0.00469,0.076085
1479,0.019703,0.0288,0.039853
1480,0.000481,0.045545,0.039853
1481,0.000481,-0.00469,0.021737
1482,0.000481,0.0288,-0.032611
1483,0.019703,0.06229,0.021737
1484,0.038924,0.045545,0.057969
1485,0.019703,0.045545,0.003621
1486,-0.01874,0.012055,0.039853
1487,-0.01874,-0.021435,0.039853
1488,0.000481,0.012055,0.003621
1489,0.019703,0.045545,-0.032611
1490,-0.01874,0.06229,-0.014495
1491,-0.01874,0.0288,-0.032611
1492,-0.01874,0.012055,0.021737
1493,0.019703,-0.021435,0.021737
1494,0.019703,-0.00469,0.003621
1495,0.019703,0.012055,0.039853
1496,-0.037962,-0.00469,0.039853
1497,-0.01874,0.012055,-0.014495
1498,-0.01874,0.012055,-0.032611
1499,0.000481,0.045545,0.003621
1500,0.019703,0.0288,-0.014495
1501,0.000481,0.012055,0.003621
1502,0.000481,0.012055,-0.014495
1503,-0.01874,0.012055,-0.032611
1504,0.000481,0.012055,0.039853
1505,0.019703,0.012055,0.039853
1506,-0.01874,0.012055,-0.032611
1507,-0.01874,0.012055,-0.014495
1508,-0.01874,-0.021435,-0.014495
1509,-0.01874,-0.021435,-0.032611
1510,0.000481,-0.021435,-0.014495
1511,0.038924,-0.021435,0.039853
1512,0.019703,-0.021435,-0.014495
1513,0.000481,-0.021435,0.021737
1514,0.000481,-0.038179,0.003621
1515,-0.037962,-0.038179,-0.050727
1516,0.000481,-0.021435,-0.032611
1517,0.000481,-0.021435,-0.014495
1518,0.019703,0.012055,-0.032611
1519,0.019703,0.012055,0.021737
1520,0.000481,0.012055,0.021737
1521,-0.01874,0.0288,0.003621
1522,-0.01874,-0.00469,0.003621
1523,-0.01874,-0.021435,-0.014495
1524,0.000481,-0.054924,-0.032611
1525,0.000481,-0.021435,0.003621
1526,0.000481,-0.021435,-0.032611
1527,0.000481,0.012055,0.003621
1528,-0.01874,0.0288,0.021737
1529,0.000481,0.079034,0.039853
1530,-0.01874,0.0288,0.003621
1531,-0.01874,0.012055,0.003621
1532,0.000481,0.0288,-0.014495
1533,0.019703,-0.00469,-0.032611
1534,0.000481,0.012055,0.021737
1535,0.000481,-0.00469,-0.032611
1536,0.000481,0.012055,0.039853
1537,0.038924,0.012055,0.003621
1538,0.000481,-0.00469,0.021737
1539,0.000481,-0.021435,0.057969
1540,-0.01874,-0.038179,0.021737
1541,-0.01874,-0.00469,0.057969
1542,0.000481,-0.00469,0.021737
1543,0.019703,0.012055,0.003621
1544,0.019703,-0.00469,0.021737
1545,0.000481,0.0288,0.021737
1546,0.000481,-0.00469,0.021737
1547,0.000481,-0.00469,-0.014495
1548,0.000481,-0.00469,0.003621
1549,0.019703,-0.021435,-0.032611
1550,0.000481,-0.021435,-0.050727
1551,0.019703,-0.021435,-0.032611
1552,0.019703,0.0288,0.021737
1553,0.000481,0.012055,-0.032611
1554,0.000481,0.012055,-0.014495
1555,0.019703,0.0288,0.039853
1556,0.000481,0.0288,0.003621
1557,-0.01874,0.012055,0.094201
1558,0.000481,-0.021435,0.039853
1559,0.000481,-0.038179,0.003621
1560,0.000481,-0.038179,0.003621
1561,0.000481,-0.021435,-0.014495
1562,0.000481,-0.00469,-0.050727
1563,0.000481,-0.00469,0.003621
1564,0.000481,-0.00469,-0.032611
1565,-0.037962,-0.021435,-0.068843
1566,-0.01874,-0.038179,-0.014495
1567,-0.01874,-0.021435,0.003621
1568,0.000481,-0.021435,-0.032611
1569,0.000481,0.012055,-0.032611
1570,0.000481,-0.00469,-0.014495
1571,0.019703,0.06229,-0.014495
1572,0.000481,0.095779,0.003621
1573,0.000481,0.079034,0.039853
1574,0.000481,0.045545,-0.014495
1575,0.000481,0.0288,0.057969
1576,0.000481,-0.021435,0.039853
1577,0.019703,-0.038179,-0.014495
1578,0.019703,-0.00469,-0.014495
1579,0.019703,-0.021435,-0.032611
1580,0.000481,-0.00469,-0.050727
1581,0.000481,0.012055,0.021737
1582,0.000481,0.012055,0.021737
1583,-0.01874,0.045545,0.021737
1584,0.000481,0.0288,0.057969
1585,0.000481,-0.00469,-0.014495
1586,0.019703,-0.00469,0.003621
1587,0.058146,0.012055,0.021737
1588,0.000481,0.012055,0.003621
1589,0.019703,0.012055,-0.014495
1590,-0.01874,-0.021435,-0.014495
1591,0.000481,-0.021435,-0.014495
1592,-0.01874,-0.00469,0.021737
1593,-0.037962,-0.021435,0.003621
1594,-0.037962,-0.021435,-0.032611
1595,-0.01874,-0.038179,-0.014495
1596,-0.037962,-0.038179,0.003621
1597,-0.037962,-0.038179,-0.032611
1598,-0.01874,-0.071669,0.021737
1599,0.000481,-0.021435,0.021737
1600,-0.01874,-0.00469,0.021737
1601,0.000481,-0.00469,0.039853
1602,0.019703,0.012055,0.021737
1603,0.000481,0.012055,-0.014495
1604,-0.037962,0.012055,-0.032611
1605,-0.01874,0.0288,-0.032611
1606,0.019703,0.0288,-0.032611
1607,0.019703,0.012055,0.021737
1608,0.019703,0.0288,0.039853
1609,0.019703,-0.021435,0.021737
1610,0.000481,-0.038179,0.057969
1611,0.000481,-0.021435,0.021737
1612,0.038924,-0.021435,0.003621
1613,0.000481,0.012055,-0.014495
1614,0.000481,-0.021435,-0.014495
1615,-0.037962,0.0288,-0.050727
1616,0.000481,0.012055,-0.050727
1617,0.000481,0.012055,-0.014495
1618,0.000481,0.0288,0.003621
1619,0.000481,-0.00469,0.003621
1620,-0.01874,-0.021435,-0.014495
1621,-0.01874,-0.00469,-0.014495
1622,0.000481,0.012055,-0.014495
1623,0.019703,0.012055,0.003621
1624,0.019703,-0.021435,0.039853
1625,0.000481,0.012055,0.021737
1626,0.000481,-0.00469,0.039853
1627,-0.01874,-0.00469,0.021737
1628,-0.01874,0.012055,0.076085
1629,-0.01874,-0.00469,0.003621
1630,-0.01874,0.0288,-0.014495
1631,0.000481,0.045545,-0.014495
1632,0.000481,0.0288,-0.014495
1633,0.000481,-0.021435,0.039853
1634,0.019703,-0.038179,0.057969
1635,0.000481,-0.021435,0.039853
1636,0.000481,-0.00469,0.057969
1637,0.019703,0.0288,0.021737
1638,0.000481,0.06229,-0.032611
1639,-0.037962,0.012055,-0.050727
1640,-0.037962,0.0288,-0.050727
1641,0.000481,-0.00469,-0.032611
1642,0.000481,-0.021435,0.003621
1643,0.019703,-0.038179,0.003621
1644,0.000481,-0.038179,0.039853
1645,-0.01874,-0.038179,0.057969
1646,0.019703,-0.021435,0.039853
1647,0.000481,-0.021435,0.003621
1648,0.000481,0.0288,-0.050727
1649,-0.01874,0.045545,-0.032611
1650,0.000481,0.012055,-0.050727
1651,0.000481,-0.021435,-0.014495
1652,0.000481,-0.071669,0.003621
1653,0.000481,-0.054924,-0.032611
1654,0.000481,-0.021435,0.003621
1655,0.019703,0.012055,0.021737
1656,0.000481,-0.00469,-0.032611
1657,-0.01874,0.0288,-0.032611
1658,0.000481,0.06229,0.021737
1659,-0.01874,0.095779,0.021737
1660,-0.01874,0.06229,0.021737
1661,0.000481,0.045545,0.057969
1662,0.019703,0.0288,0.057969
1663,0.019703,0.012055,0.021737
1664,0.000481,-0.021435,0.003621
1665,-0.01874,-0.00469,-0.014495
1666,0.000481,0.012055,-0.032611
1667,0.000481,0.045545,-0.032611
1668,-0.01874,0.012055,-0.050727
1669,-0.01874,-0.021435,-0.014495
1670,-0.01874,-0.00469,0.003621
1671,0.000481,-0.00469,0.021737
1672,0.019703,-0.038179,0.003621
1673,-0.01874,-0.054924,0.003621
1674,0.000481,-0.054924,-0.014495
1675,0.000481,-0.021435,0.003621
1676,0.000481,-0.00469,-0.050727
1677,0.000481,0.045545,-0.014495
1678,0.000481,0.045545,0.039853
1679,0.000481,0.045545,0.057969
1680,0.000481,0.045545,0.039853
1681,-0.037962,-0.00469,0.039853
1682,-0.01874,-0.038179,0.021737
1683,-0.01874,-0.054924,-0.032611
1684,-0.01874,-0.071669,0.021737
1685,0.000481,-0.038179,-0.014495
1686,0.000481,-0.038179,0.003621
1687,0.000481,-0.00469,0.021737
1688,-0.01874,0.0288,0.021737
1689,0.000481,0.079034,0.021737
1690,0.019703,0.06229,0.021737
1691,0.000481,0.045545,0.021737
1692,-0.01874,0.06229,-0.032611
1693,0.000481,0.06229,-0.032611
1694,0.019703,0.045545,-0.050727
1695,0.019703,0.0288,-0.014495
1696,0.019703,-0.00469,0.003621
1697,0.000481,-0.00469,0.021737
1698,-0.01874,-0.00469,0.039853
1699,-0.01874,-0.00469,0.003621
1700,0.000481,-0.00469,-0.032611
1701,0.000481,-0.021435,-0.068843
1702,-0.01874,-0.038179,-0.014495
1703,-0.037962,-0.00469,-0.032611
1704,-0.01874,-0.021435,0.003621
1705,0.000481,0.012055,0.003621
1706,0.000481,-0.00469,-0.032611
1707,0.019703,-0.00469,0.039853
1708,0.000481,-0.021435,0.003621
1709,-0.01874,-0.054924,0.003621
1710,-0.01874,-0.088414,0.039853
1711,-0.01874,-0.054924,0.039853
1712,0.000481,-0.038179,0.021737
1713,0.000481,-0.00469,0.057969
1714,0.000481,0.012055,0.039853
1715,0.019703,0.06229,0.021737
1716,0.000481,0.095779,0.003621
1717,0.019703,0.112524,0.003621
1718,0.000481,0.06229,-0.050727
1719,-0.01874,0.045545,-0.032611
1720,0.019703,0.0288,-0.032611
1721,-0.01874,-0.00469,0.003621
1722,0.000481,-0.00469,0.003621
1723,0.000481,-0.00469,0.039853
1724,0.000481,0.012055,0.003621
1725,-0.01874,-0.00469,0.021737
1726,-0.01874,0.0288,0.003621
1727,-0.01874,-0.00469,-0.014495
1728,0.000481,-0.00469,0.003621
1729,0.000481,-0.00469,-0.050727
1730,0.000481,0.012055,0.003621
1731,0.000481,-0.021435,-0.014495
1732,0.000481,-0.00469,0.003621
1733,0.000481,-0.021435,-0.014495
1734,-0.01874,-0.038179,0.021737
1735,-0.01874,-0.038179,0.003621
1736,-0.01874,-0.021435,0.003621
1737,-0.01874,-0.021435,0.021737
1738,0.000481,0.012055,-0.032611
1739,0.000481,0.0288,0.021737
1740,-0.01874,0.012055,0.021737
1741,0.000481,0.012055,0.039853
1742,0.000481,0.0288,0.057969
1743,0.000481,0.012055,0.021737
1744,-0.01874,-0.00469,0.003621
1745,0.000481,-0.021435,-0.032611
1746,0.000481,-0.00469,-0.014495
1747,0.000481,-0.00469,-0.068843
1748,0.000481,-0.038179,-0.014495
1749,-0.01874,0.0288,0.039853
1750,-0.01874,-0.00469,-0.032611
1751,0.000481,-0.00469,0.003621
1752,-0.01874,-0.021435,0.003621
1753,0.000481,-0.038179,-0.032611
1754,0.000481,-0.021435,-0.014495
1755,0.019703,-0.038179,0.039853
1756,0.000481,0.012055,0.003621
1757,0.000481,0.0288,0.021737
1758,0.000481,0.012055,0.039853
1759,0.000481,0.012055,0.021737
1760,0.000481,-0.021435,0.039853
1761,0.019703,0.012055,0.021737
1762,0.000481,-0.00469,-0.032611
1763,0.019703,-0.00469,0.003621
1764,-0.01874,-0.00469,-0.014495
1765,0.000481,-0.00469,-0.014495
1766,0.000481,-0.038179,-0.014495
1767,-0.01874,-0.021435,0.003621
1768,0.000481,-0.021435,-0.014495
1769,-0.01874,-0.00469,0.003621
1770,0.000481,-0.021435,0.003621
1771,0.019703,0.012055,-0.014495
1772,-0.01874,-0.054924,-0.014495
1773,-0.01874,-0.088414,-0.014495
1774,0.000481,-0.088414,-0.032611
1775,-0.01874,-0.105159,0.003621
1776,-0.01874,-0.021435,0.021737
1777,0.000481,-0.038179,0.003621
1778,0.000481,0.045545,0.003621
1779,0.000481,0.095779,-0.014495
1780,-0.037962,0.045545,-0.014495
1781,0.000481,0.0288,-0.032611
1782,0.000481,0.012055,0.003621
1783,0.000481,0.0288,0.003621
1784,0.000481,-0.00469,0.057969
1785,0.000481,0.045545,-0.014495
1786,0.000481,0.06229,0.039853
1787,0.019703,0.079034,0.039853
1788,0.000481,0.095779,0.003621
1789,0.000481,0.045545,-0.014495
1790,0.019703,0.012055,0.003621
1791,-0.01874,0.012055,-0.032611
1792,-0.037962,-0.021435,-0.032611
1793,-0.01874,-0.038179,0.021737
1794,-0.037962,-0.105159,0.021737
1795,-0.037962,-0.088414,0.039853
1796,-0.01874,-0.121903,0.021737
1797,0.019703,-0.088414,0.021737
1798,0.000481,-0.038179,-0.014495
1799,0.000481,0.012055,0.003621
1800,0.000481,0.079034,-0.032611
1801,0.000481,0.095779,-0.014495
1802,0.019703,0.112524,-0.032611
1803,0.019703,0.112524,-0.050727
1804,0.000481,0.095779,0.003621
1805,0.000481,0.045545,0.057969
1806,0.000481,0.0288,-0.014495
1807,-0.01874,0.045545,0.021737
1808,-0.01874,0.012055,-0.014495
1809,-0.01874,-0.021435,-0.032611
1810,0.000481,-0.00469,-0.014495
1811,0.000481,0.012055,0.039853
1812,0.019703,0.045545,-0.014495
1813,0.000481,-0.00469,0.039853
1814,-0.01874,0.045545,0.057969
1815,0.000481,0.0288,0.021737
1816,0.019703,0.0288,0.076085
1817,0.000481,0.045545,0.003621
1818,0.000481,0.0288,-0.014495
1819,-0.01874,-0.038179,0.003621
1820,0.019703,0.012055,0.021737
1821,0.019703,-0.038179,0.021737
1822,-0.01874,-0.038179,0.039853
1823,0.000481,-0.021435,0.057969
1824,-0.01874,-0.038179,0.003621
1825,-0.01874,-0.00469,0.021737
1826,-0.01874,-0.038179,0.003621
1827,0.000481,-0.021435,-0.032611
1828,0.000481,-0.00469,-0.032611
1829,0.038924,-0.00469,-0.032611
1830,-0.01874,0.0288,0.003621
1831,0.000481,-0.00469,0.021737
1832,-0.01874,-0.00469,0.003621
1833,-0.01874,0.012055,-0.032611
1834,0.000481,-0.00469,0.021737
1835,0.000481,-0.021435,-0.014495
1836,-0.01874,-0.00469,-0.014495
1837,0.000481,0.045545,0.021737
1838,0.000481,-0.021435,-0.032611
1839,-0.01874,0.012055,0.039853
1840,0.000481,-0.00469,0.039853
1841,0.019703,-0.038179,0.057969
1842,-0.01874,0.045545,0.021737
1843,0.000481,0.045545,0.021737
1844,0.019703,-0.00469,0.021737
1845,0.000481,-0.00469,-0.014495
1846,0.000481,-0.021435,0.021737
1847,0.000481,0.012055,-0.014495
1848,0.019703,0.0288,0.021737
1849,0.000481,0.0288,0.039853
1850,0.000481,-0.00469,-0.014495
1851,0.000481,-0.00469,0.039853
1852,-0.037962,-0.00469,0.003621
1853,-0.01874,-0.00469,-0.068843
1854,-0.01874,-0.038179,-0.086959
1855,-0.01874,0.012055,-0.014495
1856,-0.057183,-0.00469,-0.050727
1857,0.000481,-0.00469,-0.014495
1858,0.000481,-0.00469,0.021737
1859,0.000481,-0.00469,0.003621
1860,0.019703,-0.054924,0.039853
1861,0.000481,-0.038179,0.003621
1862,0.000481,-0.038179,-0.014495
1863,-0.01874,-0.021435,0.003621
1864,0.000481,-0.00469,0.039853
1865,0.000481,-0.00469,-0.032611
1866,0.000481,-0.021435,0.039853
1867,0.000481,-0.021435,0.021737
1868,-0.01874,0.0288,0.003621
1869,0.000481,0.045545,0.021737
1870,0.000481,0.0288,-0.032611
1871,-0.01874,0.045545,-0.014495
1872,-0.01874,-0.021435,-0.050727
1873,-0.01874,-0.038179,0.021737
1874,0.000481,-0.038179,-0.014495
1875,0.019703,-0.021435,0.021737
1876,0.000481,-0.038179,0.021737
1877,0.000481,-0.038179,0.021737
1878,-0.01874,-0.00469,0.057969
1879,-0.01874,-0.00469,0.039853
1880,0.000481,0.0288,-0.014495
1881,0.000481,0.0288,-0.068843
1882,-0.01874,0.06229,-0.050727
1883,0.019703,0.079034,-0.032611
1884,0.000481,0.06229,0.003621
1885,-0.01874,0.012055,0.039853
1886,0.019703,0.012055,0.003621
1887,0.000481,0.045545,0.021737
1888,-0.01874,0.012055,0.039853
1889,0.000481,-0.00469,0.003621
1890,0.000481,-0.00469,-0.014495
1891,0.000481,-0.054924,0.003621
1892,0.000481,-0.054924,-0.014495
1893,0.000481,-0.054924,0.057969
1894,0.000481,0.012055,0.057969
1895,0.019703,-0.021435,0.039853
1896,-0.01874,-0.00469,0.039853
1897,-0.01874,0.0288,0.021737
1898,-0.037962,0.0288,0.003621
1899,-0.037962,0.0288,0.003621
1900,-0.01874,-0.00469,-0.014495
1901,-0.01874,-0.00469,0.003621
1902,0.000481,-0.00469,0.039853
1903,0.019703,-0.021435,0.021737
1904,0.019703,-0.00469,0.003621
1905,0.000481,-0.00469,0.003621
1906,0.000481,0.0288,-0.032611
1907,-0.01874,0.012055,-0.050727
1908,0.000481,0.045545,0.021737
1909,-0.01874,0.0288,-0.014495
1910,-0.01874,0.012055,0.021737
1911,0.000481,0.0288,0.039853
1912,0.019703,-0.00469,0.021737
1913,0.000481,-0.021435,0.003621
1914,-0.01874,0.012055,0.039853
1915,0.019703,-0.038179,-0.014495
1916,0.000481,-0.021435,-0.032611
1917,0.019703,-0.00469,-0.014495
1918,0.019703,-0.00469,-0.032611
1919,0.019703,-0.021435,0.003621
1920,0.000481,0.0288,0.021737
1921,0.000481,0.0288,-0.032611
1922,-0.01874,-0.00469,0.057969
1923,-0.01874,-0.00469,0.003621
1924,-0.01874,-0.021435,-0.014495
1925,-0.01874,0.012055,-0.068843
1926,0.019703,-0.00469,-0.014495
1927,0.000481,-0.00469,-0.032611
1928,0.000481,-0.00469,0.021737
1929,-0.01874,0.012055,0.021737
1930,0.000481,-0.00469,-0.014495
1931,-0.01874,0.012055,0.021737
1932,0.000481,-0.00469,0.003621
1933,-0.01874,0.012055,0.003621
1934,0.000481,0.012055,-0.014495
1935,-0.037962,-0.021435,0.039853
1936,-0.01874,0.012055,0.021737
1937,0.000481,-0.038179,0.057969
1938,0.019703,-0.00469,0.039853
1939,0.038924,-0.00469,0.003621
1940,0.000481,-0.00469,0.039853
1941,0.019703,0.012055,0.021737
1942,-0.01874,0.012055,0.021737
1943,-0.01874,0.045545,-0.014495
1944,-0.037962,0.012055,-0.032611
1945,-0.037962,0.012055,-0.032611
1946,0.000481,0.012055,-0.014495
1947,0.000481,0.012055,0.021737
1948,0.000481,-0.00469,-0.014495
1949,-0.01874,-0.00469,-0.014495
1950,-0.01874,-0.021435,-0.014495
1951,-0.01874,-0.038179,-0.050727
1952,-0.01874,-0.038179,-0.014495
1953,0.000481,-0.021435,-0.050727
1954,0.000481,-0.038179,0.003621
1955,0.000481,-0.021435,0.039853
1956,0.019703,-0.021435,0.003621
1957,0.019703,0.012055,0.039853
1958,-0.01874,0.0288,0.039853
1959,-0.01874,0.045545,0.003621
1960,0.000481,0.045545,-0.032611
1961,0.000481,0.0288,0.057969
1962,0.019703,0.045545,0.003621
1963,-0.01874,-0.00469,0.003621
1964,-0.01874,-0.054924,0.021737
1965,-0.01874,-0.071669,0.039853
1966,0.000481,-0.088414,0.039853
1967,0.000481,-0.071669,0.003621
1968,0.019703,-0.088414,0.003621
1969,-0.01874,-0.054924,-0.050727
1970,0.000481,0.012055,0.003621
1971,-0.01874,0.079034,-0.050727
1972,-0.01874,0.146014,0.003621
1973,0.000481,0.095779,0.039853
1974,0.000481,0.079034,-0.032611
1975,0.019703,0.06229,0.003621
1976,-0.01874,0.0288,-0.014495
1977,0.000481,0.012055,-0.050727
1978,-0.01874,0.012055,-0.050727
1979,-0.01874,-0.00469,-0.032611
1980,0.000481,0.012055,-0.032611
1981,0.000481,0.012055,-0.032611
1982,0.000481,0.0288,0.039853
1983,0.000481,-0.021435,0.003621
1984,0.000481,0.012055,0.021737
1985,-0.01874,-0.00469,-0.014495
1986,-0.01874,-0.00469,0.003621
1987,-0.01874,-0.00469,0.021737
1988,0.000481,0.0288,0.021737
1989,-0.01874,-0.021435,0.021737
1990,-0.01874,-0.021435,0.021737
1991,0.000481,-0.00469,0.021737
1992,0.019703,-0.00469,0.039853
1993,-0.01874,-0.00469,0.039853
1994,0.000481,-0.00469,0.003621
1995,-0.01874,-0.021435,-0.050727
1996,-0.01874,-0.00469,0.003621
1997,0.000481,-0.021435,-0.014495
1998,-0.01874,-0.021435,0.003621
1999,-0.01874,-0.054924,0.003621
2000,-0.01874,-0.071669,0.003621
2001,-0.01874,-0.021435,-0.014495
2002,0.000481,0.012055,0.021737
2003,-0.01874,0.045545,0.003621
2004,-0.01874,0.045545,-0.014495
2005,0.000481,0.045545,0.021737
2006,0.019703,-0.00469,0.003621
2007,0.019703,-0.021435,0.021737
2008,-0.01874,-0.021435,0.021737
2009,-0.037962,-0.021435,0.021737
2010,-0.037962,-0.00469,0.039853
2011,-0.01874,0.012055,-0.014495
2012,0.000481,-0.00469,0.003621
2013,0.019703,0.0288,-0.032611
2014,0.000481,0.012055,-0.032611
2015,0.000481,-0.00469,-0.050727
2016,0.000481,-0.021435,0.003621
2017,0.019703,-0.021435,0.021737
2018,0.000481,0.0288,0.021737
2019,0.000481,-0.038179,-0.014495
2020,0.019703,-0.021435,-0.014495
2021,-0.01874,0.012055,-0.014495
2022,0.000481,0.0288,-0.068843
2023,0.000481,0.0288,-0.014495
2024,0.000481,-0.00469,-0.032611
2025,0.000481,-0.00469,0.021737
2026,0.000481,-0.00469,0.003621
2027,0.000481,0.012055,0.021737
2028,-0.01874,-0.021435,0.039853
2029,0.000481,-0.021435,0.021737
2030,-0.01874,-0.021435,0.003621
2031,0.019703,-0.00469,-0.014495
2032,-0.01874,-0.00469,-0.032611
2033,-0.01874,-0.00469,0.003621
2034,0.000481,-0.00469,0.003621
2035,0.019703,-0.00469,0.039853
2036,0.000481,0.012055,0.021737
2037,0.000481,0.012055,0.057969
2038,-0.037962,-0.00469,-0.032611
2039,-0.037962,-0.00469,-0.032611
2040,-0.01874,-0.021435,-0.032611
2041,0.000481,-0.021435,-0.032611
2042,0.000481,-0.00469,-0.032611
2043,0.019703,0.012055,0.021737
2044,0.000481,0.012055,0.021737
2045,-0.01874,0.0288,-0.014495
2046,-0.01874,-0.021435,0.021737
2047,0.000481,-0.00469,-0.014495
2048,0.000481,0.012055,0.003621
2049,0.000481,0.012055,-0.014495
2050,0.000481,-0.038179,-0.032611
2051,0.000481,-0.021435,0.003621
2052,0.019703,-0.00469,0.021737
2053,-0.057183,-0.038179,0.021737
2054,0.000481,-0.054924,0.021737
2055,-0.01874,-0.038179,0.003621
2056,0.000481,-0.00469,-0.032611
2057,0.000481,-0.00469,-0.032611
2058,-0.01874,-0.038179,-0.032611
2059,-0.01874,-0.00469,-0.050727
2060,0.000481,0.012055,0.021737
2061,0.000481,0.012055,0.021737
2062,0.000481,0.045545,0.039853
2063,0.000481,0.045545,0.057969
2064,-0.01874,0.06229,0.039853
2065,0.000481,0.095779,0.039853
2066,0.000481,0.079034,-0.014495
2067,-0.01874,0.079034,0.021737
2068,0.000481,0.0288,-0.014495
2069,-0.01874,0.0288,-0.014495
2070,-0.01874,-0.071669,0.003621
2071,-0.01874,-0.038179,0.021737
2072,-0.01874,-0.021435,0.003621
2073,0.000481,-0.021435,-0.014495
2074,0.000481,0.012055,-0.014495
2075,-0.01874,0.045545,-0.032611
2076,0.000481,0.045545,-0.014495
2077,0.000481,0.045545,-0.032611
2078,0.000481,0.045545,0.003621
2079,0.000481,0.012055,0.039853
2080,0.000481,-0.00469,-0.014495
2081,-0.01874,-0.00469,0.021737
2082,0.000481,-0.021435,-0.014495
2083,-0.01874,0.012055,-0.032611
2084,-0.01874,-0.021435,-0.032611
2085,0.000481,-0.00469,-0.014495
2086,-0.037962,-0.021435,-0.050727
2087,-0.01874,-0.021435,-0.014495
2088,-0.01874,-0.00469,0.021737
2089,0.000481,-0.00469,-0.014495
2090,0.000481,-0.021435,0.003621
2091,0.000481,-0.00469,0.021737
2092,0.019703,0.012055,-0.050727
2093,0.000481,-0.00469,0.003621
2094,-0.037962,0.012055,-0.032611
2095,-0.01874,-0.00469,-0.014495
2096,0.000481,-0.00469,0.003621
2097,-0.01874,0.012055,0.076085
2098,0.000481,0.012055,0.039853
2099,0.000481,0.012055,0.057969
2100,0.019703,0.0288,0.003621
2101,0.000481,-0.00469,0.003621
2102,0.000481,-0.00469,-0.014495
2103,0.000481,0.012055,0.003621
2104,0.000481,-0.00469,-0.014495
2105,0.000481,-0.021435,-0.014495
2106,0.000481,-0.021435,0.039853
2107,-0.01874,-0.00469,0.003621
2108,-0.01874,-0.00469,0.039853
2109,-0.01874,0.012055,-0.014495
2110,0.000481,-0.00469,-0.014495
2111,0.000481,-0.021435,0.003621
2112,-0.01874,0.012055,-0.032611
2113,0.000481,-0.021435,-0.014495
2114,0.000481,-0.00469,-0.032611
2115,0.019703,-0.00469,-0.014495
2116,-0.01874,-0.021435,-0.014495
2117,-0.01874,-0.00469,0.021737
2118,0.000481,-0.00469,0.003621
2119,0.000481,0.012055,-0.014495
2120,0.000481,-0.00469,-0.014495
2121,-0.01874,-0.00469,-0.032611
2122,0.000481,-0.021435,0.021737
2123,0.000481,-0.00469,0.021737
2124,0.000481,-0.021435,0.003621
2125,-0.01874,-0.00469,0.021737
2126,-0.01874,0.012055,0.021737
2127,0.000481,0.012055,-0.014495
2128,0.000481,-0.00469,-0.014495
2129,-0.01874,-0.00469,-0.032611
2130,-0.01874,-0.021435,-0.068843
2131,-0.01874,-0.038179,-0.032611
2132,-0.01874,-0.038179,0.021737
2133,0.000481,-0.021435,0.003621
2134,0.000481,-0.021435,0.021737
2135,0.019703,-0.00469,0.021737
2136,0.019703,-0.038179,0.021737
2137,0.000481,-0.021435,0.076085
2138,-0.037962,-0.021435,0.057969
2139,0.000481,0.012055,0.003621
2140,0.000481,0.012055,0.003621
2141,-0.01874,0.012055,0.003621
2142,0.000481,0.0288,-0.032611
2143,0.000481,0.045545,0.021737
2144,0.000481,0.045545,0.021737
2145,0.000481,-0.021435,0.003621
2146,0.000481,-0.00469,0.003621
2147,0.000481,0.012055,0.003621
2148,0.019703,-0.00469,-0.068843
2149,0.019703,-0.00469,0.021737
2150,0.000481,-0.038179,0.021737
2151,-0.01874,-0.021435,-0.014495
2152,-0.01874,0.012055,0.021737
2153,0.000481,0.012055,0.039853
2154,-0.01874,0.0288,0.003621
2155,0.019703,0.045545,0.003621
2156,-0.01874,0.06229,0.003621
2157,0.019703,0.0288,0.003621
2158,0.000481,-0.021435,0.003621
2159,0.019703,0.012055,0.021737
2160,0.000481,-0.00469,0.003621
2161,0.019703,0.012055,0.021737
2162,0.000481,0.012055,-0.014495
2163,0.000481,0.012055,-0.032611
2164,-0.01874,0.06229,-0.014495
2165,-0.01874,0.0288,-0.032611
2166,0.000481,0.012055,-0.050727
2167,-0.01874,-0.00469,0.003621
2168,0.000481,-0.00469,-0.032611
2169,-0.037962,0.012055,0.021737
2170,0.019703,-0.00469,0.021737
2171,0.000481,-0.021435,-0.014495
2172,0.019703,-0.021435,-0.032611
2173,0.000481,-0.00469,0.003621
2174,0.000481,-0.00469,-0.050727
2175,-0.01874,-0.021435,0.021737
2176,0.000481,-0.00469,0.039853
2177,-0.01874,-0.021435,0.003621
2178,0.000481,-0.00469,0.021737
2179,0.000481,0.0288,0.039853
2180,0.019703,-0.00469,0.021737
2181,-0.01874,-0.00469,0.021737
2182,0.000481,-0.021435,-0.014495
2183,0.000481,-0.00469,-0.032611
2184,-0.01874,0.012055,0.021737
2185,-0.01874,0.012055,0.021737
2186,-0.01874,-0.021435,-0.032611
2187,-0.01874,0.012055,0.003621
2188,0.000481,-0.00469,0.039853
2189,0.000481,-0.00469,-0.032611
2190,-0.01874,-0.00469,0.039853
2191,0.000481,0.0288,-0.014495
2192,0.000481,-0.00469,-0.014495
2193,0.000481,-0.038179,-0.014495
2194,0.019703,0.012055,0.021737
2195,0.000481,-0.00469,0.003621
2196,0.000481,-0.00469,0.021737
2197,-0.01874,0.012055,0.003621
2198,0.000481,0.012055,-0.032611
2199,0.000481,-0.021435,0.003621
2200,0.000481,-0.00469,0.003621
2201,0.000481,-0.00469,-0.014495
2202,0.000481,0.012055,0.003621
2203,0.000481,-0.021435,-0.050727
2204,0.000481,-0.038179,-0.014495
2205,0.000481,-0.00469,0.003621
2206,-0.01874,0.012055,0.039853
2207,0.019703,-0.00469,0.021737
2208,0.000481,-0.021435,0.076085
2209,0.000481,0.012055,0.021737
2210,0.019703,0.0288,-0.032611
2211,0.019703,0.012055,0.003621
2212,0.000481,0.012055,-0.014495
2213,-0.01874,0.0288,0.021737
2214,-0.01874,0.012055,0.057969
2215,-0.01874,-0.00469,0.039853
2216,0.000481,0.012055,-0.014495
2217,0.000481,0.012055,0.039853
2218,0.000481,0.0288,0.021737
2219,0.000481,0.012055,0.021737
2220,-0.01874,-0.00469,0.039853
2221,0.000481,0.045545,-0.032611
2222,-0.01874,-0.021435,0.003621
2223,-0.01874,-0.021435,0.021737
2224,-0.01874,-0.00469,-0.032611
2225,0.000481,-0.00469,-0.032611
2226,-0.01874,-0.038179,-0.014495
2227,0.000481,-0.00469,-0.050727
2228,-0.01874,-0.038179,-0.068843
2229,-0.01874,-0.054924,-0.032611
2230,-0.01874,-0.071669,-0.050727
2231,0.019703,-0.071669,0.003621
2232,-0.037962,-0.054924,0.021737
2233,0.000481,0.012055,-0.014495
2234,0.019703,0.0288,0.003621
2235,-0.01874,0.012055,-0.014495
2236,-0.037962,0.0288,-0.032611
2237,0.000481,0.0288,0.003621
2238,0.038924,0.012055,0.039853
2239,0.000481,0.012055,0.094201
2240,-0.01874,0.0288,0.021737
2241,0.038924,0.045545,0.039853
2242,-0.01874,0.045545,0.003621
2243,0.000481,0.079034,0.039853
2244,0.019703,0.012055,0.021737
2245,0.000481,-0.00469,0.003621
2246,-0.01874,0.0288,0.021737
2247,-0.01874,-0.00469,-0.014495
2248,0.019703,0.0288,-0.032611
2249,0.000481,0.045545,0.021737
2250,-0.01874,-0.00469,0.039853
2251,-0.01874,0.012055,-0.014495
2252,0.019703,-0.00469,0.039853
2253,0.000481,0.012055,-0.014495
2254,-0.01874,-0.021435,-0.032611
2255,-0.01874,0.0288,-0.014495
2256,0.000481,-0.054924,-0.032611
2257,0.019703,0.012055,-0.014495
2258,0.019703,0.0288,0.039853
2259,-0.01874,0.012055,0.039853
2260,0.000481,0.012055,-0.014495
2261,0.000481,0.012055,0.039853
2262,-0.01874,-0.00469,-0.014495
2263,-0.01874,-0.00469,-0.050727
2264,0.000481,-0.00469,-0.014495
2265,-0.01874,-0.021435,-0.050727
2266,0.000481,-0.038179,-0.032611
2267,-0.01874,-0.00469,0.021737
2268,-0.01874,0.045545,0.021737
2269,0.000481,-0.00469,0.003621
2270,0.000481,0.012055,0.021737
2271,0.019703,0.0288,-0.014495
2272,0.000481,0.045545,-0.014495
2273,-0.01874,0.012055,-0.032611
2274,-0.01874,0.0288,-0.050727
2275,-0.01874,-0.021435,0.021737
2276,-0.01874,-0.021435,0.021737
2277,-0.01874,-0.021435,-0.032611
2278,0.000481,-0.021435,0.021737
2279,-0.01874,-0.00469,0.003621
2280,-0.01874,-0.038179,-0.014495
2281,0.000481,-0.021435,-0.014495
2282,-0.037962,-0.038179,0.021737
2283,-0.01874,-0.021435,0.003621
2284,0.000481,-0.00469,0.039853
2285,0.000481,0.0288,0.039853
2286,0.019703,0.012055,0.003621
2287,0.000481,-0.021435,0.003621
2288,-0.01874,-0.038179,-0.032611
2289,0.000481,-0.038179,-0.014495
2290,0.019703,0.012055,-0.032611
2291,0.019703,-0.00469,0.021737
2292,0.038924,-0.00469,-0.014495
2293,0.019703,0.012055,0.003621
2294,0.038924,-0.00469,0.039853
2295,0.000481,0.06229,-0.014495
2296,-0.01874,0.079034,0.039853
2297,0.000481,0.045545,-0.014495
2298,-0.037962,0.045545,-0.050727
2299,0.000481,0.0288,-0.032611
2300,0.038924,0.0288,0.003621
2301,0.019703,0.012055,0.021737
2302,-0.01874,0.045545,0.021737
2303,0.000481,0.012055,0.021737
2304,-0.037962,0.012055,0.021737
2305,0.000481,0.012055,0.003621
2306,-0.01874,-0.021435,0.021737
2307,-0.01874,-0.021435,-0.032611
2308,0.000481,-0.00469,-0.014495
2309,0.019703,-0.00469,-0.032611
2310,0.000481,-0.00469,-0.014495
2311,-0.01874,-0.038179,0.039853
2312,0.000481,-0.021435,0.021737
2313,-0.01874,-0.038179,0.039853
2314,0.000481,0.012055,0.003621
2315,0.019703,0.012055,0.003621
2316,0.000481,0.012055,-0.050727
2317,0.019703,-0.00469,-0.014495
2318,0.019703,-0.021435,-0.050727
2319,0.000481,-0.00469,0.003621
2320,0.000481,0.012055,0.021737
2321,0.000481,-0.00469,-0.014495
2322,-0.01874,-0.00469,0.003621
2323,-0.037962,0.012055,0.057969
2324,0.000481,-0.00469,-0.014495
2325,0.000481,0.012055,-0.032611
2326,-0.01874,-0.021435,0.039853
2327,0.019703,0.045545,-0.032611
2328,0.000481,-0.00469,-0.014495
2329,0.019703,-0.00469,0.039853
2330,0.038924,-0.00469,0.003621
2331,0.000481,0.012055,0.039853
2332,-0.01874,0.012055,-0.014495
2333,-0.01874,0.012055,-0.050727
2334,-0.037962,-0.00469,-0.014495
2335,0.000481,-0.00469,-0.032611
2336,0.000481,-0.00469,-0.032611
2337,-0.01874,0.012055,0.039853
2338,0.038924,0.012055,0.003621
2339,0.000481,0.0288,0.003621
2340,0.019703,-0.00469,0.039853
2341,0.019703,-0.00469,0.003621
2342,0.000481,0.012055,-0.050727
2343,0.000481,-0.00469,0.003621
2344,-0.037962,-0.00469,-0.014495
2345,0.000481,0.012055,-0.014495
2346,-0.01874,0.012055,-0.014495
2347,-0.01874,-0.00469,0.021737
2348,0.019703,-0.00469,0.057969
2349,0.019703,0.0288,0.076085
2350,0.019703,0.012055,-0.014495
2351,0.000481,0.012055,-0.032611
2352,0.000481,0.012055,0.003621
2353,-0.037962,0.0288,0.021737
2354,0.000481,-0.00469,0.057969
2355,0.000481,-0.00469,0.094201
2356,-0.01874,-0.021435,-0.014495
2357,0.019703,-0.00469,0.003621
2358,0.000481,-0.021435,-0.032611
2359,-0.01874,-0.038179,-0.086959
2360,0.000481,-0.021435,-0.086959
2361,-0.01874,-0.021435,-0.050727
2362,-0.01874,-0.021435,-0.050727
2363,-0.037962,-0.021435,0.003621
2364,0.000481,-0.00469,0.057969
2365,0.000481,0.045545,-0.014495
2366,-0.01874,0.06229,0.057969
2367,0.019703,0.045545,0.021737
2368,0.000481,0.012055,0.003621
2369,0.000481,0.0288,-0.014495
2370,-0.01874,0.0288,0.003621
2371,0.019703,0.045545,0.021737
2372,0.019703,0.012055,0.021737
2373,0.000481,0.012055,0.057969
2374,0.000481,-0.00469,0.076085
2375,0.000481,-0.00469,0.094201
2376,0.000481,0.012055,0.021737
2377,-0.01874,-0.021435,0.039853
2378,-0.01874,-0.00469,0.021737
2379,-0.01874,-0.00469,-0.068843
2380,-0.01874,-0.021435,-0.086959
2381,0.000481,-0.021435,-0.050727
2382,-0.037962,-0.00469,-0.014495
2383,0.000481,0.012055,-0.032611
2384,0.000481,0.012055,-0.014495
2385,0.000481,-0.00469,-0.014495
2386,0.000481,-0.00469,-0.032611
2387,-0.01874,-0.00469,0.003621
2388,0.000481,-0.021435,-0.032611
2389,-0.01874,-0.038179,-0.014495
2390,-0.01874,-0.021435,0.021737
2391,0.000481,-0.021435,0.003621
2392,-0.01874,0.012055,0.003621
2393,0.000481,0.012055,0.039853
2394,0.000481,0.0288,0.021737
2395,0.000481,0.0288,-0.050727
2396,0.000481,0.012055,0.003621
2397,0.000481,0.012055,-0.032611
2398,-0.01874,-0.021435,-0.014495
2399,-0.01874,-0.021435,0.021737
2400,-0.01874,-0.00469,-0.014495
2401,0.019703,-0.038179,-0.032611
2402,0.000481,-0.088414,0.021737
2403,0.000481,-0.138648,-0.050727
2404,-0.01874,-0.121903,-0.032611
2405,-0.01874,-0.088414,0.021737
2406,-0.01874,-0.038179,-0.014495
2407,0.000481,-0.038179,0.003621
2408,-0.01874,0.012055,0.003621
2409,0.000481,0.095779,0.003621
2410,0.019703,0.162759,0.039853
2411,0.019703,0.179503,0.021737
2412,0.038924,0.112524,-0.032611
2413,0.019703,0.079034,-0.086959
2414,0.000481,0.045545,-0.014495
2415,0.019703,0.045545,-0.032611
2416,0.019703,0.045545,0.003621
2417,0.000481,0.0288,0.057969
2418,0.000481,0.012055,0.021737
2419,0.000481,-0.00469,0.039853
2420,0.000481,-0.021435,0.057969
2421,-0.01874,-0.00469,0.021737
2422,-0.01874,0.012055,-0.014495
2423,-0.01874,0.012055,0.003621
2424,-0.01874,-0.00469,-0.032611
2425,0.019703,-0.00469,0.021737
2426,0.000481,-0.00469,0.057969
2427,0.019703,0.012055,0.003621
2428,0.019703,0.012055,0.039853
2429,0.000481,-0.00469,0.021737
2430,0.000481,-0.00469,0.003621
2431,0.000481,-0.021435,-0.014495
2432,0.000481,-0.038179,-0.032611
2433,0.000481,-0.038179,-0.032611
2434,-0.01874,-0.038179,0.021737
2435,0.000481,-0.038179,0.057969
2436,0.000481,0.012055,0.003621
2437,-0.01874,0.012055,0.021737
2438,-0.01874,0.012055,0.003621
2439,-0.01874,0.0288,-0.050727
2440,0.000481,0.012055,-0.032611
2441,0.000481,-0.00469,-0.050727
2442,0.000481,-0.021435,-0.014495
2443,-0.01874,-0.00469,-0.014495
2444,0.000481,-0.00469,0.021737
2445,0.000481,-0.00469,0.021737
2446,0.000481,0.012055,0.021737
2447,0.019703,0.012055,0.057969
2448,0.000481,-0.00469,0.039853
2449,0.000481,0.0288,0.094201
2450,0.019703,0.012055,0.057969
2451,0.000481,0.012055,0.057969
2452,-0.01874,-0.021435,0.039853
2453,0.000481,-0.021435,0.021737
2454,0.000481,-0.00469,0.039853
2455,0.000481,-0.00469,0.021737
2456,-0.01874,-0.00469,-0.032611
2457,-0.01874,-0.00469,-0.068843
2458,-0.01874,-0.021435,-0.050727
2459,-0.037962,-0.00469,-0.032611
2460,-0.037962,-0.00469,-0.014495
2461,-0.01874,-0.00469,0.021737
2462,0.000481,-0.021435,0.003621
2463,0.000481,-0.00469,0.003621
2464,0.000481,-0.021435,0.021737
2465,0.000481,-0.021435,-0.032611
2466,-0.01874,-0.021435,-0.050727
2467,0.000481,-0.00469,0.003621
2468,-0.01874,-0.00469,-0.014495
2469,-0.01874,-0.021435,0.021737
2470,-0.01874,-0.021435,0.021737
2471,-0.01874,-0.021435,0.003621
2472,-0.01874,-0.038179,0.057969
2473,0.000481,-0.038179,-0.014495
2474,0.000481,-0.088414,-0.014495
2475,-0.037962,-0.155393,-0.032611
2476,0.000481,-0.121903,-0.014495
2477,0.000481,-0.054924,-0.050727
2478,0.000481,-0.021435,0.003621
2479,0.000481,0.045545,0.003621
2480,-0.01874,0.095779,0.021737
2481,-0.037962,0.129269,0.021737
2482,-0.01874,0.179503,0.003621
2483,0.019703,0.179503,0.021737
2484,0.038924,0.112524,-0.014495
2485,0.038924,0.045545,-0.014495
2486,0.019703,0.0288,-0.014495
2487,0.000481,-0.021435,0.003621
2488,-0.01874,0.0288,0.003621
2489,-0.01874,-0.00469,-0.014495
2490,-0.01874,0.012055,0.003621
2491,0.000481,-0.00469,-0.014495
2492,0.000481,-0.00469,-0.014495
2493,0.019703,-0.021435,-0.014495
2494,0.000481,0.0288,-0.014495
2495,0.000481,-0.00469,-0.050727
2496,-0.01874,-0.00469,0.021737
2497,0.000481,-0.00469,0.039853
2498,0.000481,0.012055,0.003621
2499,-0.01874,-0.021435,0.021737
2500,0.000481,0.012055,-0.014495
2501,0.000481,-0.00469,-0.032611
2502,0.000481,-0.038179,-0.014495
2503,0.000481,-0.00469,-0.050727
2504,-0.01874,-0.054924,-0.032611
2505,0.000481,-0.054924,0.003621
2506,-0.01874,-0.00469,0.021737
2507,-0.01874,-0.038179,-0.014495
2508,0.000481,-0.00469,0.039853
2509,-0.01874,0.012055,0.021737
2510,0.000481,0.0288,-0.032611
2511,0.000481,0.0288,0.003621
2512,-0.01874,0.079034,0.021737
2513,0.000481,0.06229,0.003621
2514,0.000481,0.012055,0.003621
2515,0.000481,0.0288,0.021737
2516,0.000481,0.012055,0.021737
2517,0.000481,0.012055,0.003621
2518,-0.01874,0.0288,-0.014495
2519,-0.01874,0.012055,-0.032611
2520,-0.01874,-0.00469,-0.014495
2521,0.000481,0.012055,-0.014495
2522,0.019703,-0.00469,-0.014495
2523,0.000481,-0.021435,0.021737
2524,0.000481,-0.00469,0.021737
2525,0.019703,-0.021435,-0.014495
2526,0.000481,-0.021435,-0.014495
2527,-0.01874,-0.021435,-0.014495
2528,0.000481,0.012055,-0.050727
2529,-0.01874,-0.021435,-0.014495
2530,0.000481,-0.00469,-0.014495
2531,0.000481,-0.00469,0.021737
2532,-0.01874,-0.00469,0.057969
2533,-0.01874,0.045545,0.039853
2534,0.000481,0.045545,0.057969
2535,0.000481,-0.00469,0.021737
2536,-0.01874,0.012055,-0.014495
2537,-0.01874,0.012055,-0.068843
2538,0.000481,0.0288,-0.032611
2539,-0.037962,-0.021435,-0.068843
2540,0.000481,-0.00469,-0.014495
2541,0.000481,0.012055,0.021737
2542,-0.01874,0.012055,0.003621
2543,-0.01874,0.012055,0.057969
2544,0.019703,-0.00469,0.039853
2545,0.000481,-0.00469,-0.014495
2546,-0.01874,0.012055,-0.050727
2547,-0.01874,0.045545,-0.014495
2548,-0.01874,-0.00469,-0.032611
2549,0.000481,-0.00469,0.003621
2550,0.000481,-0.00469,0.021737
2551,0.000481,-0.00469,-0.014495
2552,0.000481,-0.00469,0.021737
2553,-0.01874,-0.021435,-0.032611
2554,0.000481,0.012055,0.021737
2555,0.000481,0.012055,0.039853
2556,0.019703,-0.00469,0.003621
2557,0.000481,0.012055,-0.050727
2558,0.000481,0.012055,0.039853
2559,-0.01874,-0.021435,0.021737
2560,0.000481,-0.00469,0.039853
2561,-0.01874,-0.00469,0.057969
2562,-0.01874,-0.00469,0.021737
2563,0.000481,-0.00469,-0.014495
2564,0.000481,-0.00469,0.021737
2565,0.000481,-0.038179,0.003621
2566,0.000481,-0.021435,-0.014495
2567,0.019703,-0.00469,-0.014495
2568,0.000481,-0.00469,-0.014495
2569,0.000481,-0.021435,0.039853
2570,0.000481,0.0288,0.057969
2571,0.000481,0.012055,-0.014495
2572,0.000481,0.012055,-0.068843
2573,-0.01874,0.012055,0.003621
2574,0.000481,0.012055,-0.032611
2575,0.019703,0.012055,0.039853
2576,0.000481,-0.00469,0.039853
2577,0.000481,0.012055,0.003621
2578,-0.01874,-0.00469,0.039853
2579,0.000481,0.012055,-0.014495
2580,-0.01874,0.0288,-0.014495
2581,0.000481,0.012055,-0.032611
2582,0.000481,0.012055,-0.032611
2583,0.000481,0.012055,-0.050727
2584,0.000481,-0.00469,-0.014495
2585,0.000481,0.012055,0.003621
2586,-0.01874,-0.00469,-0.014495
2587,-0.01874,0.012055,0.003621
2588,-0.01874,0.012055,-0.014495
2589,-0.01874,-0.038179,-0.032611
2590,0.000481,-0.038179,-0.032611
2591,-0.01874,-0.00469,0.003621
2592,0.000481,-0.00469,-0.032611
2593,0.000481,0.012055,0.021737
2594,-0.037962,-0.00469,0.039853
2595,-0.01874,-0.00469,-0.014495
2596,0.000481,-0.00469,-0.014495
2597,0.000481,0.0288,0.021737
2598,0.019703,0.045545,0.003621
2599,-0.01874,0.0288,0.039853
2600,-0.01874,0.0288,0.039853
2601,0.000481,0.0288,0.057969
2602,0.000481,-0.021435,0.003621
2603,-0.01874,-0.00469,0.057969
2604,0.000481,0.012055,0.039853
2605,0.000481,-0.00469,0.057969
2606,0.000481,-0.00469,-0.014495
2607,0.000481,0.0288,0.003621
2608,0.000481,-0.021435,0.021737
2609,0.019703,-0.00469,-0.032611
2610,-0.01874,-0.00469,0.003621
2611,0.000481,-0.021435,0.003621
2612,0.019703,-0.00469,0.039853
2613,0.000481,-0.038179,-0.014495
2614,0.000481,-0.021435,0.021737
2615,0.000481,-0.00469,0.003621
2616,0.000481,-0.00469,-0.050727
2617,-0.01874,0.012055,-0.032611
2618,-0.01874,-0.00469,-0.032611
2619,-0.01874,-0.00469,0.003621
2620,-0.01874,0.045545,-0.014495
2621,-0.01874,-0.00469,0.003621
2622,0.000481,0.012055,0.003621
2623,-0.01874,-0.00469,0.003621
2624,-0.01874,0.012055,-0.032611
2625,-0.01874,-0.021435,-0.014495
2626,0.000481,-0.00469,-0.032611
2627,0.000481,-0.00469,-0.014495
2628,0.000481,-0.021435,0.039853
2629,0.019703,-0.021435,0.057969
2630,0.000481,-0.00469,0.021737
2631,-0.01874,0.012055,0.076085
2632,-0.01874,0.012055,0.021737
2633,0.019703,-0.00469,-0.014495
2634,-0.01874,0.0288,0.003621
2635,-0.01874,-0.021435,0.003621
2636,-0.01874,-0.021435,-0.068843
2637,-0.01874,0.012055,0.003621
2638,0.096589,-0.00469,0.003621
2639,0.000481,-0.00469,-0.014495
2640,0.000481,0.012055,-0.014495
2641,-0.01874,-0.00469,-0.032611
2642,0.019703,0.0288,-0.050727
2643,0.000481,0.0288,0.021737
2644,-0.01874,0.012055,-0.014495
2645,0.000481,0.012055,0.039853
2646,-0.01874,-0.00469,0.039853
2647,0.019703,0.0288,0.057969
2648,0.000481,0.0288,0.039853
2649,-0.01874,0.0288,0.039853
2650,-0.01874,-0.00469,0.003621
2651,0.038924,0.012055,-0.014495
2652,-0.01874,0.012055,0.039853
2653,-0.057183,0.012055,0.003621
2654,0.000481,-0.021435,0.021737
2655,0.000481,0.0288,0.021737
2656,0.000481,-0.00469,0.039853
2657,0.019703,0.0288,0.021737
2658,-0.01874,0.012055,0.039853
2659,-0.01874,0.012055,0.021737
2660,-0.01874,0.012055,-0.014495
2661,0.019703,-0.00469,-0.014495
2662,0.000481,0.012055,-0.032611
2663,-0.01874,-0.00469,-0.014495
2664,0.000481,0.012055,0.003621
2665,-0.01874,-0.00469,0.003621
2666,0.019703,-0.021435,-0.014495
2667,0.000481,0.0288,0.021737
2668,-0.01874,-0.00469,-0.014495
2669,0.000481,-0.00469,-0.050727
2670,-0.01874,-0.021435,-0.032611
2671,0.000481,-0.00469,-0.014495
2672,-0.01874,-0.021435,-0.032611
2673,0.000481,-0.021435,0.021737
2674,-0.01874,-0.00469,-0.014495
2675,0.019703,-0.00469,0.003621
2676,-0.01874,-0.00469,-0.014495
2677,0.000481,-0.00469,-0.050727
2678,-0.01874,0.045545,-0.032611
2679,0.019703,-0.00469,-0.014495
2680,-0.01874,0.012055,-0.032611
2681,0.019703,-0.00469,0.003621
2682,-0.01874,0.045545,0.021737
2683,-0.01874,-0.00469,-0.014495
2684,0.000481,-0.00469,0.021737
2685,-0.01874,-0.00469,0.003621
2686,0.000481,-0.00469,-0.014495
2687,0.000481,0.012055,-0.014495
2688,-0.01874,-0.00469,0.003621
2689,-0.01874,0.012055,-0.014495
2690,-0.01874,-0.00469,0.057969
2691,0.019703,0.012055,0.076085
2692,0.038924,-0.00469,0.039853
2693,0.019703,0.012055,0.057969
2694,0.019703,0.012055,0.003621
2695,-0.01874,0.0288,-0.068843
2696,-0.01874,0.012055,0.003621
2697,-0.037962,-0.00469,-0.032611
2698,0.000481,0.012055,-0.014495
2699,0.000481,0.012055,0.021737
2700,0.000481,0.012055,0.057969
2701,0.000481,0.012055,0.039853
2702,0.000481,-0.00469,0.094201
2703,-0.01874,0.012055,0.021737
2704,0.000481,-0.00469,0.003621
2705,0.000481,0.012055,0.021737
2706,0.000481,0.012055,-0.050727
2707,0.000481,0.012055,0.003621
2708,-0.01874,0.012055,0.003621
2709,0.000481,-0.00469,-0.014495
2710,0.000481,-0.00469,-0.032611
2711,0.019703,0.012055,-0.050727
2712,0.000481,-0.021435,-0.014495
2713,0.000481,0.012055,-0.050727
2714,0.019703,-0.021435,-0.032611
2715,-0.01874,-0.00469,-0.032611
2716,0.000481,-0.00469,0.039853
2717,-0.037962,0.012055,0.021737
2718,0.000481,-0.021435,0.057969
2719,0.000481,0.012055,0.076085
2720,0.000481,-0.00469,0.094201
2721,0.019703,0.012055,0.057969
2722,0.000481,0.0288,-0.014495
2723,0.019703,0.012055,0.003621
2724,-0.037962,-0.00469,-0.032611
2725,-0.037962,-0.00469,-0.014495
2726,-0.01874,-0.00469,0.021737
2727,0.000481,-0.00469,-0.014495
2728,0.019703,0.012055,0.039853
2729,0.038924,0.012055,0.003621
2730,0.000481,-0.038179,0.021737
2731,0.000481,0.012055,0.039853
2732,-0.01874,0.012055,0.003621
2733,0.000481,-0.00469,-0.032611
2734,0.000481,0.012055,-0.014495
2735,-0.01874,-0.00469,0.021737
2736,0.000481,-0.00469,-0.032611
2737,0.000481,-0.00469,0.021737
2738,0.000481,-0.00469,-0.014495
2739,0.019703,0.012055,-0.014495
2740,0.019703,-0.00469,0.003621
2741,0.000481,0.012055,-0.032611
2742,0.000481,-0.00469,-0.014495
2743,-0.01874,-0.00469,0.039853
2744,-0.037962,0.0288,0.021737
2745,0.000481,-0.00469,-0.014495
2746,-0.01874,0.012055,0.021737
2747,0.019703,0.012055,0.021737
2748,0.000481,0.0288,-0.014495
2749,0.019703,0.0288,-0.014495
2750,0.000481,0.012055,0.003621
2751,0.019703,0.012055,0.003621
2752,0.000481,-0.00469,-0.014495
2753,0.000481,0.012055,-0.014495
2754,0.019703,0.012055,0.003621
2755,0.019703,-0.00469,0.003621
2756,0.038924,-0.00469,0.003621
2757,-0.01874,-0.00469,-0.014495
2758,0.019703,-0.00469,0.003621
2759,0.038924,0.0288,-0.050727
2760,0.038924,-0.00469,0.003621
2761,0.000481,-0.021435,0.021737
2762,0.000481,-0.021435,-0.032611
2763,0.019703,-0.021435,-0.014495
2764,-0.01874,-0.00469,-0.050727
2765,0.000481,-0.021435,-0.050727
2766,0.000481,0.012055,-0.068843
2767,0.000481,0.012055,-0.014495
2768,0.000481,0.012055,-0.032611
2769,-0.037962,-0.021435,-0.032611
2770,0.000481,-0.00469,0.003621
2771,-0.01874,0.012055,0.039853
2772,-0.01874,0.012055,0.039853
2773,0.000481,-0.021435,-0.014495
2774,0.038924,0.012055,-0.014495
2775,0.019703,0.012055,0.003621
2776,0.038924,0.012055,-0.014495
2777,0.000481,0.012055,0.003621
2778,0.000481,-0.00469,0.003621
2779,0.000481,0.012055,0.039853
2780,0.000481,-0.00469,-0.014495
2781,0.000481,-0.00469,0.021737
2782,-0.01874,-0.00469,0.057969
2783,0.000481,-0.00469,0.021737
2784,0.000481,0.012055,0.021737
2785,-0.01874,-0.00469,0.003621
2786,-0.01874,0.012055,0.057969
2787,-0.057183,0.012055,0.057969
2788,-0.01874,0.012055,0.057969
2789,-0.037962,-0.00469,0.039853
2790,-0.037962,-0.021435,0.021737
2791,-0.01874,0.0288,0.003621
2792,-0.01874,-0.00469,0.003621
2793,-0.037962,-0.00469,0.003621
2794,-0.037962,-0.00469,-0.032611
2795,-0.01874,-0.00469,0.021737
2796,-0.01874,0.012055,0.003621
2797,-0.01874,-0.00469,-0.014495
2798,-0.037962,-0.00469,0.021737
2799,-0.01874,-0.00469,-0.032611
2800,0.000481,-0.00469,-0.068843
2801,-0.01874,-0.00469,-0.032611
2802,0.019703,0.012055,-0.032611
2803,0.000481,-0.021435,-0.032611
2804,0.019703,0.012055,0.021737
2805,0.000481,0.012055,0.021737
2806,-0.01874,-0.00469,-0.014495
2807,0.000481,0.012055,0.039853
2808,-0.01874,0.012055,0.021737
2809,0.000481,-0.021435,0.003621
2810,-0.01874,0.012055,0.003621
2811,0.000481,0.012055,0.021737
2812,0.000481,-0.00469,0.021737
2813,0.000481,-0.00469,0.057969
2814,0.000481,0.012055,0.021737
2815,0.019703,0.012055,0.021737
2816,-0.01874,-0.00469,0.021737
2817,-0.01874,-0.00469,0.003621
2818,-0.01874,-0.00469,-0.050727
2819,0.000481,-0.021435,-0.032611
2820,0.019703,-0.00469,-0.014495
2821,0.000481,0.012055,0.003621
2822,0.000481,0.012055,0.039853
2823,0.019703,0.012055,0.003621
2824,0.019703,0.012055,0.021737
2825,0.019703,0.0288,0.003621
2826,0.019703,-0.021435,-0.050727
2827,0.019703,-0.021435,-0.105075
2828,0.038924,-0.00469,-0.050727
2829,0.000481,-0.021435,-0.014495
2830,0.058146,0.0288,0.003621
2831,0.058146,0.045545,0.021737
2832,0.077367,0.0288,0.003621
2833,0.077367,0.045545,0.021737
2834,0.058146,0.012055,-0.014495
2835,0.077367,0.012055,-0.014495
2836,0.058146,-0.021435,0.003621
2837,0.038924,0.012055,-0.014495
2838,0.019703,-0.00469,0.003621
2839,0.019703,0.0288,0.039853
2840,0.019703,0.045545,0.057969
2841,-0.037962,0.012055,0.039853
2842,-0.057183,-0.00469,0.039853
2843,-0.095626,-0.038179,0.021737
2844,-0.095626,-0.021435,0.021737
2845,-0.095626,0.012055,0.003621
2846,-0.076405,-0.00469,0.039853
2847,-0.057183,-0.00469,0.057969
2848,-0.037962,0.012055,0.057969
2849,-0.037962,0.0288,0.021737
2850,-0.01874,0.012055,0.039853
2851,-0.037962,0.012055,0.021737
2852,-0.037962,0.012055,0.003621
2853,-0.037962,-0.00469,-0.032611
2854,-0.037962,-0.021435,-0.050727
2855,-0.057183,-0.021435,-0.014495
2856,-0.057183,-0.00469,0.021737
2857,-0.057183,-0.021435,0.021737
2858,-0.01874,-0.00469,0.021737
2859,-0.01874,-0.021435,0.003621
2860,-0.037962,-0.00469,0.003621
2861,-0.01874,-0.021435,-0.014495
2862,0.000481,-0.038179,-0.014495
2863,-0.01874,-0.00469,-0.050727
2864,-0.037962,-0.00469,-0.032611
2865,0.000481,-0.00469,0.003621
2866,0.019703,-0.00469,0.076085
2867,0.000481,-0.00469,0.003621
2868,0.019703,0.012055,0.021737
2869,0.000481,0.012055,-0.014495
2870,0.000481,-0.00469,-0.032611
2871,0.000481,-0.021435,-0.014495
2872,-0.037962,-0.00469,-0.032611
2873,-0.01874,-0.00469,0.003621
2874,-0.01874,0.0288,0.021737
2875,-0.01874,0.012055,0.003621
2876,0.000481,-0.00469,-0.014495
2877,0.000481,-0.021435,0.039853
2878,0.000481,-0.00469,-0.032611
2879,-0.01874,-0.038179,-0.050727
2880,-0.01874,0.012055,-0.014495
2881,-0.01874,-0.00469,-0.032611
2882,0.019703,-0.00469,-0.014495
2883,0.019703,-0.00469,-0.014495
2884,0.019703,-0.038179,-0.014495
2885,0.019703,-0.021435,0.039853
2886,0.000481,-0.021435,-0.032611
2887,0.000481,-0.00469,-0.014495
2888,0.038924,0.0288,-0.032611
2889,0.019703,0.012055,0.003621
2890,0.038924,0.012055,-0.014495
2891,0.038924,-0.021435,0.021737
2892,0.038924,-0.00469,0.021737
2893,0.019703,0.012055,0.003621
2894,0.019703,0.0288,0.057969
2895,0.019703,0.012055,0.003621
2896,0.038924,0.012055,-0.032611
2897,0.019703,0.012055,0.003621
2898,0.000481,-0.00469,-0.014495
2899,-0.01874,-0.00469,-0.014495
2900,-0.01874,-0.021435,0.021737
2901,-0.037962,-0.00469,0.039853
2902,-0.037962,-0.021435,0.021737
2903,-0.037962,-0.00469,0.039853
2904,-0.037962,-0.00469,0.003621
2905,-0.037962,-0.021435,0.003621
2906,-0.01874,-0.00469,0.039853
2907,-0.037962,-0.00469,-0.014495
2908,-0.037962,-0.00469,0.003621
2909,0.000481,-0.021435,0.057969
2910,-0.037962,0.012055,0.057969
2911,-0.037962,0.012055,0.021737
2912,-0.01874,0.012055,0.039853
2913,0.000481,-0.021435,0.003621
2914,0.019703,-0.00469,-0.014495
2915,-0.01874,-0.00469,-0.014495
2916,-0.01874,-0.00469,-0.032611
2917,-0.01874,0.012055,0.003621
2918,0.000481,-0.021435,0.039853
2919,0.000481,-0.00469,0.021737
2920,-0.01874,0.012055,-0.032611
2921,-0.01874,-0.021435,-0.014495
2922,0.000481,0.012055,-0.014495
2923,0.000481,0.012055,-0.014495
2924,0.000481,0.012055,0.039853
2925,-0.01874,-0.00469,-0.014495
2926,-0.01874,-0.038179,0.039853
2927,-0.01874,0.012055,0.039853
2928,-0.01874,-0.00469,0.003621
2929,0.000481,0.012055,0.039853
2930,0.000481,0.012055,0.021737
2931,0.019703,-0.021435,-0.014495
2932,0.000481,-0.021435,-0.032611
2933,-0.037962,-0.021435,-0.032611
2934,-0.01874,0.012055,-0.014495
2935,-0.01874,-0.00469,0.021737
2936,0.000481,-0.00469,0.039853
2937,-0.01874,-0.00469,0.003621
2938,0.000481,-0.00469,0.021737
2939,0.000481,-0.00469,-0.014495
2940,0.019703,0.012055,-0.032611
2941,0.000481,0.012055,0.021737
2942,0.000481,0.012055,0.021737
2943,0.000481,-0.021435,0.003621
2944,0.019703,0.012055,0.039853
2945,0.000481,0.012055,0.039853
2946,0.000481,0.012055,0.003621
2947,-0.01874,0.0288,0.021737
2948,-0.01874,0.012055,0.003621
2949,-0.01874,0.045545,-0.032611
2950,-0.037962,-0.00469,0.021737
2951,-0.037962,-0.00469,-0.014495
2952,-0.037962,0.0288,0.003621
2953,0.000481,-0.00469,0.039853
2954,0.000481,-0.00469,0.021737
2955,-0.01874,0.012055,-0.032611
2956,-0.01874,-0.00469,0.039853
2957,0.000481,-0.00469,0.021737
2958,0.000481,0.012055,0.003621
2959,0.019703,-0.00469,0.021737
2960,0.019703,0.0288,-0.032611
2961,0.019703,0.0288,0.021737
2962,0.019703,0.012055,0.039853
2963,0.019703,-0.00469,0.021737
2964,0.000481,0.0288,0.003621
2965,0.000481,0.012055,0.003621
2966,-0.01874,0.012055,-0.032611
2967,-0.01874,-0.00469,-0.068843
2968,-0.037962,0.012055,0.003621
2969,-0.037962,-0.00469,0.003621
2970,-0.057183,-0.021435,0.021737
2971,-0.076405,-0.00469,0.021737
2972,-0.037962,-0.021435,0.039853
2973,-0.01874,0.012055,0.076085
2974,-0.037962,-0.00469,0.039853
2975,-0.01874,-0.00469,0.003621
2976,-0.037962,0.012055,-0.014495
2977,-0.01874,0.012055,0.039853
2978,-0.037962,-0.00469,0.003621
2979,-0.037962,0.012055,-0.014495
2980,-0.01874,0.012055,0.021737
2981,0.000481,0.012055,0.021737
2982,-0.01874,-0.00469,0.039853
2983,-0.01874,-0.021435,-0.032611
2984,0.000481,0.012055,-0.050727
2985,0.000481,-0.00469,0.003621
2986,-0.01874,-0.00469,0.003621
2987,-0.01874,-0.00469,-0.014495
2988,0.000481,0.012055,0.039853
2989,0.019703,-0.00469,0.039853
2990,0.000481,-0.00469,-0.014495
2991,0.000481,-0.00469,0.003621
2992,-0.01874,-0.021435,-0.014495
2993,0.019703,-0.00469,-0.032611
2994,0.000481,0.012055,0.021737
2995,0.000481,0.012055,0.021737
2996,-0.01874,0.012055,0.021737
2997,-0.01874,-0.00469,0.021737
2998,-0.037962,-0.00469,0.039853
2999,0.000481,0.045545,0.003621
3000,0.000481,-0.00469,-0.032611
3001,-0.01874,-0.00469,-0.014495
3002,0.019703,0.012055,-0.032611
3003,0.000481,-0.00469,-0.014495
3004,-0.01874,-0.00469,-0.050727
3005,-0.01874,-0.00469,-0.014495
3006,0.000481,-0.00469,0.021737
3007,-0.01874,-0.021435,0.021737
3008,-0.01874,-0.00469,-0.014495
3009,0.000481,0.0288,-0.032611
3010,-0.01874,-0.00469,-0.032611
3011,-0.037962,-0.021435,-0.032611
3012,-0.01874,-0.00469,0.021737
3013,-0.01874,-0.021435,-0.032611
3014,-0.01874,-0.038179,-0.014495
3015,-0.037962,-0.00469,0.021737
3016,-0.01874,-0.00469,0.003621
3017,0.000481,0.012055,0.003621
3018,-0.01874,0.012055,0.003621
3019,-0.01874,-0.00469,0.021737
3020,-0.01874,0.012055,0.057969
3021,-0.01874,0.012055,0.076085
3022,-0.01874,-0.00469,0.003621
3023,-0.01874,0.012055,0.021737
3024,-0.01874,0.045545,0.021737
3025,-0.037962,0.012055,0.003621
3026,-0.037962,0.012055,0.057969
3027,0.000481,-0.021435,0.003621
3028,0.000481,0.012055,0.021737
3029,-0.01874,0.012055,0.039853
3030,-0.01874,-0.00469,0.039853
3031,-0.01874,0.0288,0.003621
3032,0.000481,-0.021435,0.021737
3033,-0.01874,-0.038179,-0.014495
3034,0.000481,0.012055,-0.014495
3035,0.038924,0.012055,0.003621
3036,0.019703,0.0288,-0.032611
3037,0.038924,0.0288,-0.014495
3038,0.038924,0.06229,0.021737
3039,0.000481,-0.00469,0.039853
3040,0.019703,0.012055,-0.014495
3041,0.000481,0.0288,0.039853
3042,-0.01874,0.012055,0.003621
3043,-0.01874,-0.038179,0.003621
3044,-0.037962,-0.038179,0.003621
3045,-0.01874,-0.00469,0.021737
3046,-0.037962,-0.00469,0.021737
3047,-0.037962,-0.00469,0.021737
3048,-0.037962,-0.00469,0.003621
3049,-0.037962,-0.00469,0.021737
3050,-0.037962,-0.021435,0.021737
3051,-0.01874,0.012055,0.003621
3052,0.000481,-0.021435,-0.014495
3053,0.000481,0.012055,0.003621
3054,-0.01874,-0.00469,-0.032611
3055,-0.037962,-0.00469,0.003621
3056,-0.057183,0.045545,0.021737
3057,-0.037962,-0.00469,-0.014495
3058,-0.01874,-0.00469,0.021737
3059,-0.037962,0.012055,0.003621
3060,0.000481,-0.00469,0.039853
3061,0.000481,0.045545,-0.014495
3062,-0.037962,-0.00469,-0.032611
3063,-0.01874,-0.00469,-0.032611
3064,0.019703,-0.00469,0.003621
3065,-0.057183,0.012055,0.021737
3066,-0.01874,0.012055,-0.014495
3067,-0.01874,0.0288,0.003621
3068,-0.01874,-0.00469,-0.032611
3069,0.019703,0.045545,-0.014495
3070,-0.01874,0.0288,0.039853
3071,0.000481,0.0288,0.003621
3072,-0.01874,0.06229,0.021737
3073,0.000481,0.0288,0.039853
3074,0.000481,0.012055,0.076085
3075,-0.037962,0.012055,0.021737
3076,-0.01874,0.045545,0.039853
3077,0.000481,-0.038179,0.039853
3078,0.000481,0.012055,-0.050727
3079,0.000481,-0.054924,-0.014495
3080,0.000481,-0.038179,-0.014495
3081,0.019703,-0.00469,0.003621
3082,-0.037962,-0.021435,0.003621
3083,-0.057183,-0.054924,0.021737
3084,-0.057183,-0.021435,0.021737
3085,-0.037962,-0.00469,0.039853
3086,-0.01874,-0.00469,-0.014495
3087,0.000481,-0.00469,-0.032611
3088,0.019703,-0.021435,0.003621
3089,0.000481,-0.00469,0.003621
3090,0.019703,0.012055,0.003621
3091,0.019703,0.0288,0.021737
3092,-0.01874,0.012055,0.021737
3093,0.000481,0.0288,0.021737
3094,0.000481,0.079034,-0.014495
3095,0.000481,0.06229,-0.032611
3096,0.000481,0.112524,-0.050727
3097,-0.037962,0.079034,-0.032611
3098,-0.057183,0.0288,-0.014495
3099,-0.057183,0.012055,0.003621
3100,-0.01874,-0.054924,0.039853
3101,0.000481,-0.038179,0.021737
3102,-0.01874,-0.021435,0.057969
3103,-0.01874,-0.021435,0.021737
3104,-0.037962,-0.071669,-0.032611
3105,-0.037962,-0.021435,0.003621
3106,0.000481,-0.021435,-0.014495
3107,0.000481,-0.021435,0.021737
3108,0.019703,-0.038179,0.021737
3109,-0.057183,-0.054924,-0.014495
3110,-0.076405,-0.105159,0.003621
3111,-0.076405,-0.088414,0.003621
3112,0.000481,-0.071669,-0.014495
3113,-0.01874,-0.038179,-0.032611
3114,0.019703,-0.021435,-0.032611
3115,0.000481,-0.00469,-0.068843
3116,0.000481,-0.038179,0.003621
3117,-0.037962,0.012055,0.021737
3118,-0.01874,0.012055,0.094201
3119,-0.01874,-0.00469,0.021737
3120,-0.01874,0.012055,-0.014495
3121,-0.01874,0.06229,0.021737
3122,0.000481,0.079034,-0.050727
3123,0.000481,0.045545,-0.068843
3124,0.000481,0.012055,-0.032611
3125,-0.01874,0.0288,-0.014495
3126,-0.01874,0.0288,0.003621
3127,-0.057183,0.012055,-0.014495
3128,-0.037962,0.012055,0.039853
3129,0.000481,0.0288,0.021737
3130,0.019703,0.06229,-0.032611
3131,-0.01874,0.012055,-0.050727
3132,-0.037962,-0.088414,-0.050727
3133,-0.01874,-0.088414,-0.032611
3134,-0.01874,-0.105159,0.003621
3135,-0.01874,-0.121903,0.039853
3136,-0.057183,-0.071669,0.021737
3137,-0.057183,-0.021435,0.003621
3138,-0.037962,0.06229,-0.032611
3139,-0.057183,0.0288,-0.014495
3140,0.019703,0.095779,-0.014495
3141,0.000481,0.012055,-0.032611
3142,-0.01874,0.012055,-0.014495
3143,-0.01874,0.012055,0.057969
3144,0.000481,-0.038179,-0.014495
3145,0.038924,-0.088414,-0.014495
3146,-0.037962,-0.105159,0.003621
3147,-0.095626,-0.172138,0.003621
3148,-0.114848,-0.222372,-0.032611
3149,-0.134069,-0.205628,0.021737
3150,0.11581,-0.105159,0.003621
3151,0.096589,-0.054924,0.039853
3152,-0.037962,-0.054924,0.003621
3153,-0.037962,0.06229,-0.050727
3154,0.019703,0.196248,-0.014495
3155,0.077367,0.263228,0.003621
3156,0.058146,0.263228,-0.032611
3157,0.058146,0.129269,-0.032611
3158,0.019703,0.112524,-0.014495
3159,0.000481,0.129269,0.003621
3160,0.096589,0.129269,0.003621
3161,0.096589,0.129269,0.039853
3162,0.173475,0.095779,0.021737
3163,0.11581,-0.021435,0.039853
3164,0.154253,-0.038179,0.003621
3165,0.038924,-0.054924,-0.032611
3166,-0.057183,-0.071669,-0.014495
3167,0.135032,-0.00469,-0.032611
3168,0.154253,0.012055,0.003621
3169,-0.191734,0.0288,0.021737
3170,-0.383949,0.0288,-0.050727
3171,-0.191734,0.06229,-0.050727
3172,-0.172512,0.012055,-0.014495
3173,-0.26862,-0.021435,-0.014495
3174,-0.114848,-0.021435,-0.014495
3175,-0.01874,-0.00469,0.003621
3176,-0.076405,-0.00469,0.021737
3177,-0.134069,-0.021435,0.003621
3178,-0.095626,-0.038179,0.003621
3179,0.000481,0.06229,0.003621
3180,-0.037962,0.06229,-0.014495
3181,-0.037962,-0.00469,0.003621
3182,0.135032,-0.088414,-0.032611
3183,0.173475,-0.155393,-0.014495
3184,0.058146,-0.155393,-0.014495
3185,-0.076405,-0.172138,-0.032611
3186,0.000481,-0.071669,-0.014495
3187,-0.057183,-0.021435,0.003621
3188,-0.057183,-0.00469,-0.068843
3189,-0.01874,0.179503,-0.014495
3190,0.038924,0.296717,-0.014495
3191,0.077367,0.279972,-0.050727
3192,0.058146,0.212993,0.003621
3193,0.019703,0.146014,0.003621
3194,-0.057183,0.095779,-0.032611
3195,-0.114848,0.079034,-0.014495
3196,-0.037962,0.112524,-0.032611
3197,0.077367,0.0288,-0.032611
3198,0.250361,-0.00469,-0.014495
3199,0.231139,-0.038179,0.003621
3200,0.11581,-0.054924,-0.032611
3201,0.000481,-0.071669,0.003621
3202,0.019703,-0.071669,-0.032611
3203,-0.095626,-0.054924,0.021737
3204,-0.26862,-0.038179,-0.014495
3205,-0.210955,0.045545,-0.032611
3206,-0.153291,0.012055,-0.032611
3207,-0.01874,-0.054924,-0.032611
3208,-0.037962,-0.071669,-0.050727
3209,0.058146,-0.054924,-0.050727
3210,0.11581,-0.054924,0.039853
3211,0.135032,-0.038179,-0.014495
3212,0.058146,-0.054924,0.003621
3213,-0.076405,-0.071669,0.021737
3214,-0.114848,-0.054924,0.003621
3215,-0.230177,-0.138648,-0.014495
3216,-0.345506,-0.239117,0.003621
3217,-0.230177,-0.239117,0.003621
3218,0.000481,-0.205628,0.021737
3219,0.096589,-0.155393,0.003621
3220,0.404133,-0.00469,-0.050727
3221,0.231139,0.146014,0.021737
3222,-0.076405,0.346952,-0.050727
3223,0.11581,0.162759,-0.032611
3224,0.154253,-0.021435,-0.014495
3225,0.211918,0.0288,-0.050727
3226,-0.01874,0.0288,-0.014495
3227,-0.191734,0.012055,-0.014495
3228,-0.26862,0.095779,0.003621
3229,-0.076405,0.095779,0.039853
3230,-0.01874,0.06229,0.039853
3231,0.077367,0.146014,0.003621
3232,0.019703,0.129269,-0.032611
3233,0.000481,0.06229,-0.032611
3234,0.038924,0.0288,-0.014495
3235,-0.076405,0.06229,0.021737
3236,-0.114848,0.079034,0.039853
3237,-0.057183,-0.00469,0.003621
3238,0.000481,-0.172138,0.003621
3239,-0.114848,-0.272607,0.003621
3240,-0.095626,-0.188883,-0.050727
3241,-0.076405,-0.121903,-0.050727
3242,-0.095626,-0.021435,-0.032611
3243,-0.057183,0.179503,-0.050727
3244,-0.01874,0.363697,0.003621
3245,0.019703,0.263228,0.039853
3246,-0.01874,0.112524,0.003621
3247,-0.057183,0.079034,0.021737
3248,0.038924,0.045545,0.003621
3249,0.11581,-0.071669,-0.032611
3250,0.096589,-0.239117,0.003621
3251,-0.037962,-0.255862,0.003621
3252,-0.230177,-0.155393,0.021737
3253,-0.076405,-0.155393,0.021737
3254,0.019703,-0.088414,0.021737
3255,-0.01874,0.095779,-0.032611
3256,-0.095626,0.263228,0.039853
3257,0.000481,0.246483,-0.014495
3258,0.058146,0.095779,-0.050727
3259,0.019703,-0.00469,0.003621
3260,0.000481,0.0288,0.003621
3261,-0.01874,0.045545,-0.014495
3262,-0.057183,0.112524,-0.014495
3263,-0.037962,0.129269,-0.032611
3264,0.077367,0.112524,0.039853
3265,0.000481,0.045545,0.003621
3266,-0.057183,-0.00469,0.003621
3267,-0.114848,-0.021435,-0.032611
3268,-0.172512,0.012055,0.003621
3269,-0.076405,-0.021435,-0.014495
3270,0.038924,0.012055,0.021737
3271,0.058146,-0.00469,0.003621
3272,-0.037962,-0.021435,0.003621
3273,-0.134069,-0.038179,0.021737
3274,-0.134069,-0.054924,-0.014495
3275,0.019703,-0.071669,-0.014495
3276,0.096589,-0.021435,0.003621
3277,-0.037962,-0.021435,-0.032611
3278,-0.057183,-0.038179,-0.014495
3279,0.000481,-0.021435,0.021737
3280,0.096589,0.0288,0.021737
3281,0.308025,0.012055,-0.032611
3282,0.346468,0.012055,0.021737
3283,0.135032,-0.00469,0.003621
3284,0.077367,-0.021435,-0.014495
3285,-0.01874,-0.00469,0.003621
3286,0.096589,0.0288,-0.032611
3287,0.288804,0.012055,0.003621
3288,0.211918,0.012055,0.003621
3289,-0.076405,0.012055,0.021737
3290,-0.345506,-0.038179,0.021737
3291,-0.345506,-0.038179,0.003621
3292,-0.210955,-0.071669,-0.032611
3293,-0.095626,-0.088414,-0.050727
3294,-0.057183,-0.088414,-0.014495
3295,-0.037962,-0.105159,-0.032611
3296,-0.037962,-0.138648,0.003621
3297,-0.037962,-0.121903,0.021737
3298,-0.26862,-0.071669,0.003621
3299,-0.249399,0.012055,0.003621
3300,-0.01874,0.06229,-0.032611
3301,0.096589,-0.038179,-0.032611
3302,0.308025,0.112524,0.003621
3303,0.308025,0.079034,0.039853
3304,0.288804,0.012055,-0.014495
3305,-0.01874,-0.071669,0.003621
3306,-0.191734,-0.105159,0.039853
3307,-0.095626,-0.121903,0.021737
3308,-0.095626,-0.088414,0.039853
3309,-0.01874,-0.038179,-0.032611
3310,0.019703,0.045545,-0.032611
3311,-0.037962,0.246483,-0.014495
3312,-0.057183,0.229738,-0.032611
3313,-0.01874,0.112524,-0.032611
3314,-0.037962,0.045545,0.003621
3315,-0.01874,0.012055,0.021737
3316,0.038924,0.012055,-0.032611
3317,0.019703,-0.00469,0.003621
3318,0.000481,0.079034,-0.032611
3319,0.038924,0.196248,-0.032611
3320,-0.114848,0.045545,0.021737
3321,-0.172512,-0.021435,-0.032611
3322,-0.287842,-0.071669,-0.014495
3323,-0.287842,-0.071669,0.003621
3324,-0.134069,-0.038179,-0.050727
3325,0.135032,-0.00469,-0.014495
3326,0.250361,0.06229,-0.014495
3327,0.192696,0.095779,-0.050727
3328,0.11581,0.045545,-0.032611
3329,0.038924,-0.00469,0.003621
3330,-0.057183,-0.038179,-0.032611
3331,0.000481,-0.00469,0.003621
3332,0.038924,-0.00469,-0.014495
3333,0.058146,-0.021435,-0.032611
3334,0.019703,0.0288,-0.014495
3335,0.058146,-0.021435,-0.032611
3336,0.11581,-0.00469,-0.050727
3337,0.058146,0.012055,0.003621
3338,-0.037962,-0.00469,-0.032611
3339,-0.249399,0.0288,0.003621
3340,-0.134069,0.012055,0.003621
3341,0.019703,-0.00469,0.003621
3342,0.096589,0.0288,-0.050727
3343,-0.01874,-0.021435,-0.014495
3344,-0.076405,-0.00469,-0.014495
3345,-0.114848,0.012055,-0.032611
3346,-0.095626,-0.021435,-0.014495
3347,-0.037962,-0.054924,0.003621
3348,0.173475,-0.054924,-0.032611
3349,0.423355,0.012055,0.003621
3350,0.231139,0.0288,-0.014495
3351,-0.249399,-0.021435,-0.050727
3352,-0.172512,-0.00469,-0.032611
3353,-0.153291,-0.00469,-0.068843
3354,0.019703,0.079034,-0.050727
3355,0.019703,0.012055,-0.014495
3356,-0.057183,-0.00469,-0.032611
3357,0.019703,-0.00469,0.003621
3358,0.096589,0.012055,0.003621
3359,0.211918,-0.00469,-0.032611
3360,0.288804,0.012055,-0.032611
3361,0.250361,-0.00469,-0.032611
3362,-0.210955,-0.021435,-0.068843
3363,-0.307063,-0.054924,-0.014495
3364,-0.01874,-0.054924,0.021737
3365,0.019703,-0.021435,-0.014495
3366,0.135032,-0.021435,-0.014495
3367,-0.134069,-0.00469,0.003621
3368,-0.345506,-0.038179,-0.050727
3369,-0.134069,0.0288,-0.050727
3370,-0.057183,0.045545,-0.032611
3371,-0.057183,-0.021435,-0.050727
3372,-0.287842,-0.038179,-0.014495
3373,-0.287842,-0.021435,0.021737
3374,-0.210955,-0.038179,0.003621
3375,0.058146,-0.071669,0.003621
3376,0.038924,-0.054924,-0.068843
3377,0.077367,-0.021435,-0.086959
3378,0.269582,0.079034,-0.014495
3379,0.231139,0.129269,-0.014495
3380,0.077367,0.06229,-0.014495
3381,-0.01874,-0.00469,0.003621
3382,0.038924,0.012055,0.021737
3383,0.288804,0.045545,0.021737
3384,0.308025,0.06229,-0.014495
3385,0.211918,0.079034,0.003621
3386,-0.037962,-0.155393,-0.032611
3387,-0.403171,-0.239117,-0.050727
3388,-0.249399,-0.205628,-0.068843
3389,-0.134069,-0.222372,0.003621
3390,0.019703,-0.172138,0.003621
3391,0.019703,-0.00469,-0.014495
3392,0.135032,0.196248,0.003621
3393,0.000481,0.196248,0.003621
3394,0.019703,0.179503,-0.032611
3395,0.000481,0.263228,-0.050727
3396,-0.057183,0.179503,-0.032611
3397,0.019703,0.095779,-0.032611
3398,0.019703,0.045545,-0.032611
3399,0.019703,0.045545,-0.014495
3400,-0.01874,0.012055,0.003621
3401,-0.076405,-0.00469,0.003621
3402,-0.076405,-0.021435,-0.050727
3403,0.096589,-0.00469,-0.050727
3404,0.11581,0.045545,-0.014495
3405,0.058146,0.012055,-0.014495
3406,0.000481,0.0288,-0.032611
3407,-0.134069,-0.021435,0.003621
3408,0.038924,-0.038179,0.039853
3409,0.211918,-0.038179,-0.014495
3410,0.288804,-0.071669,0.021737
3411,-0.153291,-0.088414,-0.014495
3412,-0.249399,-0.021435,-0.050727
3413,-0.057183,0.012055,0.003621
3414,0.000481,0.06229,-0.014495
3415,0.192696,0.095779,-0.014495
3416,0.038924,0.0288,0.003621
3417,-0.114848,0.012055,0.003621
3418,0.019703,0.0288,-0.014495
3419,-0.134069,-0.038179,-0.014495
3420,-0.172512,-0.021435,-0.014495
3421,-0.134069,-0.038179,-0.050727
3422,0.019703,-0.038179,0.021737
3423,0.019703,0.0288,-0.032611
3424,0.019703,0.0288,0.003621
3425,0.000481,0.0288,0.039853
3426,-0.037962,-0.038179,-0.014495
3427,-0.057183,-0.038179,0.039853
3428,0.019703,-0.038179,0.003621
3429,0.077367,0.012055,-0.050727
3430,0.038924,-0.00469,-0.050727
3431,0.019703,-0.021435,-0.032611
3432,0.019703,-0.021435,-0.014495
3433,0.058146,-0.021435,-0.014495
3434,0.173475,0.012055,0.039853
3435,0.058146,0.012055,0.003621
3436,-0.307063,-0.00469,0.021737
3437,-0.287842,0.0288,-0.014495
3438,-0.287842,0.0288,-0.032611
3439,-0.037962,0.012055,-0.032611
3440,-0.01874,-0.00469,-0.068843
3441,0.231139,-0.00469,-0.068843
3442,0.231139,0.045545,0.003621
3443,0.038924,-0.021435,0.003621
3444,0.038924,-0.071669,-0.014495
3445,0.000481,-0.021435,0.021737
3446,0.019703,-0.021435,0.003621
3447,-0.037962,0.0288,-0.014495
3448,-0.01874,0.045545,-0.014495
3449,-0.037962,0.06229,-0.032611
3450,-0.057183,0.012055,0.021737
3451,-0.095626,-0.00469,0.003621
3452,-0.134069,0.012055,0.003621
3453,-0.114848,-0.00469,0.021737
3454,-0.057183,-0.00469,-0.014495
3455,-0.153291,-0.038179,-0.014495
3456,0.000481,-0.088414,-0.032611
3457,0.154253,-0.205628,-0.014495
3458,0.250361,-0.306097,-0.032611
3459,0.269582,-0.272607,-0.014495
3460,0.404133,-0.138648,-0.032611
3461,0.019703,-0.038179,-0.014495
3462,-0.095626,0.129269,0.021737
3463,-0.172512,0.196248,0.003621
3464,-0.037962,0.212993,0.003621
3465,0.000481,0.212993,-0.050727
3466,0.058146,0.179503,-0.014495
3467,0.231139,0.162759,-0.014495
3468,0.231139,0.079034,-0.014495
3469,0.231139,0.045545,0.021737
3470,-0.153291,0.06229,0.003621
3471,-0.249399,0.079034,0.021737
3472,-0.057183,0.146014,0.003621
3473,-0.172512,0.045545,-0.032611
3474,-0.153291,-0.00469,-0.032611
3475,-0.037962,0.0288,-0.068843
3476,-0.095626,-0.00469,-0.050727
3477,0.038924,-0.00469,-0.032611
3478,0.019703,-0.038179,0.021737
3479,-0.01874,0.012055,-0.014495
3480,-0.134069,0.012055,0.003621
3481,0.019703,0.045545,-0.014495
3482,-0.057183,-0.038179,-0.050727
3483,-0.057183,-0.071669,-0.014495
3484,0.077367,-0.054924,0.003621
3485,0.231139,-0.071669,-0.050727
3486,0.192696,-0.088414,0.003621
3487,0.154253,-0.00469,0.003621
3488,-0.287842,-0.00469,-0.014495
3489,-0.172512,-0.00469,-0.014495
3490,0.000481,0.045545,-0.014495
3491,-0.057183,0.06229,0.003621
3492,-0.076405,0.0288,0.021737
3493,-0.037962,-0.038179,-0.032611
3494,-0.057183,-0.00469,-0.014495
3495,0.019703,-0.021435,0.021737
3496,0.135032,0.012055,0.003621
3497,0.058146,-0.00469,-0.014495
3498,-0.037962,-0.00469,0.021737
3499,-0.076405,-0.021435,0.021737
3500,0.096589,-0.071669,0.003621
3501,0.135032,-0.071669,0.039853
3502,0.135032,-0.121903,-0.050727
3503,0.000481,-0.054924,-0.050727
3504,-0.287842,-0.021435,-0.032611
3505,-0.172512,0.012055,0.021737
3506,-0.01874,0.045545,0.039853
3507,0.077367,-0.00469,-0.014495
3508,0.077367,0.0288,0.021737
3509,-0.057183,-0.038179,-0.050727
3510,-0.134069,0.012055,-0.014495
3511,0.000481,0.012055,-0.032611
3512,0.019703,0.045545,0.003621
3513,-0.037962,0.129269,0.003621
3514,0.019703,0.0288,-0.014495
3515,0.038924,-0.00469,0.021737
3516,-0.01874,-0.021435,-0.014495
3517,0.077367,0.012055,-0.014495
3518,0.038924,0.012055,-0.014495
3519,0.038924,-0.00469,-0.014495
3520,0.154253,-0.021435,0.021737
3521,0.269582,-0.00469,0.003621
3522,0.11581,-0.00469,0.021737
3523,-0.095626,-0.021435,0.003621
3524,-0.383949,-0.021435,0.003621
3525,-0.230177,-0.038179,-0.014495
3526,-0.114848,0.06229,-0.032611
3527,0.019703,0.0288,-0.050727
3528,0.058146,0.012055,-0.032611
3529,0.000481,-0.00469,-0.032611
3530,0.154253,0.012055,0.021737
3531,0.135032,0.0288,-0.014495
3532,0.096589,0.012055,0.003621
3533,0.000481,-0.00469,0.021737
3534,-0.076405,-0.021435,-0.014495
3535,-0.037962,-0.021435,0.003621
3536,0.019703,-0.00469,0.021737
3537,0.038924,-0.021435,-0.032611
3538,0.038924,-0.00469,-0.014495
3539,-0.01874,-0.071669,0.039853
3540,0.11581,-0.021435,0.003621
3541,0.11581,-0.121903,0.021737
3542,-0.037962,-0.054924,0.021737
3543,-0.249399,-0.00469,-0.032611
3544,-0.134069,0.012055,-0.050727
3545,-0.037962,-0.121903,0.021737
3546,-0.01874,-0.155393,-0.032611
3547,-0.057183,-0.105159,0.021737
3548,-0.249399,0.012055,0.039853
3549,-0.403171,0.0288,-0.032611
3550,-0.01874,0.045545,0.021737
3551,0.058146,0.112524,0.021737
3552,0.077367,0.06229,-0.050727
3553,0.096589,0.045545,-0.068843
3554,-0.01874,0.045545,-0.014495
3555,0.11581,0.112524,0.003621
3556,0.11581,0.079034,0.021737
3557,0.019703,0.06229,0.021737
3558,0.000481,0.0288,-0.050727
3559,-0.153291,0.012055,0.039853
3560,-0.037962,-0.021435,-0.032611
3561,0.192696,-0.00469,-0.014495
3562,0.231139,0.012055,-0.014495
3563,0.308025,0.045545,-0.014495
3564,0.077367,0.045545,0.003621
3565,0.000481,-0.038179,0.021737
3566,0.135032,0.0288,0.003621
3567,-0.249399,-0.00469,-0.014495
3568,-0.307063,-0.038179,0.021737
3569,0.135032,0.012055,0.021737
3570,0.019703,0.045545,-0.032611
3571,-0.057183,-0.054924,-0.014495
3572,-0.057183,-0.138648,-0.014495
3573,0.135032,-0.121903,0.003621
3574,0.192696,-0.121903,0.021737
3575,0.192696,-0.105159,0.021737
3576,-0.057183,-0.205628,-0.032611
3577,-0.326285,-0.071669,0.057969
3578,-0.230177,-0.021435,0.003621
3579,-0.191734,0.012055,-0.014495
3580,-0.172512,0.112524,-0.050727
3581,-0.076405,0.212993,-0.050727
3582,0.096589,0.263228,-0.032611
3583,0.154253,0.212993,0.021737
3584,0.173475,0.079034,0.021737
3585,0.11581,0.045545,0.021737
3586,0.038924,0.0288,0.003621
3587,0.000481,0.0288,-0.032611
3588,0.000481,0.0288,-0.032611
3589,-0.01874,0.045545,0.021737
3590,0.000481,-0.00469,-0.014495
3591,0.019703,0.012055,0.003621
3592,0.192696,0.0288,0.057969
3593,0.192696,-0.00469,0.021737
3594,0.096589,-0.00469,0.021737
3595,-0.210955,-0.021435,0.003621
3596,-0.191734,-0.105159,-0.032611
3597,-0.153291,-0.155393,-0.068843
3598,-0.114848,-0.172138,0.003621
3599,-0.01874,-0.138648,-0.050727
3600,0.135032,-0.205628,-0.032611
3601,0.327247,-0.239117,0.021737
3602,0.288804,-0.172138,0.003621
3603,0.135032,-0.00469,0.003621
3604,-0.230177,0.162759,0.021737
3605,-0.172512,0.212993,-0.032611
3606,-0.134069,0.313462,-0.032611
3607,-0.057183,0.296717,-0.014495
3608,-0.01874,0.162759,-0.050727
3609,-0.057183,0.079034,-0.014495
3610,-0.076405,0.045545,0.039853
3611,-0.057183,0.06229,-0.014495
3612,-0.076405,0.0288,0.021737
3613,-0.076405,-0.00469,-0.014495
3614,-0.01874,-0.00469,-0.050727
3615,-0.037962,0.012055,-0.032611
3616,-0.114848,0.012055,0.003621
3617,-0.153291,0.012055,0.039853
3618,-0.134069,-0.021435,0.003621
3619,-0.095626,-0.021435,0.003621
3620,0.077367,-0.071669,-0.014495
3621,0.269582,-0.054924,0.021737
3622,0.346468,-0.054924,0.003621
3623,-0.057183,-0.105159,-0.050727
3624,-0.26862,-0.138648,-0.032611
3625,0.231139,-0.071669,-0.014495
3626,0.096589,0.0288,0.039853
3627,-0.01874,0.045545,0.021737
3628,0.000481,0.045545,0.003621
3629,0.211918,0.045545,-0.014495
3630,0.192696,0.0288,0.021737
3631,0.135032,0.06229,0.021737
3632,-0.172512,-0.00469,-0.086959
3633,-0.037962,0.012055,0.003621
3634,-0.095626,0.012055,-0.050727
3635,-0.307063,-0.038179,0.021737
3636,0.019703,0.012055,0.039853
3637,0.000481,0.012055,-0.014495
3638,-0.037962,-0.00469,0.021737
3639,-0.057183,0.012055,-0.014495
3640,-0.01874,0.012055,-0.014495
3641,0.000481,0.0288,-0.032611
3642,0.000481,0.0288,0.003621
3643,-0.01874,0.012055,-0.032611
3644,0.019703,0.012055,-0.014495
3645,-0.01874,0.012055,0.003621
3646,-0.114848,-0.038179,-0.014495
3647,-0.095626,-0.054924,0.039853
3648,-0.076405,-0.088414,0.003621
3649,0.000481,-0.088414,-0.050727
3650,0.019703,-0.038179,-0.032611
3651,0.308025,-0.021435,0.021737
3652,0.211918,-0.00469,0.021737
3653,-0.037962,-0.00469,0.021737
3654,-0.556943,-0.021435,-0.032611
3655,-0.153291,0.045545,-0.032611
3656,0.135032,0.079034,0.039853
3657,-0.057183,0.045545,-0.032611
3658,-0.134069,0.0288,0.003621
3659,0.211918,0.012055,0.003621
3660,0.308025,-0.00469,-0.014495
3661,0.192696,0.012055,0.003621
3662,0.11581,-0.088414,0.003621
3663,-0.210955,-0.138648,0.003621
3664,-0.057183,-0.088414,-0.014495
3665,0.096589,-0.054924,0.039853
3666,0.192696,0.012055,0.003621
3667,0.192696,0.079034,-0.032611
3668,-0.01874,0.095779,0.003621
3669,-0.230177,0.079034,-0.014495
3670,-0.172512,0.079034,0.003621
3671,-0.076405,0.0288,0.039853
3672,-0.037962,-0.021435,0.021737
3673,-0.057183,-0.021435,0.057969
3674,-0.01874,-0.071669,0.003621
3675,-0.057183,-0.105159,-0.014495
3676,-0.057183,-0.088414,-0.032611
3677,-0.037962,-0.105159,0.021737
3678,0.038924,-0.138648,-0.014495
3679,-0.076405,-0.172138,-0.014495
3680,-0.134069,-0.121903,0.021737
3681,0.096589,0.012055,-0.014495
3682,0.36569,0.079034,0.021737
3683,0.423355,0.263228,0.021737
3684,0.11581,0.296717,0.021737
3685,-0.460835,0.129269,0.003621
3686,-0.114848,0.06229,-0.032611
3687,0.11581,0.06229,-0.032611
3688,0.077367,0.045545,0.021737
3689,0.019703,0.0288,0.039853
3690,0.019703,0.06229,-0.014495
3691,0.000481,0.0288,0.021737
3692,-0.114848,-0.00469,0.003621
