# Requested Sampling Rate (Hz):,1000
# Actual Sampling Rate (Hz):,998.93
# Requested Duration (s):,5.0
# Actual Duration (s):,5.048
# REST Calibration:,831.9749657534268,832.2800684931498,831.8001369863033
# MAX Calibration:,884.0000,892.0000,887.0000
# Normalization: MVC-based  (x_norm = (x - REST) / (MAX - REST))
sample_idx,EMG1,EMG2,EMG3
0,0.000481,-0.00469,-0.014495
1,-0.01874,0.0288,-0.014495
2,-0.01874,0.045545,0.003621
3,0.000481,0.045545,0.039853
4,0.000481,0.012055,0.003621
5,0.019703,-0.00469,-0.014495
6,0.000481,0.045545,-0.014495
7,0.000481,0.06229,0.003621
8,0.000481,0.0288,-0.032611
9,-0.01874,0.012055,-0.050727
10,-0.037962,-0.00469,-0.032611
11,0.000481,0.045545,0.039853
12,-0.01874,0.045545,0.039853
13,0.000481,0.0288,0.003621
14,0.000481,-0.00469,0.021737
15,0.000481,-0.00469,0.003621
16,-0.01874,0.012055,-0.032611
17,0.000481,-0.00469,-0.032611
18,-0.01874,0.012055,-0.032611
19,-0.037962,-0.021435,-0.050727
20,0.000481,-0.00469,0.003621
21,0.019703,0.012055,0.021737
22,-0.01874,-0.021435,0.039853
23,0.000481,-0.00469,0.021737
24,-0.037962,-0.00469,0.003621
25,-0.01874,-0.00469,-0.014495
26,0.000481,-0.00469,-0.068843
27,0.000481,-0.021435,-0.032611
28,-0.01874,0.012055,-0.014495
29,-0.01874,-0.00469,0.003621
30,-0.01874,0.012055,0.021737
31,0.038924,-0.021435,0.039853
32,0.000481,-0.071669,0.021737
33,-0.01874,-0.071669,-0.014495
34,0.000481,-0.071669,-0.032611
35,-0.01874,-0.071669,-0.068843
36,-0.01874,-0.054924,-0.050727
37,-0.01874,-0.00469,-0.068843
38,-0.01874,0.045545,-0.050727
39,0.000481,0.045545,0.003621
40,-0.01874,0.095779,-0.014495
41,0.000481,0.06229,0.021737
42,-0.01874,0.045545,0.021737
43,0.000481,0.0288,0.003621
44,0.000481,0.079034,0.021737
45,-0.01874,0.012055,0.039853
46,0.000481,-0.021435,0.039853
47,0.000481,-0.00469,0.021737
48,0.000481,-0.00469,0.076085
49,0.019703,0.012055,0.039853
50,0.000481,0.012055,0.057969
51,0.000481,0.012055,0.003621
52,-0.01874,0.012055,-0.032611
53,-0.01874,0.012055,-0.014495
54,0.000481,-0.00469,-0.050727
55,-0.01874,0.012055,-0.014495
56,0.000481,-0.00469,0.003621
57,-0.01874,-0.00469,0.021737
58,-0.037962,-0.021435,0.021737
59,0.000481,0.012055,0.039853
60,0.000481,0.012055,-0.014495
61,0.000481,0.012055,-0.050727
62,-0.01874,0.0288,-0.050727
63,0.019703,0.012055,-0.050727
64,-0.01874,0.012055,-0.014495
65,0.019703,-0.00469,0.003621
66,-0.037962,-0.021435,-0.032611
67,0.000481,-0.054924,0.021737
68,0.000481,-0.054924,0.021737
69,-0.01874,-0.038179,-0.014495
70,-0.01874,0.012055,-0.032611
71,-0.01874,0.012055,0.003621
72,0.000481,0.0288,-0.068843
73,0.000481,0.0288,0.003621
74,0.000481,0.045545,0.021737
75,0.019703,0.0288,0.021737
76,0.000481,0.012055,0.021737
77,0.019703,-0.00469,0.039853
78,0.000481,-0.00469,0.003621
79,0.000481,-0.038179,-0.014495
80,0.000481,-0.038179,0.003621
81,-0.01874,-0.038179,-0.068843
82,-0.01874,-0.038179,-0.050727
83,-0.01874,0.012055,0.003621
84,-0.01874,0.012055,-0.050727
85,0.000481,0.045545,0.039853
86,0.019703,0.079034,0.021737
87,0.019703,0.012055,0.003621
88,-0.01874,0.012055,0.039853
89,0.000481,-0.021435,-0.050727
90,0.000481,-0.00469,0.003621
91,0.000481,0.0288,-0.014495
92,0.000481,0.0288,0.003621
93,0.000481,0.0288,0.003621
94,0.019703,0.012055,0.021737
95,0.000481,-0.00469,0.003621
96,-0.01874,-0.00469,-0.032611
97,0.000481,-0.021435,-0.014495
98,0.000481,-0.00469,-0.014495
99,0.000481,0.012055,-0.014495
100,0.000481,0.012055,0.021737
101,0.000481,-0.021435,0.021737
102,0.000481,-0.038179,-0.014495
103,0.019703,-0.038179,0.057969
104,-0.037962,-0.054924,-0.032611
105,-0.01874,-0.038179,-0.032611
106,-0.01874,-0.054924,0.021737
107,0.019703,0.012055,-0.032611
108,0.000481,0.012055,-0.032611
109,0.000481,0.0288,-0.014495
110,0.000481,0.045545,-0.050727
111,0.000481,-0.00469,-0.014495
112,-0.01874,0.012055,0.039853
113,0.000481,0.045545,0.003621
114,-0.01874,0.0288,-0.014495
115,0.019703,0.0288,0.003621
116,0.019703,-0.00469,-0.014495
117,0.000481,-0.021435,-0.032611
118,0.000481,-0.038179,-0.014495
119,-0.01874,-0.021435,-0.014495
120,0.038924,-0.021435,0.003621
121,-0.037962,-0.038179,0.003621
122,0.000481,-0.021435,-0.014495
123,-0.01874,-0.021435,-0.032611
124,-0.01874,-0.021435,0.021737
125,-0.01874,-0.021435,0.003621
126,0.000481,-0.00469,-0.014495
127,-0.01874,-0.00469,0.021737
128,0.000481,0.06229,-0.032611
129,-0.037962,0.0288,0.021737
130,0.000481,0.012055,0.057969
131,0.000481,-0.00469,0.039853
132,0.000481,-0.021435,0.057969
133,0.000481,-0.021435,0.021737
134,0.000481,-0.038179,0.003621
135,0.000481,-0.054924,-0.032611
136,0.019703,-0.021435,0.021737
137,0.000481,-0.00469,-0.032611
138,-0.01874,0.012055,-0.014495
139,-0.01874,0.0288,0.021737
140,0.000481,0.012055,-0.032611
141,-0.01874,0.0288,0.021737
142,-0.01874,0.012055,-0.014495
143,-0.01874,-0.00469,-0.014495
144,0.000481,-0.054924,-0.068843
145,-0.01874,-0.054924,-0.032611
146,0.000481,-0.00469,-0.050727
147,0.000481,-0.021435,-0.014495
148,0.000481,0.012055,0.003621
149,0.019703,0.0288,-0.014495
150,0.019703,-0.038179,0.039853
151,-0.01874,0.012055,-0.032611
152,0.000481,-0.00469,-0.032611
153,0.000481,0.012055,-0.014495
154,0.019703,-0.00469,-0.032611
155,0.000481,0.045545,0.003621
156,-0.01874,0.0288,0.021737
157,0.000481,0.012055,0.076085
158,-0.01874,0.0288,0.003621
159,-0.01874,-0.00469,0.057969
160,0.019703,0.06229,-0.014495
161,0.000481,0.045545,-0.014495
162,0.000481,0.012055,0.003621
163,0.000481,0.012055,-0.014495
164,0.019703,-0.00469,0.003621
165,0.000481,0.012055,0.003621
166,-0.01874,0.0288,0.039853
167,-0.01874,0.0288,0.003621
168,0.019703,0.012055,0.003621
169,-0.01874,-0.021435,-0.014495
170,-0.01874,-0.00469,-0.050727
171,-0.01874,-0.00469,-0.032611
172,-0.01874,-0.00469,-0.068843
173,0.000481,-0.00469,0.003621
174,0.000481,-0.038179,0.021737
175,0.019703,-0.021435,0.057969
176,0.000481,0.0288,0.003621
177,-0.037962,-0.021435,0.039853
178,0.000481,-0.00469,0.021737
179,0.000481,-0.00469,-0.032611
180,-0.037962,-0.00469,0.021737
181,0.000481,-0.00469,-0.032611
182,0.000481,0.045545,-0.014495
183,0.019703,0.012055,0.021737
184,0.000481,-0.00469,0.003621
185,-0.01874,0.012055,0.039853
186,-0.01874,0.012055,0.039853
187,0.000481,-0.00469,0.021737
188,-0.037962,-0.021435,0.003621
189,-0.01874,-0.071669,-0.014495
190,-0.01874,-0.054924,-0.014495
191,-0.01874,-0.054924,0.003621
192,-0.01874,-0.054924,0.039853
193,0.000481,0.012055,0.003621
194,0.000481,0.06229,-0.014495
195,-0.01874,0.079034,0.003621
196,0.000481,0.06229,-0.014495
197,0.000481,0.045545,0.003621
198,-0.01874,0.012055,-0.050727
199,0.000481,0.045545,-0.032611
200,-0.037962,0.0288,0.003621
201,0.000481,0.012055,0.021737
202,-0.01874,-0.00469,0.003621
203,0.000481,-0.00469,0.003621
204,0.000481,-0.021435,0.003621
205,0.000481,-0.00469,-0.014495
206,0.000481,-0.054924,-0.032611
207,0.000481,0.012055,0.003621
208,-0.01874,0.045545,-0.050727
209,-0.01874,0.06229,0.039853
210,0.019703,0.06229,-0.014495
211,0.019703,0.012055,0.003621
212,0.019703,0.012055,0.057969
213,0.019703,-0.021435,0.003621
214,0.000481,-0.00469,-0.014495
215,0.019703,-0.038179,-0.068843
216,0.000481,-0.021435,-0.050727
217,0.000481,-0.00469,-0.032611
218,-0.01874,-0.021435,-0.014495
219,0.000481,0.012055,0.003621
220,0.000481,0.012055,0.003621
221,-0.01874,-0.021435,0.057969
222,0.000481,-0.021435,0.003621
223,0.019703,-0.00469,0.021737
224,-0.01874,-0.038179,0.094201
225,-0.01874,-0.021435,0.003621
226,0.000481,-0.038179,-0.014495
227,0.000481,-0.038179,0.021737
228,-0.01874,0.012055,0.021737
229,-0.01874,-0.021435,0.003621
230,0.000481,0.0288,0.039853
231,0.019703,0.0288,-0.014495
232,0.019703,0.045545,-0.014495
233,-0.01874,0.012055,-0.050727
234,0.000481,-0.021435,-0.032611
235,0.000481,0.012055,0.003621
236,0.019703,0.0288,0.021737
237,0.096589,0.012055,0.057969
238,0.038924,-0.038179,0.021737
239,-0.01874,-0.054924,0.021737
240,0.000481,-0.038179,0.003621
241,0.019703,-0.021435,-0.014495
242,-0.01874,-0.00469,0.003621
243,0.000481,0.045545,-0.032611
244,-0.037962,0.045545,-0.032611
245,-0.01874,0.045545,0.021737
246,0.000481,0.079034,0.003621
247,0.000481,0.045545,-0.014495
248,0.000481,0.045545,0.021737
249,0.000481,0.012055,0.021737
250,0.019703,0.012055,-0.014495
251,0.000481,-0.00469,0.003621
252,0.019703,-0.038179,-0.032611
253,0.038924,-0.00469,0.003621
254,-0.01874,0.012055,0.039853
255,-0.037962,-0.021435,0.003621
256,0.000481,-0.00469,0.039853
257,0.019703,-0.00469,0.039853
258,-0.01874,-0.021435,0.021737
259,-0.01874,-0.00469,0.021737
260,-0.01874,-0.00469,0.003621
261,-0.01874,-0.00469,0.021737
262,0.000481,0.012055,0.021737
263,-0.01874,-0.021435,0.021737
264,-0.037962,-0.038179,-0.014495
265,-0.01874,-0.038179,-0.014495
266,0.000481,-0.021435,0.039853
267,-0.01874,-0.054924,0.021737
268,0.000481,-0.038179,-0.032611
269,-0.01874,-0.038179,0.003621
270,-0.01874,-0.021435,-0.050727
271,-0.01874,-0.021435,-0.032611
272,0.000481,0.045545,0.003621
273,-0.037962,-0.021435,0.003621
274,-0.01874,0.0288,-0.014495
275,-0.01874,0.079034,-0.014495
276,0.000481,0.012055,0.021737
277,0.000481,0.012055,0.003621
278,0.000481,0.012055,-0.014495
279,0.019703,-0.038179,0.003621
280,0.019703,-0.038179,0.003621
281,0.019703,-0.00469,0.039853
282,-0.01874,-0.00469,0.003621
283,0.000481,-0.021435,0.039853
284,-0.01874,0.06229,0.003621
285,0.000481,0.045545,-0.014495
286,-0.01874,0.079034,0.039853
287,0.000481,0.079034,0.003621
288,0.000481,0.045545,0.021737
289,-0.01874,0.012055,0.021737
290,0.019703,0.012055,0.003621
291,0.019703,0.045545,0.003621
292,0.019703,0.0288,0.039853
293,0.019703,0.012055,0.021737
294,0.000481,0.012055,-0.032611
295,0.000481,-0.00469,0.003621
296,0.000481,-0.00469,-0.032611
297,0.000481,-0.021435,-0.050727
298,0.019703,-0.021435,0.003621
299,-0.01874,-0.021435,0.003621
300,-0.01874,-0.071669,0.003621
301,-0.01874,-0.071669,0.021737
302,-0.01874,-0.071669,-0.032611
303,-0.01874,-0.00469,-0.014495
304,-0.01874,0.012055,0.021737
305,0.000481,0.06229,-0.050727
306,-0.01874,0.06229,-0.014495
307,-0.01874,0.045545,-0.014495
308,0.000481,0.06229,-0.014495
309,0.000481,0.0288,0.003621
310,0.000481,0.012055,0.021737
311,-0.01874,0.012055,-0.014495
312,0.019703,0.012055,-0.014495
313,0.019703,0.012055,0.021737
314,0.000481,-0.00469,0.021737
315,-0.01874,-0.021435,0.003621
316,0.000481,0.012055,0.003621
317,-0.01874,-0.021435,-0.068843
318,0.019703,-0.021435,-0.032611
319,0.000481,-0.021435,0.003621
320,-0.01874,-0.038179,-0.032611
321,0.000481,-0.038179,-0.050727
322,0.000481,-0.00469,-0.032611
323,-0.01874,0.012055,0.003621
324,0.000481,0.012055,0.021737
325,0.000481,0.0288,0.039853
326,0.000481,0.012055,0.021737
327,-0.01874,0.012055,0.057969
328,0.000481,0.012055,0.076085
329,0.000481,0.012055,0.057969
330,0.000481,-0.021435,0.003621
331,0.000481,-0.021435,0.021737
332,0.000481,-0.021435,-0.014495
333,0.000481,-0.00469,-0.032611
334,-0.01874,-0.021435,-0.014495
335,-0.01874,-0.088414,-0.014495
336,0.000481,-0.105159,-0.032611
337,-0.01874,-0.088414,-0.014495
338,0.000481,-0.038179,0.003621
339,-0.01874,0.012055,0.039853
340,-0.037962,0.012055,-0.014495
341,0.000481,0.06229,0.003621
342,0.019703,0.112524,-0.032611
343,0.019703,0.129269,-0.014495
344,0.019703,0.079034,0.021737
345,0.019703,0.012055,0.003621
346,0.000481,0.012055,0.039853
347,0.019703,-0.00469,0.003621
348,0.000481,-0.038179,0.057969
349,0.000481,-0.038179,0.003621
350,-0.01874,-0.038179,-0.032611
351,0.000481,-0.038179,0.003621
352,0.000481,-0.00469,0.021737
353,-0.01874,0.045545,0.003621
354,-0.01874,0.0288,0.039853
355,0.019703,0.079034,0.057969
356,0.000481,0.045545,0.021737
357,0.000481,-0.038179,0.003621
358,-0.01874,-0.071669,-0.032611
359,-0.01874,-0.054924,-0.032611
360,0.000481,-0.00469,-0.032611
361,0.019703,-0.00469,-0.032611
362,0.019703,0.0288,0.003621
363,-0.01874,0.045545,0.003621
364,0.000481,0.045545,0.039853
365,0.000481,0.045545,0.003621
366,0.019703,0.0288,0.057969
367,0.000481,-0.00469,0.021737
368,0.019703,-0.054924,0.003621
369,0.000481,-0.054924,-0.014495
370,0.000481,-0.054924,-0.086959
371,-0.01874,-0.038179,-0.050727
372,-0.01874,-0.00469,-0.032611
373,-0.01874,0.012055,0.021737
374,0.000481,0.0288,0.003621
375,-0.01874,0.0288,-0.032611
376,0.000481,0.012055,-0.014495
377,-0.01874,0.012055,-0.050727
378,-0.01874,-0.038179,-0.014495
379,0.000481,-0.021435,-0.050727
380,-0.01874,-0.021435,0.003621
381,0.000481,-0.00469,0.003621
382,0.000481,-0.00469,0.039853
383,0.000481,0.0288,0.057969
384,-0.01874,-0.00469,0.076085
385,0.000481,-0.054924,0.039853
386,0.000481,-0.121903,0.003621
387,-0.01874,-0.172138,-0.014495
388,-0.01874,-0.172138,-0.032611
389,-0.057183,-0.121903,0.003621
390,-0.037962,-0.071669,0.003621
391,-0.01874,0.012055,0.003621
392,-0.01874,0.112524,0.003621
393,0.019703,0.196248,0.003621
394,0.019703,0.146014,-0.014495
395,0.019703,0.162759,-0.014495
396,0.019703,0.129269,0.003621
397,0.019703,0.06229,-0.014495
398,0.000481,0.045545,-0.014495
399,0.019703,0.0288,0.021737
400,0.000481,-0.021435,0.021737
401,-0.01874,-0.021435,0.021737
402,0.000481,-0.038179,0.003621
403,-0.01874,-0.071669,-0.014495
404,-0.01874,-0.105159,-0.032611
405,-0.01874,-0.088414,0.003621
406,-0.01874,-0.088414,-0.032611
407,0.000481,-0.021435,-0.032611
408,0.000481,0.012055,0.021737
409,0.000481,0.045545,0.003621
410,0.000481,0.112524,-0.014495
411,-0.01874,0.079034,0.039853
412,-0.01874,0.112524,-0.014495
413,-0.01874,0.095779,-0.014495
414,0.000481,0.045545,0.021737
415,-0.01874,0.06229,0.003621
416,0.000481,0.095779,-0.014495
417,0.000481,0.095779,0.003621
418,0.019703,0.0288,-0.032611
419,0.000481,-0.00469,-0.014495
420,0.019703,-0.00469,0.057969
421,-0.01874,-0.021435,0.021737
422,0.019703,-0.021435,-0.032611
423,0.000481,-0.00469,0.021737
424,0.000481,0.012055,-0.032611
425,0.000481,-0.00469,-0.014495
426,0.000481,-0.021435,0.039853
427,0.038924,0.012055,0.021737
428,0.000481,-0.00469,0.039853
429,-0.01874,0.012055,0.076085
430,0.000481,0.012055,0.039853
431,0.000481,0.012055,-0.014495
432,0.000481,0.0288,0.021737
433,0.000481,-0.00469,-0.050727
434,0.000481,-0.00469,-0.032611
435,-0.01874,-0.021435,-0.014495
436,-0.01874,-0.038179,-0.068843
437,0.000481,-0.054924,0.003621
438,-0.037962,-0.054924,0.003621
439,0.000481,-0.038179,-0.014495
440,-0.037962,-0.071669,-0.014495
441,-0.037962,-0.021435,-0.032611
442,-0.01874,-0.054924,-0.050727
443,-0.01874,-0.054924,0.003621
444,0.000481,-0.021435,0.021737
445,-0.037962,-0.038179,0.021737
446,-0.01874,0.012055,0.057969
447,0.000481,0.012055,0.039853
448,-0.01874,0.045545,0.021737
449,0.000481,0.045545,-0.014495
450,0.000481,0.045545,-0.032611
451,0.000481,0.079034,-0.032611
452,0.000481,0.045545,0.021737
453,0.000481,0.012055,0.021737
454,0.019703,0.0288,0.039853
455,0.000481,-0.021435,0.057969
456,0.000481,-0.021435,0.021737
457,-0.01874,-0.054924,0.003621
458,0.000481,-0.038179,0.039853
459,0.000481,-0.105159,0.003621
460,-0.01874,-0.138648,-0.032611
461,-0.01874,-0.105159,-0.014495
462,0.000481,-0.105159,-0.032611
463,-0.037962,-0.088414,0.021737
464,-0.01874,-0.038179,0.039853
465,-0.01874,-0.00469,0.003621
466,-0.01874,0.012055,-0.032611
467,0.000481,0.012055,-0.032611
468,-0.01874,-0.021435,-0.050727
469,0.000481,0.012055,-0.032611
470,0.000481,0.112524,0.039853
471,-0.01874,0.045545,0.003621
472,0.019703,-0.00469,0.039853
473,0.000481,-0.054924,0.076085
474,0.019703,-0.054924,0.003621
475,-0.01874,-0.038179,-0.014495
476,-0.01874,0.0288,0.003621
477,-0.01874,0.095779,-0.050727
478,0.000481,0.146014,-0.086959
479,0.000481,0.196248,-0.032611
480,0.019703,0.229738,-0.050727
481,0.038924,0.162759,0.003621
482,0.096589,0.06229,0.021737
483,0.000481,-0.038179,-0.014495
484,0.000481,-0.038179,-0.050727
485,-0.01874,-0.038179,-0.014495
486,0.000481,-0.021435,-0.032611
487,0.000481,-0.021435,0.003621
488,0.000481,-0.054924,0.021737
489,-0.01874,-0.138648,0.021737
490,-0.01874,-0.255862,0.021737
491,-0.01874,-0.222372,0.076085
492,-0.01874,-0.306097,0.021737
493,0.000481,-0.222372,0.057969
494,-0.01874,-0.121903,0.003621
495,-0.01874,-0.00469,-0.032611
496,-0.037962,0.162759,-0.068843
497,-0.01874,0.279972,-0.014495
498,0.019703,0.296717,-0.050727
499,0.000481,0.162759,-0.014495
500,0.038924,0.112524,0.021737
501,0.058146,0.112524,-0.014495
502,0.038924,0.095779,0.039853
503,0.019703,0.129269,-0.014495
504,0.038924,0.162759,-0.032611
505,0.000481,0.112524,0.021737
506,0.038924,0.112524,-0.014495
507,-0.01874,0.079034,0.021737
508,0.000481,-0.00469,0.003621
509,0.000481,-0.054924,0.039853
510,0.000481,-0.021435,-0.014495
511,0.000481,-0.038179,0.003621
512,0.000481,-0.054924,-0.014495
513,0.000481,-0.021435,-0.032611
514,-0.01874,-0.071669,-0.014495
515,-0.01874,-0.105159,-0.032611
516,-0.01874,-0.121903,0.021737
517,-0.01874,-0.088414,0.021737
518,-0.037962,-0.071669,0.021737
519,-0.01874,-0.054924,-0.014495
520,0.000481,0.045545,0.057969
521,0.019703,0.112524,0.021737
522,0.038924,0.196248,-0.050727
523,0.019703,0.129269,0.003621
524,-0.01874,0.079034,-0.050727
525,0.000481,0.095779,0.003621
526,0.019703,0.079034,0.039853
527,0.019703,-0.00469,0.021737
528,0.000481,-0.054924,0.039853
529,-0.01874,-0.038179,0.003621
530,-0.037962,-0.054924,-0.032611
531,-0.01874,-0.038179,-0.014495
532,-0.01874,0.0288,0.039853
533,-0.037962,0.012055,0.003621
534,-0.037962,0.012055,0.021737
535,-0.037962,0.0288,0.003621
536,-0.037962,-0.021435,-0.014495
537,-0.01874,-0.054924,0.003621
538,-0.01874,-0.088414,-0.014495
539,-0.01874,-0.155393,-0.050727
540,0.000481,-0.188883,-0.068843
541,-0.037962,-0.188883,-0.032611
542,-0.057183,-0.121903,-0.086959
543,-0.057183,-0.071669,-0.014495
544,-0.037962,-0.105159,0.057969
545,-0.01874,-0.088414,-0.014495
546,0.000481,-0.021435,0.021737
547,-0.01874,-0.071669,0.003621
548,-0.057183,-0.054924,-0.014495
549,-0.01874,-0.054924,-0.014495
550,-0.01874,-0.105159,-0.014495
551,0.000481,-0.038179,0.003621
552,0.019703,-0.00469,0.039853
553,0.019703,0.112524,0.039853
554,0.019703,0.146014,-0.032611
555,0.019703,0.196248,-0.014495
556,0.038924,0.296717,-0.050727
557,0.058146,0.313462,-0.014495
558,0.058146,0.179503,-0.032611
559,0.038924,-0.021435,-0.014495
560,0.000481,-0.239117,0.003621
561,-0.01874,-0.272607,0.021737
562,-0.037962,-0.188883,0.021737
563,0.000481,-0.054924,0.021737
564,-0.01874,0.012055,0.057969
565,-0.037962,0.129269,-0.032611
566,-0.01874,0.246483,-0.032611
567,0.019703,0.263228,0.021737
568,0.019703,0.146014,-0.032611
569,-0.01874,-0.071669,-0.032611
570,-0.037962,-0.121903,-0.032611
571,-0.01874,-0.188883,0.003621
572,-0.01874,-0.188883,0.003621
573,-0.037962,-0.188883,0.003621
574,-0.057183,-0.054924,-0.014495
575,-0.01874,0.06229,-0.032611
576,-0.01874,0.162759,-0.014495
577,-0.01874,0.146014,0.003621
578,-0.037962,0.196248,0.003621
579,0.019703,0.296717,0.039853
580,0.058146,0.229738,0.094201
581,0.077367,0.06229,0.021737
582,0.019703,-0.071669,0.057969
583,0.019703,-0.239117,0.021737
584,0.000481,-0.322841,-0.014495
585,0.000481,-0.289352,-0.014495
586,-0.01874,-0.121903,-0.032611
587,-0.037962,-0.00469,-0.014495
588,-0.037962,0.112524,-0.014495
589,0.000481,0.162759,-0.014495
590,0.038924,0.129269,0.094201
591,0.019703,-0.00469,0.076085
592,0.038924,-0.00469,0.039853
593,-0.01874,-0.054924,0.003621
594,-0.076405,-0.138648,-0.032611
595,-0.037962,-0.138648,-0.086959
596,-0.037962,-0.038179,-0.068843
597,0.000481,0.095779,-0.014495
598,0.038924,0.146014,-0.014495
599,0.058146,0.146014,0.003621
600,-0.037962,0.0288,0.003621
601,-0.01874,0.095779,-0.068843
602,-0.01874,0.196248,-0.068843
603,-0.01874,0.095779,-0.014495
604,0.019703,0.06229,-0.014495
605,0.038924,-0.00469,-0.014495
606,0.019703,0.06229,0.039853
607,0.000481,0.012055,0.039853
608,-0.037962,-0.071669,0.021737
609,-0.057183,0.095779,0.003621
610,0.038924,0.112524,-0.014495
611,0.019703,0.06229,-0.050727
612,0.019703,0.079034,0.021737
613,0.000481,-0.038179,-0.032611
614,0.000481,-0.071669,0.021737
615,0.038924,-0.239117,0.057969
616,0.019703,-0.289352,0.039853
617,0.000481,-0.306097,0.003621
618,-0.057183,-0.356331,-0.032611
619,-0.076405,-0.289352,-0.068843
620,-0.076405,-0.255862,-0.068843
621,-0.037962,-0.188883,-0.014495
622,-0.037962,-0.239117,-0.050727
623,-0.037962,-0.222372,0.039853
624,-0.114848,-0.105159,0.039853
625,-0.01874,0.196248,0.003621
626,0.019703,0.598124,0.039853
627,0.077367,0.715338,0.003621
628,0.058146,0.681848,-0.014495
629,0.058146,0.5144,-0.032611
630,0.058146,0.246483,0.003621
631,0.058146,0.129269,0.039853
632,0.019703,0.045545,0.039853
633,0.000481,-0.038179,0.039853
634,0.019703,-0.00469,-0.050727
635,0.000481,-0.038179,0.003621
636,0.000481,-0.088414,-0.014495
637,-0.01874,-0.222372,0.003621
638,-0.01874,-0.440055,0.003621
639,0.000481,-0.440055,-0.014495
640,-0.01874,-0.339586,0.003621
641,0.019703,-0.188883,-0.014495
642,-0.037962,-0.00469,-0.032611
643,0.000481,0.313462,0.003621
644,0.038924,0.162759,0.021737
645,-0.01874,-0.038179,0.021737
646,0.077367,-0.038179,0.039853
647,0.11581,-0.205628,0.021737
648,0.058146,-0.289352,-0.050727
649,0.077367,-0.088414,-0.050727
650,0.058146,-0.038179,-0.014495
651,-0.095626,-0.222372,0.094201
652,-0.326285,-0.624248,0.021737
653,-0.095626,-0.724717,0.130433
654,0.154253,-0.49029,0.076085
655,0.192696,-0.289352,-0.032611
656,0.096589,-0.071669,-0.032611
657,0.154253,0.397186,-0.032611
658,0.058146,0.614869,-0.014495
659,-0.364728,0.799062,0.057969
660,-0.729936,0.246483,-0.032611
661,-0.556943,-0.389821,0.057969
662,-0.114848,-0.523779,0.076085
663,-0.057183,-0.306097,-0.050727
664,0.231139,-0.172138,-0.086959
665,0.269582,-0.205628,-0.050727
666,0.11581,-0.088414,-0.014495
667,-0.134069,-0.038179,-0.014495
668,0.077367,-0.088414,0.003621
669,0.038924,-0.155393,-0.068843
670,0.058146,0.246483,-0.014495
671,0.211918,0.983255,0.021737
672,0.288804,1.401876,0.003621
673,0.36569,1.51909,-0.068843
674,0.538684,1.284662,-0.050727
675,0.231139,0.715338,-0.086959
676,-0.153291,0.464165,-0.086959
677,-0.076405,0.296717,-0.014495
678,-0.01874,-0.205628,-0.086959
679,0.077367,-0.4568,-0.050727
680,0.038924,-0.473545,-0.050727
681,0.058146,-0.507035,-0.032611
682,0.000481,-0.590759,0.003621
683,-0.345506,-0.657738,-0.014495
684,-0.26862,-0.188883,-0.050727
685,0.019703,0.079034,-0.050727
686,-0.01874,-0.155393,0.039853
687,-0.095626,-0.021435,-0.014495
688,-0.210955,0.146014,0.003621
689,-0.249399,0.012055,0.076085
690,-0.172512,-0.356331,0.039853
691,-0.01874,-0.440055,0.021737
692,0.154253,-0.038179,0.057969
693,0.11581,0.112524,0.039853
694,-0.01874,0.129269,0.039853
695,-0.287842,-0.205628,0.057969
696,-0.537721,-0.624248,-0.014495
697,-0.345506,-0.373076,0.003621
698,0.000481,-0.121903,0.003621
699,0.058146,0.246483,-0.068843
700,0.346468,0.430676,-0.032611
701,0.346468,0.832552,0.003621
702,0.11581,0.866041,0.003621
703,0.019703,0.346952,-0.032611
704,-0.076405,-0.557269,-0.014495
705,-0.114848,-1.176828,0.039853
706,-0.037962,-1.478235,0.039853
707,0.077367,-1.059614,-0.032611
708,0.154253,-0.49029,-0.086959
709,0.211918,0.48091,-0.014495
710,0.135032,1.51909,0.094201
711,0.192696,0.765572,0.076085
712,0.211918,0.246483,0.039853
713,0.442576,0.196248,-0.032611
714,0.461798,0.212993,-0.086959
715,0.288804,0.212993,-0.050727
716,-0.403171,0.06229,-0.014495
717,-0.383949,-0.071669,0.076085
718,0.423355,-0.306097,0.057969
719,0.538684,-0.42331,-0.032611
720,0.019703,-0.373076,-0.032611
721,-1.268139,0.06229,-0.050727
722,-0.65305,0.54789,0.003621
723,0.173475,0.346952,-0.032611
724,0.423355,0.146014,0.039853
725,-0.210955,-0.590759,-0.086959
726,-0.614607,-0.691228,-0.050727
727,-0.230177,-0.507035,0.076085
728,-0.134069,-0.49029,0.021737
729,-0.633829,0.079034,-0.086959
730,-0.230177,0.96651,-0.105075
731,-0.114848,0.983255,-0.032611
732,0.192696,0.681848,-0.068843
733,0.692456,0.346952,0.039853
734,1.134551,0.330207,0.148549
735,1.0,-0.306097,0.039853
736,0.61557,-0.657738,0.021737
737,0.250361,-0.222372,0.021737
738,-0.172512,-0.925655,-0.050727
739,-0.480057,-1.344276,-0.105075
740,0.077367,-0.875421,-0.123191
741,-0.172512,-0.105159,-0.086959
742,-0.249399,0.229738,-0.050727
743,-0.556943,0.564634,0.021737
744,-0.422392,0.665103,0.057969
745,-0.326285,0.363697,0.184781
746,-0.749158,0.397186,0.094201
747,-0.556943,0.162759,-0.014495
748,0.980778,0.5144,-0.014495
749,1.941854,1.083724,0.003621
750,1.211437,1.401876,-0.050727
751,0.423355,1.45211,0.003621
752,0.058146,0.497655,-0.050727
753,0.000481,-0.356331,-0.105075
754,-0.01874,-0.590759,-0.050727
755,-0.960595,-0.574014,-0.086959
756,-0.556943,-0.825186,-0.014495
757,0.192696,-0.054924,0.130433
758,0.461798,-0.222372,0.039853
759,-0.441614,-0.574014,-0.050727
760,-0.883709,-0.49029,-0.086959
761,-0.26862,-0.339586,-0.086959
762,0.135032,0.162759,-0.050727
763,-0.134069,0.129269,0.039853
764,-0.499278,-0.523779,-0.014495
765,-0.26862,-0.875421,-0.068843
766,0.519462,-0.574014,0.003621
767,0.269582,-0.339586,0.003621
768,-0.576164,0.330207,0.003621
769,-0.672272,-0.306097,0.039853
770,0.231139,0.229738,0.003621
771,0.788563,0.832552,0.057969
772,0.500241,0.531145,-0.068843
773,-0.864487,0.54789,-0.105075
774,-0.65305,1.284662,0.003621
775,-0.01874,1.133959,0.112317
776,-0.095626,0.363697,0.076085
777,-0.556943,-0.255862,0.039853
778,-0.364728,-0.607504,-0.032611
779,-0.095626,-0.389821,-0.105075
780,-0.172512,0.112524,-0.014495
781,-0.672272,0.079034,-0.032611
782,-0.556943,0.012055,-0.032611
783,0.000481,0.079034,0.039853
784,0.692456,0.229738,0.184781
785,0.673234,-0.272607,0.039853
786,-0.01874,-0.339586,-0.086959
787,-0.326285,-0.105159,-0.086959
788,0.058146,-0.088414,-0.105075
789,0.154253,-0.038179,0.003621
790,0.135032,-0.440055,0.021737
791,0.308025,-1.210317,0.021737
792,0.500241,-1.511724,0.003621
793,-0.057183,-1.227062,-0.032611
794,-0.26862,-1.026124,-0.105075
795,0.75012,0.112524,0.021737
796,0.980778,0.665103,0.057969
797,-0.153291,0.012055,0.021737
798,-0.537721,-0.105159,-0.032611
799,-0.326285,0.363697,-0.068843
800,0.769342,1.686538,-0.086959
801,0.442576,2.674483,0.021737
802,0.231139,1.954455,0.057969
803,-0.691493,0.96651,-0.014495
804,-0.960595,0.464165,-0.014495
805,-0.460835,0.129269,0.021737
806,-0.249399,-0.155393,0.003621
807,-0.191734,-0.507035,0.003621
808,0.038924,-0.724717,0.057969
809,0.11581,-0.808441,0.039853
810,-0.210955,-0.841931,0.021737
811,-0.210955,-0.42331,0.003621
812,-0.076405,0.162759,-0.032611
813,0.038924,0.397186,-0.123191
814,0.11581,0.296717,-0.068843
815,0.000481,0.313462,-0.050727
816,0.038924,-0.038179,-0.014495
817,0.000481,-0.406566,-0.014495
818,-0.01874,-0.373076,0.003621
819,-0.037962,-0.071669,-0.050727
820,-0.037962,-0.021435,0.003621
821,-0.01874,0.06229,-0.050727
822,0.000481,0.129269,-0.032611
823,0.019703,0.196248,0.021737
824,-0.037962,-0.389821,-0.014495
825,-0.095626,-0.724717,-0.014495
826,-0.114848,-0.607504,-0.032611
827,-0.172512,-0.624248,-0.068843
828,-0.095626,-0.054924,-0.050727
829,0.038924,0.732083,0.057969
830,0.077367,0.48091,0.057969
831,0.019703,0.246483,0.039853
832,0.019703,0.045545,-0.032611
833,0.000481,-0.021435,-0.105075
834,-0.01874,0.079034,-0.050727
835,-0.01874,0.06229,-0.014495
836,-0.037962,-0.172138,0.003621
837,-0.037962,-0.054924,0.021737
838,-0.037962,0.012055,0.039853
839,-0.037962,-0.088414,-0.050727
840,-0.057183,-0.272607,-0.050727
841,-0.057183,-0.389821,-0.050727
842,-0.114848,-0.607504,-0.068843
843,-0.134069,-0.657738,-0.105075
844,-0.076405,-0.373076,-0.032611
845,-0.037962,-0.172138,0.039853
846,0.000481,0.196248,0.003621
847,0.019703,0.447421,0.112317
848,0.038924,0.095779,0.094201
849,0.000481,-0.306097,0.076085
850,-0.01874,-0.322841,0.130433
851,-0.095626,-0.42331,0.039853
852,-0.057183,-0.188883,0.057969
853,-0.037962,-0.054924,0.094201
854,-0.037962,-0.373076,0.021737
855,-0.037962,-0.540524,0.094201
856,-0.037962,-0.172138,0.039853
857,-0.095626,-0.389821,-0.086959
858,-0.037962,-0.322841,-0.086959
859,0.058146,0.748828,0.112317
860,0.154253,0.095779,0.039853
861,0.288804,-0.540524,-0.032611
862,0.404133,0.179503,0.021737
863,-0.230177,0.564634,-0.032611
864,-0.26862,1.0,-0.014495
865,0.077367,1.301407,0.057969
866,0.269582,0.531145,0.039853
867,0.173475,0.146014,-0.032611
868,0.211918,-0.054924,-0.032611
869,-0.191734,0.06229,-0.014495
870,-0.076405,0.313462,-0.050727
871,0.269582,0.146014,-0.014495
872,0.154253,0.095779,-0.050727
873,-0.057183,-0.105159,-0.014495
874,-0.210955,-0.222372,0.021737
875,-0.210955,-0.172138,0.021737
876,0.038924,-0.590759,0.039853
877,-0.057183,-0.42331,-0.014495
878,-0.230177,-0.289352,-0.068843
879,-0.191734,-0.791697,-0.123191
880,0.058146,-0.155393,0.003621
881,0.173475,0.229738,-0.068843
882,-0.095626,0.045545,-0.068843
883,-0.095626,0.229738,0.003621
884,0.154253,0.581379,0.039853
885,0.019703,0.313462,-0.050727
886,-0.037962,0.54789,-0.050727
887,0.173475,0.849297,-0.014495
888,0.250361,0.564634,-0.014495
889,0.154253,0.263228,0.039853
890,-0.230177,0.095779,0.021737
891,-0.095626,-0.00469,-0.032611
892,-0.076405,-0.071669,0.039853
893,-0.01874,-0.088414,-0.032611
894,0.000481,-0.105159,-0.014495
895,0.000481,-0.121903,0.021737
896,0.077367,-0.155393,0.057969
897,0.000481,-0.188883,0.039853
898,0.000481,-0.155393,0.094201
899,0.000481,-0.071669,0.039853
900,0.019703,-0.021435,0.094201
901,-0.037962,-0.054924,0.039853
902,-0.076405,-0.105159,-0.014495
903,-0.037962,-0.105159,0.057969
904,-0.037962,-0.071669,0.057969
905,-0.01874,-0.105159,0.003621
906,-0.037962,-0.071669,-0.050727
907,-0.01874,-0.121903,-0.105075
908,-0.01874,-0.088414,-0.159423
909,0.000481,-0.105159,-0.105075
910,-0.01874,-0.105159,-0.032611
911,-0.01874,-0.071669,-0.032611
912,0.019703,-0.021435,0.003621
913,0.019703,-0.00469,-0.014495
914,-0.01874,-0.054924,-0.014495
915,0.000481,-0.071669,-0.032611
916,-0.037962,-0.038179,-0.014495
917,-0.01874,-0.021435,-0.014495
918,0.000481,0.045545,0.076085
919,0.000481,0.0288,0.130433
920,-0.01874,0.012055,0.112317
921,0.000481,-0.00469,0.112317
922,-0.01874,0.012055,0.166665
923,0.000481,0.0288,0.148549
924,0.000481,-0.00469,0.076085
925,-0.057183,-0.021435,0.057969
926,-0.037962,-0.071669,-0.141307
927,-0.057183,-0.272607,-0.213771
928,-0.057183,-0.339586,-0.159423
929,-0.01874,-0.4568,-0.141307
930,-0.057183,-0.590759,-0.050727
931,-0.037962,-0.42331,-0.068843
932,0.019703,0.045545,-0.032611
933,0.077367,0.330207,-0.050727
934,0.077367,0.665103,0.003621
935,0.077367,0.598124,-0.014495
936,0.038924,0.313462,-0.032611
937,0.038924,0.162759,0.003621
938,-0.01874,0.095779,-0.014495
939,-0.01874,0.0288,0.003621
940,0.000481,0.012055,0.021737
941,-0.01874,0.012055,-0.032611
942,-0.01874,-0.00469,0.039853
943,0.000481,-0.00469,-0.032611
944,0.000481,-0.021435,0.003621
945,0.000481,-0.00469,-0.014495
946,0.000481,-0.00469,-0.014495
947,0.000481,0.0288,-0.014495
948,-0.037962,-0.021435,0.057969
949,0.019703,-0.021435,0.057969
950,-0.01874,-0.00469,0.039853
951,0.000481,-0.021435,0.076085
952,-0.01874,-0.038179,0.039853
953,-0.01874,-0.054924,0.021737
954,-0.037962,-0.138648,-0.014495
955,-0.037962,-0.172138,-0.032611
956,-0.037962,-0.272607,-0.105075
957,-0.01874,-0.272607,-0.086959
958,-0.037962,-0.255862,-0.086959
959,-0.01874,-0.322841,-0.068843
960,0.000481,-0.322841,0.021737
961,-0.01874,-0.121903,0.003621
962,-0.037962,0.079034,-0.050727
963,-0.01874,0.079034,-0.068843
964,0.038924,0.397186,0.003621
965,0.058146,0.614869,0.039853
966,0.038924,0.296717,0.021737
967,0.058146,0.212993,0.021737
968,0.038924,0.212993,0.003621
969,0.038924,0.162759,0.021737
970,0.019703,0.179503,0.003621
971,0.000481,0.129269,-0.014495
972,0.019703,0.079034,-0.050727
973,0.000481,0.012055,-0.014495
974,0.019703,-0.00469,-0.032611
975,0.000481,-0.021435,0.003621
976,-0.01874,-0.021435,0.021737
977,0.000481,-0.00469,0.039853
978,0.000481,-0.071669,0.039853
979,0.000481,-0.121903,0.003621
980,-0.057183,-0.255862,-0.014495
981,-0.057183,-0.255862,-0.014495
982,-0.037962,-0.205628,-0.014495
983,0.019703,-0.121903,-0.032611
984,0.077367,-0.00469,0.003621
985,0.058146,-0.021435,0.021737
986,0.000481,-0.105159,-0.050727
987,-0.057183,-0.054924,-0.014495
988,-0.01874,0.162759,-0.014495
989,-0.037962,0.079034,0.021737
990,-0.037962,-0.205628,0.021737
991,-0.076405,-0.272607,0.021737
992,-0.057183,-0.255862,0.021737
993,-0.01874,-0.00469,0.039853
994,0.000481,0.162759,0.021737
995,0.077367,0.54789,0.003621
996,0.11581,0.447421,0.057969
997,0.077367,0.162759,0.057969
998,0.019703,0.095779,0.003621
999,0.019703,0.112524,-0.014495
1000,0.019703,0.06229,0.003621
1001,0.019703,0.0288,-0.032611
1002,0.038924,0.012055,0.003621
1003,0.019703,0.045545,0.057969
1004,0.019703,0.0288,0.094201
1005,0.000481,0.06229,0.148549
1006,0.019703,0.045545,0.184781
1007,-0.01874,-0.00469,0.094201
1008,0.000481,-0.00469,0.076085
1009,-0.037962,-0.038179,0.076085
1010,-0.01874,-0.038179,-0.050727
1011,0.000481,-0.071669,-0.086959
1012,-0.01874,-0.054924,-0.123191
1013,0.000481,-0.071669,-0.105075
1014,0.000481,-0.071669,-0.105075
1015,0.019703,-0.054924,-0.032611
1016,-0.01874,-0.038179,-0.050727
1017,0.019703,-0.038179,0.021737
1018,0.019703,-0.00469,-0.014495
1019,0.000481,-0.00469,-0.068843
1020,0.019703,-0.021435,0.003621
1021,0.019703,-0.00469,-0.032611
1022,0.019703,-0.00469,0.003621
1023,0.019703,0.0288,0.021737
1024,0.000481,-0.00469,0.039853
1025,0.000481,0.0288,0.021737
1026,-0.01874,0.0288,0.076085
1027,0.000481,-0.021435,0.039853
1028,0.000481,0.012055,0.112317
1029,0.000481,0.0288,0.112317
1030,0.000481,0.045545,0.112317
1031,0.000481,0.012055,0.057969
1032,0.000481,-0.054924,-0.014495
1033,-0.01874,-0.054924,-0.014495
1034,0.000481,-0.00469,0.003621
1035,-0.01874,-0.021435,-0.068843
1036,-0.037962,-0.021435,-0.123191
1037,0.000481,-0.021435,-0.123191
1038,-0.01874,-0.021435,-0.086959
1039,0.000481,-0.054924,-0.105075
1040,0.019703,-0.00469,-0.050727
1041,0.019703,-0.071669,0.003621
1042,-0.037962,-0.255862,0.057969
1043,-0.076405,-0.4568,0.021737
1044,-0.076405,-0.523779,0.057969
1045,-0.095626,-0.640993,-0.068843
1046,-0.076405,-0.4568,-0.068843
1047,0.019703,0.129269,-0.068843
1048,0.11581,0.698593,-0.014495
1049,0.058146,0.346952,-0.050727
1050,0.000481,0.079034,-0.050727
1051,0.000481,0.313462,0.039853
1052,0.019703,0.497655,-0.014495
1053,0.038924,0.363697,0.057969
1054,0.077367,0.346952,0.057969
1055,0.038924,0.279972,0.076085
1056,0.019703,0.179503,0.094201
1057,0.000481,0.179503,0.094201
1058,0.019703,0.095779,0.057969
1059,0.000481,0.045545,0.112317
1060,0.000481,-0.021435,0.076085
1061,-0.057183,-0.054924,0.039853
1062,0.000481,-0.054924,0.003621
1063,-0.01874,-0.088414,-0.050727
1064,-0.01874,-0.138648,-0.105075
1065,-0.057183,-0.105159,-0.068843
1066,0.019703,0.045545,-0.068843
1067,0.038924,0.095779,-0.050727
1068,-0.01874,-0.155393,-0.032611
1069,-0.057183,-0.272607,-0.014495
1070,-0.037962,-0.289352,0.021737
1071,-0.01874,-0.222372,0.057969
1072,-0.037962,-0.121903,0.057969
1073,0.000481,0.146014,0.039853
1074,0.038924,0.346952,0.076085
1075,0.058146,0.313462,0.094201
1076,0.019703,0.162759,0.057969
1077,0.000481,0.06229,0.112317
1078,-0.01874,0.06229,0.166665
1079,-0.01874,0.06229,0.166665
1080,0.019703,0.06229,0.184781
1081,0.000481,0.045545,0.166665
1082,0.000481,0.0288,0.094201
1083,-0.01874,0.012055,0.112317
1084,-0.01874,0.012055,0.076085
1085,-0.01874,0.012055,0.003621
1086,-0.01874,-0.021435,-0.123191
1087,-0.01874,-0.038179,-0.177539
1088,0.019703,-0.088414,-0.231887
1089,0.019703,-0.071669,-0.123191
1090,0.000481,-0.038179,-0.014495
1091,0.000481,-0.00469,-0.014495
1092,-0.037962,-0.054924,-0.032611
1093,-0.037962,-0.071669,-0.068843
1094,0.019703,-0.054924,-0.105075
1095,0.058146,-0.038179,-0.105075
1096,0.038924,-0.021435,-0.032611
1097,0.019703,-0.00469,0.057969
1098,-0.01874,0.0288,0.221013
1099,0.019703,0.0288,0.311592
1100,0.038924,0.06229,0.438404
1101,0.038924,0.112524,0.528984
1102,0.038924,0.129269,0.474636
1103,0.038924,0.095779,0.45652
1104,0.000481,0.095779,0.311592
1105,0.000481,0.0288,0.130433
1106,-0.01874,0.012055,-0.123191
1107,0.019703,-0.054924,-0.268119
1108,0.000481,-0.071669,-0.413047
1109,0.000481,-0.138648,-0.521743
1110,-0.01874,-0.155393,-0.557975
1111,-0.01874,-0.155393,-0.539859
1112,-0.01874,-0.172138,-0.467395
1113,0.000481,-0.105159,-0.358699
1114,0.019703,-0.071669,-0.195655
1115,0.000481,-0.054924,-0.123191
1116,0.000481,-0.038179,-0.068843
1117,0.038924,-0.038179,0.003621
1118,0.000481,-0.038179,-0.050727
1119,0.019703,0.012055,0.039853
1120,0.019703,0.045545,0.039853
1121,0.000481,-0.00469,0.003621
1122,0.019703,-0.021435,0.003621
1123,-0.01874,0.012055,0.039853
1124,0.000481,0.012055,0.039853
1125,0.019703,0.0288,0.094201
1126,0.019703,0.0288,0.076085
1127,0.000481,0.012055,0.021737
1128,0.019703,-0.00469,0.094201
1129,0.038924,-0.00469,0.057969
1130,0.019703,0.045545,0.021737
1131,0.019703,0.045545,0.021737
1132,0.000481,0.012055,-0.014495
1133,-0.037962,-0.021435,-0.086959
1134,-0.037962,-0.00469,-0.068843
1135,0.019703,0.06229,-0.014495
1136,-0.01874,0.0288,0.003621
1137,-0.037962,-0.00469,0.021737
1138,-0.01874,-0.071669,0.057969
1139,0.019703,-0.038179,0.094201
1140,0.038924,-0.038179,0.094201
1141,0.019703,-0.00469,0.076085
1142,0.038924,0.045545,0.039853
1143,0.000481,0.146014,0.057969
1144,0.019703,0.229738,0.076085
1145,0.000481,0.129269,0.021737
1146,-0.01874,0.0288,0.003621
1147,-0.01874,-0.00469,-0.014495
1148,0.000481,-0.088414,-0.086959
1149,-0.01874,-0.088414,-0.086959
1150,-0.01874,-0.105159,-0.068843
1151,-0.01874,-0.071669,-0.086959
1152,-0.076405,-0.071669,-0.086959
1153,0.000481,0.012055,-0.050727
1154,-0.01874,0.112524,-0.068843
1155,-0.01874,0.095779,-0.014495
1156,0.000481,0.012055,0.021737
1157,0.019703,0.012055,0.057969
1158,0.000481,0.012055,0.057969
1159,0.019703,0.0288,0.094201
1160,0.038924,0.0288,0.021737
1161,-0.01874,0.012055,0.039853
1162,0.000481,-0.00469,0.039853
1163,-0.01874,0.012055,0.039853
1164,0.000481,0.0288,0.057969
1165,0.000481,0.0288,0.094201
1166,0.038924,-0.00469,0.003621
1167,0.019703,-0.038179,0.039853
1168,0.000481,-0.021435,0.021737
1169,0.019703,0.012055,0.021737
1170,0.000481,-0.00469,0.003621
1171,0.000481,-0.00469,-0.014495
1172,0.019703,-0.00469,-0.014495
1173,0.038924,0.045545,0.094201
1174,0.038924,0.06229,0.202897
1175,0.000481,0.045545,0.148549
1176,0.019703,0.045545,0.148549
1177,0.000481,0.012055,0.076085
1178,0.000481,-0.00469,-0.032611
1179,-0.01874,-0.00469,-0.123191
1180,0.000481,-0.054924,-0.177539
1181,0.000481,-0.00469,-0.195655
1182,0.019703,-0.038179,-0.141307
1183,0.019703,-0.038179,-0.068843
1184,0.000481,-0.021435,-0.086959
1185,0.000481,-0.038179,-0.068843
1186,-0.037962,-0.021435,-0.086959
1187,-0.037962,-0.00469,-0.068843
1188,-0.01874,0.012055,-0.068843
1189,0.000481,-0.00469,-0.032611
1190,0.019703,-0.00469,-0.014495
1191,0.000481,-0.00469,0.021737
1192,0.000481,-0.00469,0.021737
1193,0.000481,-0.038179,0.021737
1194,0.000481,-0.088414,0.003621
1195,-0.01874,-0.088414,-0.014495
1196,-0.01874,-0.054924,-0.032611
1197,-0.01874,-0.054924,-0.014495
1198,-0.01874,0.0288,-0.014495
1199,0.000481,0.06229,0.039853
1200,0.000481,0.112524,0.057969
1201,0.000481,0.095779,0.076085
1202,0.019703,0.045545,0.021737
1203,0.000481,0.0288,0.003621
1204,0.000481,-0.00469,0.021737
1205,0.000481,0.012055,0.021737
1206,0.019703,0.012055,0.076085
1207,0.000481,0.0288,0.057969
1208,0.000481,0.012055,0.003621
1209,-0.01874,-0.021435,0.021737
1210,-0.01874,-0.00469,0.039853
1211,-0.01874,-0.021435,0.003621
1212,0.019703,-0.021435,0.021737
1213,0.000481,-0.054924,0.021737
1214,0.000481,-0.071669,0.039853
1215,0.000481,-0.038179,0.057969
1216,0.000481,-0.021435,0.021737
1217,0.019703,-0.00469,-0.014495
1218,0.000481,0.012055,0.021737
1219,0.019703,0.045545,0.057969
1220,0.019703,0.06229,0.039853
1221,0.019703,0.06229,0.076085
1222,0.019703,0.06229,0.003621
1223,0.000481,0.0288,-0.032611
1224,0.000481,0.012055,-0.014495
1225,0.019703,0.012055,0.003621
1226,0.019703,0.012055,-0.014495
1227,0.019703,0.012055,0.003621
1228,0.000481,0.012055,0.003621
1229,0.019703,0.0288,0.039853
1230,0.000481,0.0288,0.039853
1231,0.000481,-0.021435,0.039853
1232,0.000481,-0.00469,-0.032611
1233,-0.037962,-0.038179,-0.014495
1234,-0.037962,-0.038179,-0.050727
1235,-0.01874,-0.038179,-0.105075
1236,-0.01874,-0.054924,-0.050727
1237,-0.037962,-0.038179,-0.032611
1238,-0.037962,-0.054924,-0.014495
1239,0.000481,-0.038179,0.039853
1240,0.019703,-0.038179,0.021737
1241,-0.037962,-0.054924,0.003621
1242,-0.01874,-0.038179,0.003621
1243,-0.037962,-0.00469,-0.032611
1244,-0.01874,-0.021435,-0.068843
1245,0.000481,-0.054924,-0.032611
1246,-0.037962,-0.038179,-0.032611
1247,-0.037962,-0.088414,0.021737
1248,-0.01874,-0.088414,0.021737
1249,0.000481,0.012055,0.039853
1250,0.000481,0.0288,0.039853
1251,0.000481,0.112524,0.021737
1252,0.019703,0.162759,0.021737
1253,0.000481,0.162759,-0.032611
1254,0.000481,0.079034,-0.014495
1255,-0.01874,0.045545,-0.068843
1256,-0.01874,-0.00469,-0.050727
1257,0.019703,0.012055,0.003621
1258,0.019703,0.0288,0.021737
1259,-0.01874,-0.038179,0.039853
1260,0.000481,-0.038179,0.021737
1261,0.000481,-0.038179,0.021737
1262,-0.01874,-0.054924,-0.032611
1263,-0.01874,-0.071669,-0.032611
1264,-0.037962,-0.071669,-0.032611
1265,-0.037962,-0.021435,0.039853
1266,-0.01874,0.012055,0.021737
1267,-0.01874,0.06229,0.057969
1268,0.019703,0.112524,0.057969
1269,0.019703,0.129269,0.057969
1270,0.038924,0.06229,0.021737
1271,0.000481,0.045545,-0.014495
1272,0.019703,0.0288,0.003621
1273,-0.01874,0.0288,-0.050727
1274,0.000481,0.0288,0.039853
1275,0.019703,0.0288,0.021737
1276,0.000481,0.0288,0.112317
1277,0.019703,0.0288,0.039853
1278,0.000481,0.0288,0.094201
1279,0.019703,0.012055,0.039853
1280,0.000481,-0.00469,0.003621
1281,0.000481,0.012055,0.076085
1282,-0.037962,-0.00469,0.021737
1283,-0.01874,-0.021435,0.003621
1284,-0.037962,-0.021435,0.021737
1285,-0.01874,-0.038179,0.003621
1286,-0.01874,-0.038179,0.003621
1287,0.000481,-0.021435,0.003621
1288,0.000481,-0.00469,-0.068843
1289,0.000481,-0.038179,-0.086959
1290,0.000481,-0.021435,-0.050727
1291,0.000481,-0.038179,-0.086959
1292,-0.01874,-0.038179,-0.032611
1293,0.000481,-0.054924,-0.014495
1294,0.000481,-0.054924,-0.032611
1295,-0.01874,-0.054924,0.003621
1296,-0.01874,-0.054924,0.039853
1297,-0.037962,-0.00469,0.003621
1298,0.019703,0.0288,-0.014495
1299,0.000481,0.0288,-0.014495
1300,-0.01874,0.0288,-0.050727
1301,-0.01874,0.012055,-0.050727
1302,0.000481,0.045545,0.021737
1303,0.019703,0.06229,-0.014495
1304,0.038924,0.045545,0.021737
1305,0.019703,0.0288,0.057969
1306,0.000481,-0.00469,0.057969
1307,0.000481,-0.00469,0.021737
1308,0.019703,0.012055,0.094201
1309,0.019703,0.0288,0.021737
1310,-0.01874,0.045545,-0.050727
1311,-0.01874,0.012055,0.039853
1312,-0.01874,0.012055,-0.032611
1313,0.000481,-0.071669,0.003621
1314,-0.037962,-0.054924,0.021737
1315,-0.037962,-0.071669,-0.032611
1316,-0.01874,-0.121903,-0.032611
1317,-0.01874,-0.121903,-0.032611
1318,-0.01874,-0.105159,-0.050727
1319,0.019703,-0.00469,-0.050727
1320,0.000481,0.012055,0.021737
1321,0.000481,0.012055,-0.032611
1322,0.000481,-0.00469,-0.014495
1323,0.000481,0.0288,0.021737
1324,0.019703,0.06229,0.003621
1325,0.000481,0.045545,0.057969
1326,0.019703,0.045545,0.039853
1327,0.000481,0.079034,0.003621
1328,0.000481,0.079034,0.003621
1329,0.019703,0.079034,0.039853
1330,0.019703,0.06229,-0.014495
1331,0.000481,0.0288,0.021737
1332,-0.01874,0.012055,0.003621
1333,-0.01874,-0.021435,0.021737
1334,-0.01874,-0.021435,0.003621
1335,-0.037962,-0.00469,0.021737
1336,0.000481,-0.021435,0.003621
1337,-0.01874,-0.021435,-0.068843
1338,-0.037962,-0.038179,-0.014495
1339,-0.01874,-0.054924,-0.105075
1340,0.000481,-0.054924,-0.050727
1341,-0.01874,-0.054924,-0.014495
1342,-0.01874,-0.021435,-0.068843
1343,-0.01874,-0.00469,-0.014495
1344,-0.037962,0.012055,0.003621
1345,0.000481,0.0288,0.003621
1346,-0.01874,0.0288,-0.068843
1347,-0.01874,0.012055,-0.050727
1348,-0.037962,0.012055,-0.032611
1349,-0.01874,-0.00469,-0.014495
1350,0.000481,0.012055,0.003621
1351,-0.037962,0.0288,-0.014495
1352,-0.01874,0.012055,-0.014495
1353,0.000481,0.012055,0.003621
1354,0.000481,0.0288,0.003621
1355,0.000481,0.012055,-0.032611
1356,0.019703,-0.00469,0.057969
1357,0.019703,-0.038179,-0.032611
1358,0.019703,0.012055,0.021737
1359,0.019703,-0.038179,0.021737
1360,-0.01874,-0.038179,0.003621
1361,-0.01874,-0.00469,0.021737
1362,0.019703,0.012055,0.076085
1363,0.000481,0.045545,0.021737
1364,0.000481,-0.00469,0.021737
1365,-0.01874,-0.038179,0.021737
1366,-0.037962,-0.054924,0.021737
1367,-0.01874,0.012055,0.003621
1368,-0.01874,0.045545,0.039853
1369,0.000481,0.012055,0.003621
1370,0.000481,0.0288,0.039853
1371,-0.01874,0.012055,0.021737
1372,-0.01874,-0.054924,0.003621
1373,0.000481,-0.038179,-0.032611
1374,0.000481,-0.088414,-0.014495
1375,0.019703,-0.038179,0.003621
1376,0.019703,0.012055,-0.050727
1377,0.000481,-0.00469,-0.050727
1378,-0.01874,0.079034,-0.068843
1379,-0.037962,0.045545,0.003621
1380,0.000481,0.06229,0.021737
1381,-0.01874,0.06229,-0.014495
1382,-0.01874,0.095779,0.039853
1383,0.000481,0.079034,-0.014495
1384,0.000481,0.06229,-0.032611
1385,-0.01874,0.045545,0.003621
1386,-0.01874,-0.00469,0.003621
1387,0.000481,-0.054924,-0.032611
1388,0.000481,-0.088414,-0.014495
1389,-0.01874,-0.121903,0.021737
1390,0.000481,-0.054924,-0.032611
1391,0.000481,-0.054924,0.021737
1392,0.019703,0.012055,0.003621
1393,-0.01874,0.06229,0.003621
1394,0.019703,0.095779,-0.014495
1395,0.000481,0.095779,0.003621
1396,0.019703,0.079034,0.039853
1397,0.019703,0.079034,0.039853
1398,0.000481,0.0288,0.057969
1399,0.000481,0.0288,0.021737
1400,0.019703,0.0288,0.021737
1401,0.019703,-0.00469,-0.014495
1402,0.000481,0.012055,-0.032611
1403,-0.01874,-0.00469,-0.050727
1404,-0.01874,-0.054924,-0.050727
1405,-0.01874,-0.054924,-0.050727
1406,-0.01874,-0.054924,-0.050727
1407,-0.01874,-0.038179,0.003621
1408,0.000481,-0.021435,-0.014495
1409,0.019703,0.012055,0.003621
1410,0.019703,0.045545,0.021737
1411,0.000481,0.0288,-0.032611
1412,0.000481,0.045545,-0.032611
1413,-0.01874,0.045545,-0.014495
1414,0.000481,0.012055,-0.014495
1415,0.000481,0.0288,0.003621
1416,-0.01874,-0.021435,0.057969
1417,0.019703,0.0288,-0.014495
1418,0.000481,0.012055,0.057969
1419,-0.01874,0.012055,0.003621
1420,-0.01874,-0.021435,-0.050727
1421,0.000481,-0.021435,-0.032611
1422,-0.01874,-0.00469,-0.032611
1423,-0.01874,-0.00469,-0.014495
1424,-0.037962,0.012055,0.003621
1425,-0.01874,-0.021435,0.021737
1426,0.000481,-0.021435,-0.014495
1427,0.000481,-0.021435,0.057969
1428,0.019703,0.012055,0.021737
1429,0.000481,0.012055,0.003621
1430,0.000481,-0.00469,0.021737
1431,0.019703,-0.00469,0.021737
1432,-0.037962,-0.038179,-0.014495
1433,0.019703,-0.038179,0.057969
1434,0.000481,-0.038179,0.057969
1435,0.000481,-0.071669,0.003621
1436,-0.037962,-0.105159,0.003621
1437,-0.057183,-0.138648,-0.050727
1438,-0.01874,-0.138648,-0.032611
1439,-0.037962,-0.121903,-0.032611
1440,-0.01874,-0.088414,-0.068843
1441,-0.037962,-0.021435,-0.032611
1442,-0.01874,0.045545,-0.032611
1443,-0.01874,0.079034,0.003621
1444,-0.01874,0.095779,-0.068843
1445,-0.01874,0.179503,0.003621
1446,0.058146,0.162759,-0.014495
1447,0.058146,0.112524,-0.014495
1448,0.038924,0.079034,0.039853
1449,0.019703,0.045545,0.003621
1450,0.019703,0.112524,-0.014495
1451,0.019703,0.129269,0.057969
1452,0.019703,0.112524,0.021737
1453,0.000481,0.045545,0.003621
1454,0.000481,-0.038179,0.021737
1455,0.000481,-0.038179,0.021737
1456,-0.01874,-0.071669,-0.050727
1457,-0.037962,-0.138648,-0.014495
1458,-0.01874,-0.172138,-0.032611
1459,-0.01874,-0.155393,0.003621
1460,0.019703,-0.121903,0.039853
1461,-0.01874,-0.105159,0.057969
1462,-0.01874,-0.021435,-0.014495
1463,-0.01874,0.06229,0.039853
1464,0.000481,0.129269,-0.014495
1465,0.019703,0.129269,-0.032611
1466,0.019703,0.162759,-0.014495
1467,0.038924,0.112524,-0.032611
1468,0.019703,0.079034,-0.068843
1469,0.019703,0.0288,0.021737
1470,0.000481,0.095779,-0.032611
1471,0.019703,0.045545,0.021737
1472,0.000481,0.045545,0.021737
1473,0.000481,-0.00469,0.021737
1474,0.019703,-0.00469,-0.032611
1475,-0.01874,0.0288,-0.050727
1476,-0.01874,-0.038179,-0.032611
1477,-0.037962,-0.021435,-0.086959
1478,0.000481,-0.00469,-0.014495
1479,-0.037962,-0.00469,-0.068843
1480,0.000481,-0.021435,-0.032611
1481,0.019703,-0.021435,-0.014495
1482,0.019703,-0.021435,-0.050727
1483,0.019703,-0.038179,0.003621
1484,-0.01874,-0.00469,0.003621
1485,-0.037962,-0.00469,0.003621
1486,-0.01874,-0.038179,0.039853
1487,0.000481,0.012055,0.039853
1488,-0.01874,-0.00469,0.003621
1489,-0.01874,0.012055,0.039853
1490,0.038924,0.012055,0.112317
1491,0.000481,-0.00469,0.021737
1492,0.000481,0.012055,0.076085
1493,0.019703,-0.00469,0.021737
1494,0.000481,0.012055,-0.014495
1495,0.000481,-0.00469,-0.050727
1496,0.000481,-0.038179,-0.068843
1497,-0.01874,-0.021435,-0.105075
1498,-0.037962,-0.038179,-0.068843
1499,-0.01874,-0.038179,-0.068843
1500,-0.037962,-0.038179,-0.050727
1501,-0.01874,-0.038179,-0.014495
1502,0.000481,-0.021435,0.003621
1503,0.000481,-0.021435,0.021737
1504,-0.01874,-0.00469,-0.068843
1505,-0.01874,-0.021435,0.021737
1506,0.000481,-0.021435,-0.032611
1507,0.019703,0.0288,0.021737
1508,0.000481,-0.00469,0.021737
1509,0.038924,0.012055,0.021737
1510,0.000481,0.012055,0.021737
1511,-0.01874,0.012055,0.039853
1512,0.000481,0.012055,-0.014495
1513,0.019703,-0.021435,0.003621
1514,0.000481,-0.021435,-0.014495
1515,-0.037962,-0.00469,-0.014495
1516,0.000481,0.012055,-0.014495
1517,-0.01874,-0.021435,0.021737
1518,-0.01874,-0.054924,0.003621
1519,0.000481,-0.038179,0.039853
1520,-0.01874,-0.088414,0.003621
1521,0.000481,-0.054924,-0.050727
1522,-0.01874,-0.038179,-0.014495
1523,-0.01874,-0.038179,-0.014495
1524,-0.037962,-0.054924,-0.050727
1525,-0.037962,-0.038179,0.003621
1526,0.000481,0.0288,0.057969
1527,0.000481,0.045545,0.021737
1528,-0.01874,0.045545,0.076085
1529,-0.01874,0.079034,0.039853
1530,-0.037962,0.079034,-0.032611
1531,0.000481,0.095779,-0.014495
1532,0.019703,0.045545,0.003621
1533,0.000481,0.0288,-0.050727
1534,-0.01874,-0.105159,0.021737
1535,0.000481,-0.071669,0.021737
1536,-0.01874,-0.038179,-0.014495
1537,0.019703,-0.021435,0.021737
1538,0.000481,0.0288,0.003621
1539,0.019703,0.079034,-0.032611
1540,0.019703,0.079034,-0.032611
1541,0.000481,0.079034,-0.050727
1542,0.019703,0.146014,-0.050727
1543,0.000481,0.112524,0.021737
1544,-0.01874,0.112524,0.057969
1545,0.000481,0.112524,0.039853
1546,0.000481,0.0288,0.039853
1547,-0.01874,0.012055,-0.014495
1548,-0.01874,-0.021435,-0.050727
1549,-0.01874,-0.054924,-0.068843
1550,-0.037962,-0.038179,-0.068843
1551,-0.01874,-0.038179,-0.086959
1552,-0.01874,-0.038179,0.021737
1553,0.000481,0.012055,0.039853
1554,0.000481,-0.021435,0.003621
1555,0.000481,0.012055,0.076085
1556,0.000481,-0.00469,0.003621
1557,0.000481,0.0288,-0.014495
1558,0.019703,-0.021435,-0.014495
1559,0.038924,-0.00469,0.021737
1560,-0.01874,-0.00469,0.003621
1561,-0.037962,-0.021435,0.003621
1562,0.000481,-0.038179,0.039853
1563,0.000481,-0.054924,0.003621
1564,0.000481,-0.038179,0.003621
1565,0.000481,-0.038179,-0.014495
1566,-0.01874,-0.054924,-0.014495
1567,-0.01874,-0.054924,-0.068843
1568,0.000481,-0.021435,-0.032611
1569,0.000481,-0.021435,-0.032611
1570,0.000481,-0.00469,0.021737
1571,-0.01874,0.0288,0.021737
1572,-0.01874,0.045545,0.003621
1573,0.000481,0.0288,0.039853
1574,0.000481,0.012055,-0.014495
1575,0.019703,0.012055,-0.032611
1576,0.000481,0.0288,-0.014495
1577,0.019703,0.012055,-0.032611
1578,0.019703,-0.00469,0.003621
1579,0.000481,0.012055,0.021737
1580,-0.01874,-0.00469,0.003621
1581,0.000481,-0.021435,0.021737
1582,0.000481,0.012055,0.003621
1583,-0.01874,-0.021435,-0.014495
1584,-0.01874,0.0288,-0.032611
1585,0.000481,-0.021435,0.003621
1586,-0.037962,-0.021435,-0.032611
1587,-0.01874,-0.021435,0.003621
1588,-0.01874,-0.00469,0.039853
1589,0.019703,0.012055,0.003621
1590,0.000481,-0.00469,0.003621
1591,0.000481,0.012055,0.021737
1592,0.019703,0.012055,0.003621
1593,0.000481,0.012055,0.021737
1594,0.019703,-0.021435,0.003621
1595,0.019703,-0.021435,-0.032611
1596,0.000481,-0.038179,0.003621
1597,-0.01874,-0.021435,0.021737
1598,-0.01874,-0.021435,-0.032611
1599,0.000481,-0.021435,0.021737
1600,-0.01874,0.0288,-0.068843
1601,0.000481,0.012055,-0.068843
1602,-0.01874,-0.00469,-0.050727
1603,-0.01874,-0.00469,-0.068843
1604,-0.01874,-0.021435,-0.068843
1605,-0.037962,-0.021435,-0.032611
1606,-0.01874,0.0288,0.021737
1607,-0.01874,0.012055,0.003621
1608,0.000481,-0.00469,0.021737
1609,0.000481,-0.054924,0.021737
1610,0.000481,-0.021435,0.003621
1611,0.000481,-0.021435,-0.014495
1612,0.000481,-0.071669,0.003621
1613,-0.01874,-0.038179,0.021737
1614,-0.01874,-0.021435,0.039853
1615,-0.01874,0.012055,0.039853
1616,-0.01874,0.06229,0.003621
1617,-0.01874,0.079034,0.057969
1618,-0.01874,0.0288,0.003621
1619,-0.01874,0.079034,0.003621
1620,0.000481,0.079034,0.021737
1621,0.000481,0.0288,-0.014495
1622,0.000481,-0.021435,-0.014495
1623,0.000481,0.012055,0.003621
1624,0.000481,-0.00469,0.003621
1625,0.000481,0.0288,0.003621
1626,-0.01874,0.0288,0.039853
1627,-0.01874,-0.071669,-0.014495
1628,-0.037962,-0.172138,-0.032611
1629,-0.01874,-0.071669,-0.014495
1630,0.019703,-0.054924,-0.032611
1631,0.000481,-0.00469,-0.050727
1632,-0.01874,0.079034,-0.032611
1633,0.000481,0.095779,-0.050727
1634,-0.01874,0.095779,0.003621
1635,-0.01874,0.0288,0.003621
1636,0.000481,0.045545,0.003621
1637,0.000481,0.012055,-0.032611
1638,0.000481,0.012055,-0.014495
1639,0.000481,0.0288,-0.014495
1640,0.019703,0.045545,0.021737
1641,0.019703,0.06229,-0.014495
1642,0.000481,0.095779,0.003621
1643,-0.01874,0.06229,0.021737
1644,-0.01874,0.0288,0.021737
1645,0.000481,0.045545,0.003621
1646,0.019703,0.0288,0.039853
1647,-0.01874,-0.00469,0.039853
1648,0.000481,-0.038179,-0.032611
1649,0.000481,-0.054924,0.021737
1650,-0.037962,-0.038179,0.039853
1651,0.000481,-0.038179,0.003621
1652,0.000481,-0.00469,0.021737
1653,0.000481,-0.021435,0.003621
1654,-0.01874,-0.038179,-0.014495
1655,0.000481,-0.021435,0.039853
1656,0.000481,-0.00469,0.003621
1657,0.019703,0.045545,-0.032611
1658,0.019703,0.012055,-0.014495
1659,0.000481,-0.021435,0.039853
1660,-0.01874,-0.038179,-0.014495
1661,0.000481,-0.038179,0.021737
1662,-0.01874,0.012055,0.057969
1663,0.019703,0.012055,0.021737
1664,0.019703,0.012055,0.021737
1665,0.000481,-0.00469,-0.014495
1666,0.000481,0.0288,-0.050727
1667,-0.01874,0.0288,0.003621
1668,-0.01874,-0.00469,-0.050727
1669,-0.01874,0.012055,0.003621
1670,-0.01874,-0.00469,0.057969
1671,0.000481,0.012055,0.003621
1672,-0.037962,-0.00469,-0.032611
1673,-0.01874,-0.021435,-0.032611
1674,-0.01874,-0.00469,-0.032611
1675,0.000481,-0.021435,-0.050727
1676,0.000481,-0.00469,-0.014495
1677,0.019703,-0.00469,-0.014495
1678,0.019703,-0.00469,-0.050727
1679,0.000481,0.0288,0.039853
1680,-0.01874,-0.021435,0.039853
1681,-0.01874,-0.00469,0.057969
1682,0.000481,-0.00469,0.039853
1683,0.000481,0.0288,0.039853
1684,0.019703,0.012055,-0.014495
1685,0.019703,0.012055,0.057969
1686,0.000481,0.0288,0.021737
1687,0.000481,0.0288,0.076085
1688,0.000481,0.0288,0.094201
1689,0.000481,-0.00469,0.003621
1690,-0.01874,-0.00469,-0.050727
1691,-0.037962,-0.021435,-0.032611
1692,-0.01874,-0.038179,-0.068843
1693,-0.037962,-0.021435,-0.105075
1694,0.000481,-0.038179,-0.050727
1695,0.000481,-0.038179,-0.105075
1696,-0.01874,-0.054924,-0.032611
1697,0.019703,-0.054924,0.039853
1698,-0.01874,-0.054924,-0.014495
1699,0.000481,-0.071669,0.021737
1700,-0.01874,-0.054924,0.003621
1701,0.000481,-0.021435,-0.032611
1702,0.000481,0.045545,-0.050727
1703,-0.01874,0.045545,0.021737
1704,-0.01874,0.045545,-0.014495
1705,-0.01874,0.06229,0.003621
1706,-0.01874,0.079034,0.003621
1707,0.000481,0.045545,-0.032611
1708,0.000481,0.0288,0.003621
1709,-0.01874,0.012055,0.003621
1710,0.000481,-0.00469,-0.014495
1711,-0.01874,-0.021435,-0.050727
1712,-0.01874,-0.00469,-0.032611
1713,0.000481,-0.00469,-0.014495
1714,0.000481,0.012055,0.021737
1715,-0.01874,-0.00469,0.039853
1716,0.000481,0.012055,0.021737
1717,0.000481,0.0288,0.076085
1718,0.000481,-0.021435,0.003621
1719,-0.01874,-0.054924,-0.014495
1720,0.000481,-0.054924,-0.014495
1721,0.000481,-0.054924,0.003621
1722,-0.01874,-0.088414,-0.050727
1723,-0.037962,-0.138648,0.021737
1724,-0.01874,-0.105159,0.057969
1725,-0.01874,-0.038179,0.021737
1726,-0.01874,0.012055,0.003621
1727,-0.01874,0.06229,-0.014495
1728,0.000481,0.112524,-0.032611
1729,0.019703,0.162759,-0.032611
1730,0.000481,0.146014,-0.032611
1731,0.019703,0.095779,0.003621
1732,0.038924,0.095779,0.003621
1733,0.000481,0.045545,0.039853
1734,0.000481,0.012055,0.003621
1735,0.000481,0.0288,0.021737
1736,-0.01874,-0.00469,0.021737
1737,0.000481,0.012055,-0.014495
1738,0.000481,0.0288,-0.014495
1739,0.019703,-0.00469,-0.050727
1740,0.000481,0.012055,-0.014495
1741,0.000481,-0.021435,-0.014495
1742,-0.01874,-0.00469,-0.014495
1743,-0.01874,-0.021435,0.003621
1744,0.019703,-0.021435,0.003621
1745,-0.01874,-0.038179,-0.032611
1746,-0.037962,-0.071669,-0.068843
1747,0.019703,-0.021435,-0.032611
1748,-0.037962,-0.054924,-0.014495
1749,-0.037962,-0.00469,0.021737
1750,0.000481,0.012055,0.057969
1751,0.000481,-0.00469,0.057969
1752,-0.01874,0.0288,0.021737
1753,0.000481,0.06229,0.039853
1754,0.000481,0.045545,0.039853
1755,0.000481,0.012055,0.021737
1756,0.019703,0.0288,0.039853
1757,0.019703,0.012055,-0.032611
1758,0.000481,-0.021435,0.003621
1759,-0.01874,0.012055,0.039853
1760,-0.01874,-0.00469,0.003621
1761,0.000481,-0.00469,-0.014495
1762,0.000481,-0.00469,0.021737
1763,-0.037962,0.079034,-0.032611
1764,0.000481,0.012055,-0.032611
1765,0.000481,-0.021435,0.021737
1766,-0.01874,-0.00469,-0.014495
1767,-0.01874,-0.021435,0.003621
1768,-0.01874,-0.021435,0.039853
1769,0.000481,-0.00469,-0.032611
1770,0.000481,-0.00469,0.039853
1771,0.000481,0.012055,-0.014495
1772,0.000481,-0.00469,-0.014495
1773,0.000481,-0.021435,-0.068843
1774,-0.01874,-0.021435,-0.050727
1775,-0.01874,-0.021435,-0.086959
1776,-0.057183,-0.00469,-0.032611
1777,0.000481,-0.00469,0.021737
1778,-0.01874,-0.021435,0.039853
1779,-0.01874,-0.00469,0.039853
1780,0.019703,-0.00469,0.003621
1781,-0.01874,-0.00469,0.021737
1782,0.000481,-0.021435,-0.032611
1783,0.000481,0.012055,-0.014495
1784,0.000481,-0.00469,-0.014495
1785,0.000481,-0.00469,0.003621
1786,-0.037962,0.012055,0.003621
1787,-0.01874,-0.00469,0.003621
1788,-0.01874,0.0288,0.003621
1789,-0.01874,-0.021435,-0.014495
1790,-0.01874,-0.021435,-0.032611
1791,0.000481,-0.00469,0.003621
1792,0.019703,-0.021435,-0.014495
1793,0.019703,-0.038179,-0.014495
1794,0.000481,-0.021435,0.021737
1795,-0.01874,-0.021435,0.021737
1796,-0.01874,0.012055,0.021737
1797,0.019703,0.012055,0.039853
1798,0.000481,0.012055,0.057969
1799,0.000481,0.012055,0.021737
1800,0.000481,0.045545,0.003621
1801,0.000481,0.045545,-0.068843
1802,0.000481,0.0288,-0.032611
1803,0.019703,0.0288,-0.068843
1804,0.000481,-0.038179,-0.050727
1805,-0.01874,-0.00469,-0.032611
1806,-0.01874,-0.00469,0.003621
1807,-0.01874,0.045545,-0.014495
1808,0.000481,0.0288,-0.032611
1809,-0.01874,-0.00469,-0.014495
1810,-0.01874,0.012055,-0.014495
1811,-0.01874,0.012055,-0.014495
1812,-0.01874,-0.038179,-0.014495
1813,0.000481,-0.021435,-0.050727
1814,-0.01874,-0.021435,0.003621
1815,-0.01874,-0.021435,-0.014495
1816,-0.01874,-0.00469,-0.032611
1817,0.000481,-0.00469,-0.014495
1818,0.019703,0.0288,0.003621
1819,-0.01874,-0.00469,0.039853
1820,0.000481,0.045545,0.021737
1821,0.000481,0.012055,0.094201
1822,0.000481,0.012055,0.039853
1823,0.000481,0.012055,0.076085
1824,0.019703,-0.00469,0.003621
1825,-0.01874,-0.00469,-0.032611
1826,-0.01874,-0.00469,0.003621
1827,0.000481,0.012055,0.003621
1828,0.019703,0.0288,0.021737
1829,0.000481,-0.00469,0.003621
1830,0.000481,-0.021435,0.021737
1831,-0.01874,0.012055,0.003621
1832,-0.01874,-0.00469,0.021737
1833,0.000481,-0.00469,0.003621
1834,0.000481,-0.00469,-0.050727
1835,-0.01874,-0.00469,-0.014495
1836,0.000481,0.0288,-0.050727
1837,-0.01874,-0.00469,-0.032611
1838,0.019703,-0.00469,0.021737
1839,0.000481,0.045545,-0.032611
1840,0.000481,-0.021435,0.003621
1841,-0.01874,-0.021435,0.003621
1842,-0.01874,-0.00469,-0.014495
1843,0.000481,-0.021435,-0.050727
1844,0.019703,-0.00469,-0.032611
1845,-0.01874,0.012055,-0.086959
1846,0.000481,0.0288,0.003621
1847,0.000481,-0.00469,0.003621
1848,-0.01874,-0.021435,-0.014495
1849,-0.01874,-0.00469,0.021737
1850,0.000481,-0.038179,-0.014495
1851,-0.01874,0.06229,0.003621
1852,0.000481,-0.00469,0.021737
1853,0.000481,0.012055,0.039853
1854,0.000481,-0.00469,0.039853
1855,-0.01874,0.012055,0.021737
1856,-0.037962,-0.00469,0.057969
1857,-0.01874,-0.00469,0.021737
1858,-0.01874,-0.00469,0.021737
1859,-0.01874,0.045545,-0.050727
1860,0.000481,0.012055,-0.050727
1861,0.019703,0.012055,-0.032611
1862,0.019703,0.0288,-0.050727
1863,0.000481,0.0288,0.003621
1864,0.019703,0.012055,0.057969
1865,0.000481,-0.00469,0.112317
1866,-0.01874,-0.021435,0.148549
1867,0.000481,0.045545,0.094201
1868,0.038924,0.012055,0.039853
1869,0.000481,0.012055,-0.014495
1870,0.000481,-0.00469,-0.014495
1871,0.000481,0.012055,-0.032611
1872,0.000481,0.012055,-0.014495
1873,0.000481,0.012055,0.003621
1874,0.000481,-0.00469,0.003621
1875,-0.01874,-0.00469,0.003621
1876,-0.01874,-0.00469,-0.014495
1877,0.000481,0.045545,0.021737
1878,0.000481,0.012055,-0.050727
1879,0.019703,-0.021435,-0.050727
1880,0.019703,-0.021435,-0.068843
1881,0.000481,-0.021435,0.003621
1882,0.019703,0.012055,0.021737
1883,-0.01874,-0.00469,0.003621
1884,-0.01874,0.012055,0.039853
1885,0.000481,0.012055,0.021737
1886,0.000481,0.079034,-0.014495
1887,0.019703,0.012055,-0.050727
1888,-0.01874,-0.00469,0.003621
1889,0.038924,0.012055,-0.014495
1890,0.000481,-0.00469,-0.014495
1891,0.000481,-0.021435,0.021737
1892,0.000481,-0.00469,-0.032611
1893,0.019703,-0.00469,0.003621
1894,0.000481,0.012055,0.003621
1895,-0.01874,-0.00469,-0.014495
1896,0.000481,-0.00469,-0.032611
1897,-0.01874,0.012055,-0.014495
1898,0.000481,-0.00469,-0.050727
1899,0.000481,0.012055,0.003621
1900,0.000481,-0.021435,0.021737
1901,0.019703,0.012055,0.003621
1902,-0.01874,0.0288,0.021737
1903,-0.01874,-0.00469,0.003621
1904,-0.037962,-0.00469,-0.032611
1905,-0.01874,0.012055,-0.032611
1906,0.019703,0.012055,-0.014495
1907,-0.037962,-0.00469,-0.014495
1908,0.019703,-0.021435,0.003621
1909,0.019703,-0.00469,0.003621
1910,0.000481,0.012055,-0.014495
1911,-0.01874,-0.00469,0.021737
1912,0.000481,0.0288,0.003621
1913,-0.037962,-0.00469,-0.032611
1914,-0.037962,0.012055,0.039853
1915,0.000481,0.012055,-0.014495
1916,0.000481,0.0288,0.021737
1917,0.019703,0.0288,0.039853
1918,0.000481,0.045545,0.039853
1919,0.000481,0.012055,0.021737
1920,-0.01874,-0.038179,-0.014495
1921,0.000481,0.012055,-0.032611
1922,-0.01874,-0.00469,-0.032611
1923,-0.01874,0.012055,-0.014495
1924,0.000481,0.012055,-0.050727
1925,0.000481,0.0288,-0.050727
1926,0.000481,-0.021435,0.003621
1927,0.000481,-0.021435,-0.032611
1928,0.000481,-0.00469,0.039853
1929,0.019703,0.012055,0.003621
1930,-0.01874,0.012055,0.003621
1931,-0.037962,-0.00469,0.021737
1932,-0.01874,-0.00469,0.039853
1933,0.000481,0.0288,-0.014495
1934,0.000481,-0.00469,0.003621
1935,0.000481,-0.00469,0.039853
1936,0.000481,-0.00469,0.057969
1937,0.019703,0.012055,0.003621
1938,0.019703,-0.00469,-0.014495
1939,0.019703,0.012055,0.003621
1940,0.019703,0.012055,-0.050727
1941,0.000481,0.012055,-0.014495
1942,-0.01874,0.0288,-0.014495
1943,-0.01874,-0.00469,0.021737
1944,-0.01874,-0.021435,0.021737
1945,-0.01874,-0.00469,0.003621
1946,0.000481,-0.00469,0.057969
1947,-0.01874,0.012055,-0.014495
1948,0.000481,0.012055,0.003621
1949,0.000481,-0.00469,-0.014495
1950,-0.01874,-0.00469,-0.032611
1951,0.019703,-0.00469,-0.014495
1952,0.019703,0.0288,0.021737
1953,0.000481,0.012055,0.057969
1954,0.019703,0.012055,0.021737
1955,0.019703,0.012055,0.076085
1956,-0.01874,0.012055,0.039853
1957,-0.01874,0.012055,0.003621
1958,0.019703,-0.00469,0.039853
1959,0.000481,0.012055,-0.032611
1960,0.038924,0.0288,0.003621
1961,0.019703,0.079034,0.039853
1962,0.038924,0.0288,0.094201
1963,0.000481,-0.00469,0.021737
1964,0.000481,-0.00469,0.039853
1965,0.019703,-0.00469,-0.014495
1966,0.000481,0.012055,-0.014495
1967,0.000481,-0.00469,-0.014495
1968,0.000481,0.012055,-0.014495
1969,0.000481,-0.021435,-0.050727
1970,-0.01874,-0.00469,-0.032611
1971,0.000481,-0.021435,-0.050727
1972,0.000481,-0.021435,0.021737
1973,-0.01874,-0.021435,-0.032611
1974,0.019703,0.012055,-0.032611
1975,0.000481,-0.021435,-0.068843
1976,-0.01874,-0.00469,-0.032611
1977,0.000481,-0.00469,-0.086959
1978,-0.01874,-0.00469,-0.050727
1979,0.000481,0.012055,0.003621
1980,-0.01874,-0.00469,0.021737
1981,-0.037962,-0.00469,0.021737
1982,-0.037962,-0.021435,0.057969
1983,0.000481,-0.021435,-0.014495
1984,-0.01874,-0.00469,0.003621
1985,0.000481,-0.00469,0.003621
1986,0.019703,0.0288,0.021737
1987,0.000481,0.0288,0.021737
1988,0.000481,-0.00469,0.057969
1989,-0.037962,-0.00469,0.003621
1990,0.000481,-0.00469,0.057969
1991,-0.01874,-0.00469,0.021737
1992,0.000481,0.0288,0.021737
1993,0.019703,-0.00469,-0.014495
1994,0.000481,-0.00469,-0.014495
1995,0.000481,-0.00469,-0.032611
1996,0.019703,0.012055,0.003621
1997,-0.01874,-0.00469,0.039853
1998,0.000481,-0.00469,0.003621
1999,0.000481,-0.00469,0.021737
2000,0.000481,0.012055,-0.014495
2001,0.000481,-0.00469,-0.050727
2002,0.000481,-0.00469,-0.050727
2003,0.000481,0.0288,-0.032611
2004,-0.037962,0.012055,-0.086959
2005,-0.01874,0.012055,-0.032611
2006,0.000481,-0.00469,0.021737
2007,0.000481,-0.00469,0.003621
2008,0.019703,-0.00469,0.039853
2009,0.000481,-0.00469,0.003621
2010,-0.01874,-0.00469,-0.032611
2011,-0.01874,-0.021435,-0.014495
2012,0.000481,-0.00469,-0.032611
2013,0.000481,0.0288,0.003621
2014,0.019703,0.0288,0.021737
2015,-0.01874,0.012055,0.021737
2016,-0.01874,-0.021435,0.003621
2017,-0.01874,-0.00469,0.039853
2018,0.000481,0.079034,0.021737
2019,0.019703,0.012055,-0.032611
2020,0.000481,0.0288,0.003621
2021,0.000481,0.012055,-0.014495
2022,0.000481,-0.00469,0.021737
2023,0.000481,-0.00469,0.021737
2024,-0.01874,-0.00469,0.039853
2025,0.000481,-0.00469,0.039853
2026,-0.01874,-0.021435,0.057969
2027,0.000481,-0.00469,-0.014495
2028,-0.01874,-0.00469,-0.050727
2029,0.000481,-0.00469,-0.014495
2030,0.000481,0.0288,-0.050727
2031,0.019703,-0.021435,-0.014495
2032,-0.01874,-0.00469,0.003621
2033,-0.01874,-0.00469,-0.050727
2034,-0.01874,-0.00469,-0.032611
2035,-0.01874,0.012055,-0.032611
2036,-0.01874,-0.021435,-0.068843
2037,-0.01874,-0.021435,-0.086959
2038,-0.037962,-0.00469,-0.014495
2039,-0.01874,-0.021435,-0.014495
2040,-0.01874,-0.021435,0.003621
2041,0.000481,-0.021435,0.021737
2042,-0.037962,0.012055,0.021737
2043,-0.01874,-0.00469,0.057969
2044,0.000481,0.012055,0.057969
2045,-0.01874,-0.00469,0.039853
2046,0.000481,0.0288,0.021737
2047,0.019703,0.012055,0.057969
2048,-0.01874,0.0288,-0.014495
2049,0.000481,0.012055,0.021737
2050,0.000481,0.0288,0.076085
2051,0.000481,0.0288,0.039853
2052,0.000481,0.0288,0.039853
2053,0.000481,-0.00469,0.021737
2054,0.019703,0.012055,0.003621
2055,-0.01874,-0.00469,-0.032611
2056,0.000481,-0.00469,-0.014495
2057,0.019703,0.012055,-0.014495
2058,0.000481,-0.00469,0.003621
2059,-0.01874,0.012055,-0.014495
2060,-0.037962,-0.00469,-0.032611
2061,-0.01874,-0.021435,-0.014495
2062,0.038924,-0.00469,-0.014495
2063,-0.01874,-0.00469,-0.032611
2064,-0.01874,0.012055,0.021737
2065,-0.01874,0.012055,-0.032611
2066,0.000481,-0.00469,-0.050727
2067,-0.01874,-0.00469,-0.032611
2068,0.000481,0.012055,0.021737
2069,0.000481,-0.00469,-0.014495
2070,0.019703,-0.00469,0.003621
2071,0.000481,-0.00469,0.021737
2072,0.019703,-0.00469,0.003621
2073,0.019703,0.012055,0.039853
2074,0.000481,-0.00469,0.003621
2075,-0.01874,-0.00469,-0.032611
2076,-0.01874,-0.00469,-0.014495
2077,0.000481,0.012055,0.057969
2078,0.000481,0.012055,0.039853
2079,0.019703,0.012055,0.021737
2080,-0.01874,-0.00469,0.039853
2081,-0.01874,0.012055,0.003621
2082,0.000481,0.012055,0.021737
2083,0.038924,-0.00469,-0.014495
2084,0.000481,-0.00469,-0.068843
2085,-0.01874,-0.021435,-0.014495
2086,0.000481,0.012055,-0.050727
2087,-0.037962,-0.00469,-0.050727
2088,-0.01874,-0.00469,0.003621
2089,-0.037962,-0.00469,-0.014495
2090,-0.01874,-0.00469,-0.068843
2091,-0.037962,0.0288,-0.032611
2092,-0.037962,-0.021435,-0.050727
2093,-0.01874,-0.00469,-0.032611
2094,-0.037962,-0.00469,-0.014495
2095,0.019703,-0.00469,-0.014495
2096,0.000481,0.012055,0.057969
2097,0.000481,0.012055,0.094201
2098,0.019703,0.0288,0.076085
2099,0.019703,0.012055,0.057969
2100,0.019703,0.012055,0.039853
2101,0.000481,-0.00469,0.021737
2102,-0.01874,0.0288,-0.032611
2103,0.000481,-0.00469,-0.014495
2104,0.000481,-0.00469,-0.014495
2105,-0.01874,0.012055,0.003621
2106,-0.037962,0.012055,0.003621
2107,-0.01874,-0.00469,0.021737
2108,0.000481,-0.00469,0.021737
2109,-0.01874,-0.00469,0.021737
2110,-0.01874,0.012055,-0.014495
2111,-0.01874,0.0288,-0.032611
2112,0.000481,-0.00469,0.003621
2113,-0.01874,0.012055,-0.032611
2114,0.019703,-0.00469,-0.032611
2115,0.019703,-0.00469,0.021737
2116,0.000481,-0.00469,0.021737
2117,0.019703,0.0288,0.021737
2118,-0.01874,0.012055,0.003621
2119,0.019703,0.012055,-0.032611
2120,0.000481,-0.021435,-0.050727
2121,0.000481,0.0288,0.003621
2122,-0.01874,-0.00469,-0.032611
2123,-0.01874,-0.00469,-0.014495
2124,-0.01874,-0.021435,0.039853
2125,-0.01874,-0.00469,0.039853
2126,-0.01874,-0.00469,0.039853
2127,-0.01874,-0.00469,0.003621
2128,0.000481,0.079034,-0.032611
2129,0.000481,0.012055,-0.068843
2130,0.000481,-0.00469,-0.014495
2131,0.000481,0.012055,-0.050727
2132,0.000481,-0.00469,-0.032611
2133,0.000481,-0.00469,0.003621
2134,0.000481,-0.021435,0.057969
2135,-0.01874,-0.00469,0.039853
2136,-0.01874,-0.00469,0.039853
2137,0.000481,0.012055,0.021737
2138,0.000481,0.012055,-0.032611
2139,0.000481,0.012055,-0.014495
2140,0.019703,-0.00469,-0.032611
2141,0.000481,-0.038179,0.021737
2142,0.000481,0.012055,0.021737
2143,0.000481,-0.00469,-0.032611
2144,-0.01874,-0.00469,0.021737
2145,-0.01874,-0.021435,0.021737
2146,0.000481,-0.00469,-0.014495
2147,-0.01874,-0.00469,-0.014495
2148,0.000481,-0.021435,-0.050727
2149,-0.01874,0.012055,-0.014495
2150,0.019703,-0.021435,-0.032611
2151,0.000481,-0.00469,0.003621
2152,-0.01874,0.012055,0.021737
2153,-0.01874,-0.021435,0.057969
2154,0.000481,0.012055,0.003621
2155,0.019703,-0.00469,0.003621
2156,0.019703,0.012055,0.003621
2157,0.000481,-0.00469,-0.014495
2158,0.000481,0.012055,-0.032611
2159,0.000481,-0.021435,-0.014495
2160,-0.01874,-0.00469,0.003621
2161,-0.01874,-0.00469,0.003621
2162,-0.01874,-0.021435,0.039853
2163,-0.01874,-0.00469,-0.014495
2164,-0.037962,-0.021435,-0.032611
2165,-0.01874,-0.021435,-0.014495
2166,-0.01874,-0.00469,-0.032611
2167,-0.01874,-0.00469,0.003621
2168,-0.037962,-0.00469,0.021737
2169,-0.037962,0.012055,0.003621
2170,-0.01874,0.0288,0.003621
2171,0.019703,0.045545,0.039853
2172,0.000481,-0.021435,-0.014495
2173,-0.01874,-0.00469,-0.032611
2174,-0.01874,-0.021435,-0.014495
2175,0.000481,-0.021435,-0.014495
2176,0.000481,-0.00469,0.003621
2177,-0.037962,-0.00469,0.003621
2178,0.000481,-0.00469,-0.050727
2179,0.000481,-0.00469,-0.014495
2180,0.000481,-0.00469,0.039853
2181,0.038924,-0.00469,0.003621
2182,0.000481,-0.00469,-0.032611
2183,-0.01874,0.012055,0.039853
2184,-0.01874,-0.00469,-0.014495
2185,0.000481,0.012055,0.021737
2186,-0.037962,0.0288,0.057969
2187,-0.037962,-0.00469,0.039853
2188,-0.037962,-0.021435,0.039853
2189,-0.037962,-0.00469,0.057969
2190,0.019703,-0.00469,-0.032611
2191,0.000481,0.012055,-0.050727
2192,0.000481,0.012055,-0.032611
2193,-0.01874,0.0288,-0.068843
2194,0.000481,0.012055,0.021737
2195,-0.01874,-0.021435,0.003621
2196,0.000481,-0.038179,-0.014495
2197,-0.01874,-0.038179,0.039853
2198,0.000481,-0.00469,0.057969
2199,0.000481,-0.00469,0.003621
2200,-0.01874,-0.00469,0.003621
2201,0.000481,-0.021435,0.003621
2202,-0.01874,-0.071669,0.021737
2203,-0.01874,-0.172138,0.039853
2204,-0.01874,-0.289352,0.021737
2205,-0.01874,-0.205628,-0.050727
2206,-0.01874,-0.188883,-0.068843
2207,-0.037962,-0.105159,0.003621
2208,-0.01874,-0.021435,-0.032611
2209,-0.057183,0.045545,-0.050727
2210,-0.01874,0.095779,-0.050727
2211,-0.01874,0.229738,-0.050727
2212,0.019703,0.330207,-0.032611
2213,0.096589,0.279972,-0.014495
2214,0.038924,0.179503,-0.050727
2215,-0.01874,0.079034,-0.014495
2216,0.000481,0.045545,0.003621
2217,-0.01874,0.06229,0.021737
2218,0.000481,0.079034,0.094201
2219,0.019703,0.06229,0.021737
2220,0.000481,-0.00469,-0.014495
2221,0.000481,-0.00469,0.039853
2222,0.000481,-0.071669,0.076085
2223,0.000481,-0.138648,0.057969
2224,-0.01874,-0.071669,0.057969
2225,0.000481,-0.071669,0.039853
2226,-0.01874,-0.054924,-0.014495
2227,-0.01874,-0.00469,0.057969
2228,0.000481,0.012055,0.003621
2229,-0.01874,0.045545,-0.032611
2230,0.000481,0.095779,-0.014495
2231,0.019703,0.112524,0.021737
2232,0.019703,0.079034,-0.014495
2233,0.019703,-0.00469,0.003621
2234,-0.01874,0.012055,0.021737
2235,0.019703,0.012055,0.003621
2236,0.019703,0.0288,0.057969
2237,0.000481,-0.00469,-0.050727
2238,0.019703,-0.00469,-0.068843
2239,0.019703,-0.021435,-0.050727
2240,-0.01874,0.0288,-0.032611
2241,0.000481,0.012055,-0.014495
2242,0.000481,-0.00469,-0.014495
2243,-0.01874,-0.021435,0.039853
2244,0.000481,-0.00469,-0.032611
2245,0.000481,-0.00469,0.057969
2246,0.000481,0.012055,0.021737
2247,-0.037962,0.0288,-0.014495
2248,-0.037962,-0.021435,-0.032611
2249,-0.037962,-0.021435,-0.032611
2250,-0.037962,-0.038179,-0.050727
2251,-0.037962,-0.021435,-0.014495
2252,-0.037962,-0.00469,0.076085
2253,-0.01874,-0.021435,0.021737
2254,-0.01874,-0.021435,0.039853
2255,-0.01874,-0.00469,0.003621
2256,0.000481,-0.00469,0.003621
2257,-0.037962,-0.00469,0.021737
2258,-0.01874,0.012055,-0.050727
2259,0.019703,-0.021435,0.021737
2260,-0.01874,0.012055,0.021737
2261,0.000481,0.045545,0.039853
2262,0.000481,-0.00469,-0.014495
2263,0.000481,-0.00469,-0.014495
2264,-0.01874,-0.054924,-0.068843
2265,-0.01874,-0.054924,-0.068843
2266,-0.01874,0.012055,-0.032611
2267,0.000481,-0.038179,-0.014495
2268,-0.01874,0.0288,-0.014495
2269,0.000481,-0.00469,0.003621
2270,-0.037962,-0.00469,0.021737
2271,-0.01874,-0.00469,0.003621
2272,0.000481,-0.021435,0.003621
2273,-0.01874,-0.00469,0.003621
2274,-0.01874,-0.00469,-0.014495
2275,-0.037962,-0.00469,-0.014495
2276,-0.037962,-0.021435,-0.014495
2277,-0.037962,-0.00469,-0.014495
2278,-0.01874,0.0288,-0.014495
2279,-0.01874,0.012055,0.039853
2280,0.000481,0.012055,-0.014495
2281,0.000481,0.012055,0.021737
2282,0.000481,-0.00469,0.021737
2283,0.019703,0.045545,0.003621
2284,0.000481,0.012055,0.039853
2285,-0.01874,-0.00469,0.003621
2286,0.019703,-0.021435,-0.014495
2287,-0.057183,0.012055,0.021737
2288,-0.01874,0.0288,0.039853
2289,0.019703,0.0288,0.021737
2290,0.019703,-0.00469,0.003621
2291,0.019703,-0.00469,-0.032611
2292,0.019703,-0.021435,-0.050727
2293,-0.037962,-0.00469,-0.014495
2294,-0.01874,-0.021435,-0.014495
2295,-0.01874,0.012055,0.003621
2296,0.000481,-0.021435,0.003621
2297,-0.01874,-0.021435,0.039853
2298,0.000481,0.0288,0.003621
2299,0.038924,0.012055,0.039853
2300,0.000481,0.012055,0.003621
2301,0.019703,0.012055,0.003621
2302,0.000481,0.012055,-0.014495
2303,-0.01874,-0.021435,-0.014495
2304,0.000481,0.0288,-0.014495
2305,-0.01874,0.0288,0.021737
2306,0.019703,-0.00469,0.021737
2307,-0.01874,-0.00469,0.003621
2308,-0.01874,-0.021435,0.021737
2309,-0.037962,0.012055,-0.014495
2310,-0.037962,-0.00469,0.021737
2311,-0.057183,-0.00469,-0.032611
2312,-0.01874,-0.00469,-0.050727
2313,0.000481,0.0288,-0.050727
2314,0.000481,-0.021435,0.003621
2315,0.000481,-0.021435,-0.014495
2316,-0.01874,-0.00469,0.003621
2317,-0.01874,-0.00469,0.057969
2318,0.000481,0.012055,0.039853
2319,-0.01874,-0.038179,0.021737
2320,-0.01874,-0.071669,0.021737
2321,-0.01874,-0.038179,-0.014495
2322,-0.01874,-0.038179,-0.014495
2323,-0.037962,-0.038179,0.003621
2324,-0.037962,-0.038179,-0.032611
2325,-0.01874,-0.00469,-0.014495
2326,0.000481,0.0288,0.021737
2327,0.000481,0.06229,-0.032611
2328,-0.01874,0.079034,0.039853
2329,-0.01874,0.095779,0.021737
2330,0.000481,0.06229,0.003621
2331,-0.01874,0.045545,-0.014495
2332,-0.037962,0.045545,0.003621
2333,-0.01874,0.045545,-0.014495
2334,-0.01874,0.012055,-0.014495
2335,-0.01874,-0.00469,0.039853
2336,0.000481,-0.00469,-0.014495
2337,-0.037962,0.0288,0.021737
2338,-0.01874,-0.021435,0.021737
2339,-0.01874,0.012055,-0.068843
2340,0.000481,-0.00469,-0.014495
2341,0.000481,-0.00469,-0.014495
2342,0.000481,-0.021435,-0.032611
2343,0.000481,-0.00469,-0.014495
2344,0.000481,0.012055,0.003621
2345,0.000481,0.012055,0.003621
2346,0.000481,-0.00469,0.039853
2347,-0.01874,0.012055,0.003621
2348,-0.01874,0.012055,-0.050727
2349,0.000481,0.0288,-0.032611
2350,0.000481,0.012055,-0.032611
2351,0.000481,0.012055,-0.032611
2352,0.000481,-0.021435,0.021737
2353,-0.01874,0.012055,0.039853
2354,0.000481,0.012055,0.021737
2355,0.000481,0.0288,0.003621
2356,0.038924,0.0288,0.003621
2357,-0.057183,-0.00469,0.003621
2358,0.000481,-0.00469,0.003621
2359,0.019703,-0.00469,0.021737
2360,0.038924,0.012055,-0.014495
2361,0.000481,0.012055,-0.014495
2362,0.000481,-0.021435,0.021737
2363,0.000481,-0.021435,0.039853
2364,0.000481,-0.00469,0.021737
2365,0.000481,-0.00469,0.003621
2366,0.000481,0.0288,-0.014495
2367,0.019703,0.012055,0.003621
2368,0.000481,0.012055,-0.014495
2369,0.019703,-0.00469,-0.014495
2370,-0.01874,-0.00469,0.039853
2371,0.000481,0.012055,0.039853
2372,0.000481,0.012055,0.003621
2373,0.019703,-0.00469,0.057969
2374,0.019703,-0.00469,0.021737
2375,0.000481,-0.00469,-0.014495
2376,0.038924,0.012055,-0.014495
2377,0.000481,-0.00469,0.003621
2378,0.019703,0.012055,-0.014495
2379,0.038924,0.0288,0.003621
2380,0.019703,0.012055,0.057969
2381,0.019703,-0.00469,0.021737
2382,0.000481,-0.00469,0.003621
2383,0.000481,-0.00469,0.021737
2384,0.019703,-0.021435,-0.014495
2385,0.000481,-0.00469,-0.032611
2386,0.000481,-0.00469,0.003621
2387,0.000481,0.0288,-0.014495
2388,0.038924,0.012055,0.021737
2389,0.058146,-0.00469,0.021737
2390,0.000481,-0.021435,-0.014495
2391,0.000481,-0.021435,0.021737
2392,-0.01874,-0.038179,0.021737
2393,-0.01874,-0.021435,-0.014495
2394,-0.01874,0.0288,0.039853
2395,0.000481,0.012055,-0.014495
2396,0.000481,-0.00469,0.003621
2397,-0.01874,-0.00469,0.003621
2398,-0.037962,-0.038179,0.057969
2399,-0.037962,-0.038179,0.021737
2400,-0.037962,-0.038179,0.057969
2401,-0.037962,0.012055,0.039853
2402,-0.037962,-0.021435,-0.014495
2403,0.000481,-0.00469,0.003621
2404,-0.037962,0.012055,-0.032611
2405,-0.01874,0.012055,-0.032611
2406,-0.01874,0.0288,0.021737
2407,-0.01874,0.0288,-0.014495
2408,-0.037962,0.06229,0.021737
2409,-0.037962,0.045545,0.021737
2410,-0.01874,0.0288,-0.014495
2411,-0.01874,0.012055,-0.032611
2412,-0.01874,0.012055,-0.014495
2413,0.000481,-0.00469,-0.050727
2414,-0.037962,0.0288,0.003621
2415,-0.037962,0.012055,0.039853
2416,-0.01874,0.0288,-0.032611
2417,-0.037962,-0.00469,0.039853
2418,-0.057183,-0.00469,-0.032611
2419,-0.037962,0.0288,-0.050727
2420,0.000481,0.012055,-0.050727
2421,-0.01874,0.012055,-0.014495
2422,-0.01874,0.012055,-0.014495
2423,-0.01874,-0.00469,-0.032611
2424,-0.01874,0.0288,0.003621
2425,-0.01874,0.012055,-0.014495
2426,0.000481,0.012055,0.021737
2427,0.000481,-0.00469,0.003621
2428,0.000481,0.012055,-0.032611
2429,-0.01874,-0.00469,-0.050727
2430,-0.01874,-0.00469,-0.032611
2431,0.000481,-0.00469,-0.032611
2432,0.000481,0.012055,-0.032611
2433,-0.01874,0.012055,0.021737
2434,-0.01874,-0.00469,0.021737
2435,0.000481,0.012055,-0.014495
2436,-0.01874,0.012055,0.003621
2437,0.000481,-0.00469,-0.014495
2438,0.019703,0.012055,-0.014495
2439,0.019703,0.012055,-0.032611
2440,0.000481,0.012055,-0.032611
2441,0.000481,0.012055,-0.032611
2442,0.000481,-0.00469,0.003621
2443,-0.01874,-0.00469,0.003621
2444,0.000481,0.012055,0.021737
2445,0.000481,0.012055,-0.014495
2446,0.000481,0.012055,-0.014495
2447,0.019703,0.012055,0.003621
2448,0.000481,0.012055,0.003621
2449,0.000481,0.012055,-0.068843
2450,0.000481,-0.00469,0.003621
2451,-0.01874,-0.038179,0.003621
2452,0.000481,0.012055,0.003621
2453,-0.01874,-0.00469,0.057969
2454,0.000481,-0.021435,-0.014495
2455,-0.01874,-0.00469,-0.050727
2456,0.000481,-0.021435,-0.014495
2457,0.000481,-0.021435,-0.068843
2458,0.019703,-0.00469,-0.032611
2459,0.019703,0.012055,0.003621
2460,0.019703,0.012055,-0.050727
2461,0.000481,0.012055,-0.014495
2462,0.000481,-0.00469,0.021737
2463,0.000481,-0.00469,0.003621
2464,0.019703,-0.00469,-0.032611
2465,0.000481,0.012055,-0.014495
2466,0.019703,0.012055,-0.014495
2467,0.038924,0.012055,-0.050727
2468,0.000481,0.0288,-0.032611
2469,0.000481,-0.021435,-0.014495
2470,0.000481,0.012055,-0.014495
2471,0.000481,-0.00469,0.003621
2472,0.000481,-0.00469,-0.014495
2473,0.000481,-0.00469,-0.050727
2474,-0.01874,-0.00469,0.021737
2475,-0.037962,0.012055,-0.014495
2476,0.000481,0.012055,-0.014495
2477,0.000481,-0.021435,0.021737
2478,-0.01874,-0.00469,-0.032611
2479,0.000481,-0.00469,0.021737
2480,-0.01874,0.0288,0.039853
2481,0.000481,0.012055,-0.032611
2482,0.000481,0.012055,0.021737
2483,0.019703,-0.00469,-0.014495
2484,0.000481,-0.021435,-0.032611
2485,-0.01874,0.012055,-0.014495
2486,-0.01874,-0.00469,0.021737
2487,-0.01874,-0.00469,0.003621
2488,0.000481,0.012055,0.021737
2489,0.019703,-0.00469,0.021737
2490,0.000481,-0.00469,0.003621
2491,0.000481,0.012055,0.021737
2492,-0.01874,0.012055,0.003621
2493,0.000481,0.012055,0.003621
2494,0.019703,-0.00469,0.003621
2495,-0.01874,0.012055,0.021737
2496,-0.01874,-0.00469,0.094201
2497,-0.01874,-0.00469,0.057969
2498,-0.01874,-0.021435,-0.014495
2499,-0.01874,0.012055,-0.032611
2500,0.000481,-0.00469,0.003621
2501,0.000481,0.012055,0.021737
2502,-0.01874,0.012055,-0.032611
2503,0.000481,-0.00469,0.003621
2504,0.019703,-0.00469,0.021737
2505,0.019703,-0.00469,-0.014495
2506,0.000481,0.0288,0.003621
2507,-0.01874,-0.00469,0.003621
2508,0.000481,0.012055,0.003621
2509,-0.01874,-0.00469,0.039853
2510,0.000481,0.0288,0.003621
2511,0.000481,0.0288,0.003621
2512,0.000481,0.012055,0.039853
2513,0.000481,-0.00469,-0.050727
2514,0.019703,0.0288,0.003621
2515,0.019703,-0.00469,0.039853
2516,0.019703,0.012055,0.021737
2517,0.019703,0.012055,-0.014495
2518,0.019703,0.012055,0.021737
2519,0.000481,0.012055,-0.014495
2520,0.019703,0.012055,-0.032611
2521,-0.01874,0.012055,0.021737
2522,-0.01874,-0.00469,-0.050727
2523,0.000481,0.012055,0.003621
2524,-0.01874,0.012055,0.021737
2525,0.019703,-0.00469,0.003621
2526,0.000481,-0.00469,-0.014495
2527,0.000481,-0.00469,-0.014495
2528,0.000481,-0.00469,-0.032611
2529,-0.01874,-0.021435,-0.050727
2530,-0.01874,0.012055,0.021737
2531,-0.01874,-0.00469,-0.032611
2532,-0.01874,-0.038179,0.021737
2533,0.000481,-0.105159,0.039853
2534,-0.037962,-0.188883,0.003621
2535,-0.037962,-0.205628,0.039853
2536,-0.01874,-0.205628,0.021737
2537,-0.01874,-0.121903,-0.014495
2538,-0.01874,-0.021435,-0.014495
2539,-0.01874,0.06229,0.003621
2540,-0.037962,0.146014,-0.014495
2541,-0.01874,0.179503,-0.014495
2542,0.000481,0.196248,-0.014495
2543,0.019703,0.246483,-0.014495
2544,0.058146,0.179503,0.021737
2545,0.019703,0.079034,-0.014495
2546,0.000481,0.079034,-0.032611
2547,0.019703,0.0288,0.003621
2548,0.000481,0.0288,0.003621
2549,-0.037962,0.012055,-0.014495
2550,0.000481,0.012055,0.003621
2551,0.000481,0.0288,-0.014495
2552,0.000481,0.012055,0.003621
2553,0.000481,0.012055,0.021737
2554,-0.01874,-0.00469,0.003621
2555,-0.01874,-0.00469,-0.032611
2556,-0.01874,-0.00469,-0.032611
2557,-0.01874,-0.00469,-0.032611
2558,-0.01874,-0.00469,-0.032611
2559,-0.01874,0.012055,0.003621
2560,-0.037962,-0.00469,0.039853
2561,-0.037962,-0.021435,-0.014495
2562,-0.037962,-0.038179,0.039853
2563,-0.01874,-0.00469,-0.014495
2564,0.000481,-0.00469,0.003621
2565,-0.01874,-0.00469,-0.014495
2566,-0.01874,-0.021435,0.003621
2567,-0.01874,-0.00469,0.003621
2568,-0.01874,-0.00469,0.003621
2569,0.000481,0.012055,0.057969
2570,0.019703,0.012055,-0.014495
2571,0.000481,0.012055,-0.032611
2572,-0.01874,-0.021435,0.003621
2573,-0.037962,0.012055,-0.050727
2574,0.000481,-0.00469,0.003621
2575,-0.01874,0.012055,-0.050727
2576,-0.01874,-0.021435,0.003621
2577,0.000481,-0.00469,0.021737
2578,-0.037962,-0.021435,0.039853
2579,0.000481,-0.00469,0.021737
2580,0.000481,0.012055,0.039853
2581,0.000481,-0.00469,0.021737
2582,-0.01874,-0.00469,-0.032611
2583,0.000481,0.012055,-0.032611
2584,0.000481,0.012055,-0.032611
2585,0.000481,-0.00469,-0.014495
2586,0.000481,-0.00469,0.039853
2587,0.019703,0.012055,0.021737
2588,0.000481,-0.00469,0.021737
2589,0.000481,-0.00469,0.039853
2590,0.000481,0.012055,-0.014495
2591,-0.01874,-0.021435,-0.014495
2592,-0.037962,-0.021435,0.003621
2593,-0.057183,-0.00469,-0.068843
2594,-0.037962,-0.00469,-0.014495
2595,-0.037962,-0.00469,0.021737
2596,-0.01874,-0.021435,0.003621
2597,0.019703,-0.021435,0.021737
2598,-0.01874,-0.00469,0.039853
2599,0.019703,-0.00469,-0.014495
2600,0.000481,-0.00469,-0.050727
2601,0.000481,0.012055,-0.032611
2602,-0.01874,0.012055,-0.014495
2603,0.000481,-0.00469,0.021737
2604,0.000481,0.012055,0.021737
2605,0.000481,0.012055,0.039853
2606,0.000481,-0.00469,0.039853
2607,0.000481,0.012055,-0.014495
2608,-0.01874,-0.00469,-0.032611
2609,-0.037962,-0.021435,-0.050727
2610,-0.037962,-0.00469,0.021737
2611,0.000481,-0.00469,-0.050727
2612,-0.01874,-0.021435,0.003621
2613,-0.01874,-0.054924,0.039853
2614,0.000481,-0.071669,-0.014495
2615,-0.01874,-0.054924,0.039853
2616,-0.01874,-0.038179,0.003621
2617,0.000481,-0.021435,-0.032611
2618,0.000481,-0.00469,-0.050727
2619,-0.01874,0.0288,-0.014495
2620,-0.01874,0.045545,-0.014495
2621,0.019703,0.095779,0.021737
2622,0.000481,0.079034,0.021737
2623,0.000481,0.06229,0.003621
2624,0.019703,0.0288,0.021737
2625,0.000481,0.0288,0.003621
2626,0.000481,0.0288,0.021737
2627,0.019703,-0.00469,-0.032611
2628,-0.01874,0.06229,-0.014495
2629,0.000481,-0.00469,-0.050727
2630,-0.01874,-0.021435,0.003621
2631,-0.037962,0.012055,0.021737
2632,0.000481,0.012055,-0.014495
2633,-0.01874,0.012055,0.021737
2634,-0.037962,-0.00469,-0.014495
2635,-0.01874,-0.038179,0.003621
2636,-0.01874,0.012055,-0.050727
2637,0.000481,-0.038179,-0.032611
2638,-0.01874,-0.021435,-0.014495
2639,0.000481,-0.00469,0.021737
2640,0.000481,-0.00469,0.039853
2641,0.000481,0.012055,0.003621
2642,0.000481,0.012055,0.021737
2643,0.019703,0.045545,0.003621
2644,0.019703,-0.021435,-0.032611
2645,-0.01874,-0.00469,0.003621
2646,0.000481,-0.00469,-0.014495
2647,0.019703,-0.00469,-0.014495
2648,0.000481,0.0288,0.003621
2649,0.000481,-0.00469,0.021737
2650,0.000481,0.012055,0.021737
2651,-0.037962,-0.00469,0.021737
2652,-0.037962,-0.00469,0.003621
2653,-0.01874,-0.00469,-0.032611
2654,-0.037962,-0.00469,0.003621
2655,0.000481,0.012055,-0.014495
2656,-0.01874,0.0288,-0.032611
2657,-0.01874,-0.00469,0.021737
2658,-0.01874,-0.021435,0.021737
2659,-0.01874,-0.00469,0.021737
2660,0.000481,0.012055,0.039853
2661,0.000481,-0.00469,0.003621
2662,-0.01874,-0.00469,0.003621
2663,0.000481,0.0288,0.003621
2664,0.000481,-0.00469,-0.050727
2665,0.000481,0.045545,-0.014495
2666,0.019703,0.012055,-0.014495
2667,0.000481,0.012055,-0.014495
2668,0.000481,0.012055,-0.014495
2669,0.000481,-0.021435,0.039853
2670,0.000481,0.0288,0.003621
2671,-0.01874,0.012055,-0.068843
2672,0.000481,0.0288,0.003621
2673,0.000481,0.012055,-0.032611
2674,0.000481,-0.00469,-0.014495
2675,-0.01874,0.012055,0.021737
2676,0.000481,-0.021435,-0.014495
2677,0.019703,0.0288,0.021737
2678,-0.01874,-0.021435,0.021737
2679,0.000481,0.012055,0.003621
2680,-0.01874,0.012055,-0.032611
2681,0.019703,0.012055,0.021737
2682,0.000481,-0.00469,-0.014495
2683,0.000481,-0.00469,0.021737
2684,-0.01874,0.012055,0.021737
2685,-0.01874,0.012055,-0.014495
2686,0.000481,-0.00469,0.021737
2687,0.000481,-0.00469,-0.014495
2688,0.000481,-0.00469,-0.032611
2689,-0.01874,-0.021435,0.003621
2690,0.000481,0.0288,0.003621
2691,0.000481,0.0288,-0.032611
2692,-0.01874,0.045545,0.003621
2693,0.019703,-0.021435,0.021737
2694,-0.01874,0.012055,0.021737
2695,-0.01874,0.012055,0.039853
2696,0.038924,-0.00469,0.003621
2697,0.000481,-0.00469,-0.050727
2698,0.019703,-0.038179,0.003621
2699,0.019703,-0.00469,-0.032611
2700,0.000481,-0.00469,-0.032611
2701,-0.01874,-0.00469,0.021737
2702,0.000481,0.012055,0.039853
2703,0.000481,0.012055,0.021737
2704,0.000481,0.0288,0.021737
2705,-0.01874,-0.00469,-0.032611
2706,-0.01874,-0.021435,-0.032611
2707,-0.01874,0.012055,-0.014495
2708,0.000481,-0.00469,-0.050727
2709,0.019703,0.012055,-0.032611
2710,0.000481,-0.00469,0.021737
2711,0.000481,-0.00469,-0.014495
2712,-0.01874,0.0288,0.057969
2713,0.000481,0.0288,0.039853
2714,-0.01874,0.0288,0.003621
2715,-0.01874,-0.00469,-0.014495
2716,0.000481,-0.00469,-0.032611
2717,0.019703,-0.00469,-0.032611
2718,0.000481,0.012055,0.003621
2719,-0.01874,-0.00469,0.021737
2720,0.019703,-0.00469,-0.032611
2721,0.019703,0.0288,0.021737
2722,0.038924,-0.00469,0.039853
2723,0.019703,-0.00469,-0.014495
2724,0.019703,-0.00469,-0.014495
2725,0.019703,0.012055,-0.032611
2726,-0.01874,0.045545,-0.050727
2727,-0.057183,-0.00469,0.021737
2728,-0.01874,0.0288,0.021737
2729,-0.037962,0.0288,-0.032611
2730,-0.01874,0.012055,0.039853
2731,-0.037962,0.012055,-0.014495
2732,0.000481,0.012055,-0.032611
2733,-0.01874,0.012055,-0.014495
2734,-0.01874,-0.00469,0.003621
2735,-0.037962,-0.00469,-0.032611
2736,-0.01874,0.012055,-0.032611
2737,0.019703,-0.00469,0.039853
2738,0.000481,0.0288,-0.014495
2739,-0.01874,-0.00469,0.003621
2740,0.000481,-0.00469,0.003621
2741,-0.01874,0.0288,0.021737
2742,0.000481,-0.00469,-0.014495
2743,0.038924,0.012055,-0.014495
2744,0.000481,-0.00469,-0.014495
2745,0.019703,-0.00469,-0.014495
2746,0.000481,-0.00469,0.021737
2747,0.000481,0.012055,0.021737
2748,0.019703,-0.00469,0.021737
2749,0.000481,0.012055,0.003621
2750,-0.01874,-0.038179,-0.014495
2751,0.000481,-0.00469,-0.014495
2752,0.000481,-0.00469,-0.032611
2753,0.000481,0.012055,0.003621
2754,0.019703,0.0288,0.021737
2755,0.019703,-0.00469,0.003621
2756,0.000481,-0.00469,0.021737
2757,-0.01874,-0.00469,0.057969
2758,-0.037962,-0.00469,0.003621
2759,-0.01874,-0.00469,-0.050727
2760,-0.01874,0.012055,-0.014495
2761,-0.037962,0.0288,0.003621
2762,0.000481,0.012055,-0.032611
2763,0.000481,-0.00469,-0.014495
2764,0.000481,-0.00469,-0.014495
2765,0.000481,-0.021435,0.003621
2766,-0.01874,-0.00469,0.021737
2767,0.000481,-0.00469,-0.014495
2768,0.019703,0.012055,-0.032611
2769,0.019703,-0.00469,0.003621
2770,-0.01874,-0.00469,-0.050727
2771,0.000481,-0.00469,0.003621
2772,0.000481,0.012055,-0.014495
2773,0.000481,0.012055,-0.032611
2774,0.019703,-0.00469,0.057969
2775,0.019703,0.012055,0.021737
2776,0.019703,0.012055,-0.050727
2777,0.000481,-0.00469,0.039853
2778,0.019703,-0.021435,0.003621
2779,-0.01874,-0.021435,-0.050727
2780,0.000481,0.012055,0.021737
2781,-0.01874,-0.00469,0.021737
2782,-0.01874,0.012055,0.021737
2783,0.000481,0.012055,0.039853
2784,-0.057183,-0.00469,0.003621
2785,-0.01874,0.0288,-0.014495
2786,0.000481,-0.021435,-0.014495
2787,0.000481,0.012055,-0.032611
2788,0.000481,-0.00469,-0.032611
2789,0.000481,-0.00469,0.003621
2790,0.000481,0.012055,-0.014495
2791,0.019703,0.012055,0.003621
2792,0.000481,-0.00469,0.039853
2793,0.000481,-0.00469,0.003621
2794,0.000481,-0.00469,-0.032611
2795,0.000481,-0.00469,0.021737
2796,0.000481,-0.021435,-0.014495
2797,0.000481,0.012055,-0.050727
2798,0.019703,0.012055,0.003621
2799,0.019703,0.0288,-0.014495
2800,0.000481,-0.00469,0.003621
2801,-0.01874,-0.00469,-0.014495
2802,0.000481,-0.00469,-0.032611
2803,-0.01874,0.0288,-0.032611
2804,-0.01874,0.012055,-0.032611
2805,0.000481,-0.00469,-0.032611
2806,0.000481,-0.00469,-0.014495
2807,-0.01874,-0.00469,-0.014495
2808,-0.01874,-0.00469,-0.014495
2809,-0.01874,0.012055,0.003621
2810,-0.01874,0.012055,0.039853
2811,0.000481,0.0288,-0.014495
2812,0.000481,0.0288,-0.032611
2813,0.000481,-0.021435,0.003621
2814,0.000481,0.012055,-0.032611
2815,-0.01874,0.012055,-0.014495
2816,0.019703,-0.00469,-0.032611
2817,-0.01874,-0.00469,-0.032611
2818,0.000481,0.012055,0.003621
2819,-0.037962,0.012055,0.021737
2820,0.019703,0.0288,-0.014495
2821,-0.01874,-0.021435,0.021737
2822,-0.01874,-0.00469,0.003621
2823,-0.01874,-0.00469,-0.032611
2824,0.000481,0.012055,0.003621
2825,0.019703,0.012055,0.039853
2826,0.019703,-0.021435,-0.014495
2827,0.019703,-0.00469,0.039853
2828,0.000481,-0.00469,0.021737
2829,0.000481,-0.00469,-0.050727
2830,0.000481,0.012055,-0.014495
2831,-0.037962,0.0288,-0.014495
2832,-0.037962,0.012055,-0.050727
2833,-0.01874,0.012055,0.003621
2834,-0.01874,-0.00469,-0.014495
2835,0.000481,-0.00469,0.003621
2836,0.038924,0.012055,0.021737
2837,0.019703,-0.00469,0.021737
2838,0.019703,0.012055,-0.032611
2839,-0.01874,-0.00469,0.003621
2840,0.000481,-0.00469,-0.014495
2841,-0.01874,0.012055,-0.032611
2842,-0.01874,-0.00469,-0.014495
2843,-0.01874,-0.00469,-0.032611
2844,0.000481,-0.00469,-0.014495
2845,0.019703,-0.00469,0.021737
2846,0.000481,0.012055,-0.014495
2847,0.000481,0.012055,-0.050727
2848,-0.01874,-0.00469,-0.014495
2849,0.000481,-0.00469,-0.050727
2850,-0.01874,-0.00469,-0.032611
2851,0.000481,0.012055,-0.014495
2852,0.000481,-0.021435,0.003621
2853,0.000481,0.012055,0.039853
2854,0.019703,-0.038179,0.021737
2855,0.000481,-0.021435,0.003621
2856,0.000481,0.012055,-0.050727
2857,0.019703,0.012055,-0.032611
2858,0.019703,0.012055,-0.014495
2859,0.019703,0.012055,-0.014495
2860,0.000481,0.045545,0.021737
2861,-0.01874,0.012055,-0.014495
2862,-0.01874,-0.021435,0.003621
2863,-0.01874,-0.00469,0.021737
2864,0.000481,-0.00469,-0.014495
2865,-0.037962,0.012055,0.003621
2866,-0.037962,0.012055,0.003621
2867,-0.01874,-0.00469,0.003621
2868,0.000481,-0.038179,0.003621
2869,0.000481,-0.00469,0.039853
2870,0.000481,-0.00469,0.003621
2871,0.000481,0.0288,0.021737
2872,-0.01874,-0.00469,-0.014495
2873,0.000481,0.012055,0.021737
2874,0.000481,-0.00469,0.003621
2875,0.000481,0.012055,-0.014495
2876,-0.01874,0.012055,-0.032611
2877,-0.01874,-0.00469,-0.014495
2878,0.000481,-0.00469,0.003621
2879,0.000481,-0.021435,-0.014495
2880,-0.037962,-0.00469,0.021737
2881,0.000481,-0.00469,-0.014495
2882,0.000481,-0.00469,-0.032611
2883,0.019703,-0.00469,-0.014495
2884,0.000481,-0.00469,0.003621
2885,0.019703,-0.00469,-0.068843
2886,-0.01874,-0.00469,0.003621
2887,0.000481,0.012055,-0.032611
2888,0.000481,-0.00469,0.003621
2889,0.000481,-0.00469,0.039853
2890,0.019703,0.012055,-0.014495
2891,0.000481,-0.021435,-0.032611
2892,0.000481,0.012055,0.003621
2893,-0.01874,-0.00469,-0.050727
2894,0.000481,0.012055,-0.032611
2895,-0.01874,-0.038179,0.021737
2896,0.000481,-0.00469,-0.014495
2897,-0.037962,0.012055,-0.014495
2898,-0.037962,0.012055,0.021737
2899,-0.01874,0.012055,-0.014495
2900,-0.01874,-0.021435,-0.032611
2901,-0.037962,-0.00469,0.021737
2902,-0.037962,0.012055,-0.032611
2903,-0.057183,-0.00469,-0.014495
2904,-0.037962,-0.00469,-0.014495
2905,0.000481,-0.00469,-0.014495
2906,0.000481,0.012055,0.003621
2907,0.019703,0.0288,0.021737
2908,0.038924,-0.00469,-0.014495
2909,0.019703,-0.021435,0.039853
2910,0.019703,-0.00469,0.021737
2911,0.038924,0.012055,-0.050727
2912,0.000481,0.012055,-0.014495
2913,0.000481,-0.00469,0.003621
2914,0.000481,0.012055,0.003621
2915,0.038924,-0.00469,0.003621
2916,-0.01874,-0.00469,0.021737
2917,0.000481,-0.021435,0.003621
2918,0.019703,0.012055,0.021737
2919,-0.037962,-0.00469,0.003621
2920,0.019703,0.012055,-0.068843
2921,-0.01874,-0.00469,0.003621
2922,0.000481,-0.00469,0.021737
2923,-0.01874,-0.00469,-0.014495
2924,0.019703,-0.021435,0.039853
2925,0.000481,-0.00469,-0.014495
2926,0.000481,-0.00469,-0.032611
2927,-0.01874,-0.00469,0.021737
2928,0.019703,0.012055,-0.014495
2929,0.000481,0.079034,-0.032611
2930,-0.01874,-0.00469,0.003621
2931,0.000481,0.012055,-0.032611
2932,0.000481,-0.00469,0.003621
2933,-0.01874,0.0288,0.003621
2934,-0.01874,0.012055,0.003621
2935,0.000481,-0.00469,-0.032611
2936,0.000481,-0.00469,0.003621
2937,-0.01874,0.012055,-0.014495
2938,0.000481,0.012055,-0.032611
2939,0.000481,-0.00469,-0.014495
2940,0.000481,0.012055,-0.050727
2941,-0.01874,0.012055,0.021737
2942,0.019703,-0.00469,0.003621
2943,0.038924,-0.00469,-0.014495
2944,0.000481,-0.021435,-0.014495
2945,0.000481,-0.00469,0.003621
2946,-0.01874,-0.00469,-0.068843
2947,-0.01874,0.012055,-0.014495
2948,-0.01874,0.0288,-0.014495
2949,-0.01874,0.0288,-0.014495
2950,-0.01874,0.012055,0.021737
2951,-0.01874,0.012055,0.039853
2952,0.000481,-0.00469,-0.014495
2953,-0.01874,-0.00469,0.003621
2954,-0.01874,-0.021435,-0.014495
2955,-0.01874,-0.00469,-0.032611
2956,0.000481,0.012055,-0.014495
2957,0.000481,-0.00469,-0.014495
2958,0.000481,-0.00469,0.003621
2959,0.038924,0.012055,0.021737
2960,0.000481,0.012055,0.021737
2961,0.000481,0.012055,0.003621
2962,0.019703,0.012055,0.003621
2963,-0.01874,-0.00469,0.003621
2964,0.000481,-0.00469,-0.032611
2965,0.000481,0.012055,-0.014495
2966,0.019703,0.012055,0.003621
2967,-0.01874,0.012055,0.003621
2968,0.000481,-0.00469,0.003621
2969,-0.01874,0.012055,0.003621
2970,-0.01874,0.045545,0.003621
2971,0.000481,0.0288,0.021737
2972,-0.037962,-0.00469,-0.014495
2973,-0.01874,-0.00469,-0.014495
2974,-0.01874,-0.00469,0.003621
2975,0.019703,-0.00469,-0.032611
2976,0.000481,-0.021435,-0.032611
2977,0.000481,0.012055,0.039853
2978,0.019703,-0.00469,0.039853
2979,0.019703,-0.00469,-0.032611
2980,0.000481,0.012055,0.021737
2981,0.000481,-0.00469,0.003621
2982,0.000481,-0.00469,-0.014495
2983,0.000481,0.012055,-0.014495
2984,0.000481,0.012055,-0.032611
2985,0.000481,0.012055,-0.014495
2986,0.000481,-0.00469,0.039853
2987,-0.01874,-0.00469,0.003621
2988,0.000481,0.012055,-0.032611
2989,0.000481,0.012055,0.021737
2990,0.000481,0.012055,0.003621
2991,-0.01874,-0.021435,-0.032611
2992,0.000481,-0.00469,0.003621
2993,-0.01874,-0.00469,-0.050727
2994,-0.01874,-0.00469,0.003621
2995,0.019703,0.012055,0.021737
2996,-0.01874,-0.021435,-0.014495
2997,-0.01874,0.0288,0.021737
2998,-0.01874,-0.00469,-0.014495
2999,-0.037962,-0.00469,-0.014495
3000,-0.01874,-0.00469,-0.014495
3001,0.000481,-0.00469,-0.032611
3002,0.019703,0.012055,-0.032611
3003,0.000481,0.012055,0.003621
3004,-0.01874,0.012055,0.003621
3005,-0.037962,0.012055,-0.014495
3006,-0.01874,-0.00469,0.021737
3007,0.000481,-0.00469,0.003621
3008,-0.01874,0.012055,-0.032611
3009,-0.01874,0.012055,-0.014495
3010,-0.01874,-0.00469,-0.014495
3011,-0.01874,-0.00469,0.003621
3012,-0.037962,-0.00469,0.021737
3013,0.000481,-0.021435,0.039853
3014,0.000481,-0.00469,0.003621
3015,0.000481,0.012055,0.021737
3016,0.000481,-0.00469,-0.032611
3017,-0.01874,-0.00469,-0.032611
3018,0.000481,-0.00469,-0.050727
3019,-0.01874,0.012055,-0.014495
3020,0.000481,0.012055,-0.014495
3021,-0.01874,-0.00469,0.003621
3022,0.000481,0.012055,0.039853
3023,-0.01874,-0.00469,0.003621
3024,0.000481,-0.021435,-0.014495
3025,0.000481,-0.00469,-0.014495
3026,0.019703,0.012055,-0.032611
3027,0.000481,-0.00469,-0.014495
3028,-0.037962,0.0288,-0.014495
3029,-0.01874,-0.00469,-0.032611
3030,-0.01874,-0.00469,-0.014495
3031,-0.01874,0.012055,0.039853
3032,0.000481,0.012055,0.003621
3033,-0.01874,-0.00469,0.021737
3034,0.000481,-0.00469,-0.032611
3035,-0.01874,-0.00469,-0.050727
3036,0.000481,-0.00469,0.003621
3037,-0.01874,0.012055,-0.032611
3038,-0.01874,-0.00469,-0.014495
3039,0.000481,-0.021435,0.021737
3040,0.000481,-0.00469,0.021737
3041,0.000481,-0.00469,0.039853
3042,0.000481,-0.00469,0.039853
3043,0.000481,0.012055,-0.014495
3044,0.000481,-0.00469,-0.014495
3045,0.000481,0.012055,0.039853
3046,-0.01874,-0.00469,-0.014495
3047,0.000481,-0.00469,-0.032611
3048,0.000481,-0.021435,-0.014495
3049,0.000481,-0.00469,0.021737
3050,0.000481,0.012055,-0.014495
3051,0.000481,0.012055,0.021737
3052,0.000481,-0.00469,0.039853
3053,-0.037962,0.012055,0.021737
3054,0.000481,-0.00469,0.003621
3055,0.000481,-0.00469,-0.014495
3056,0.000481,0.012055,-0.032611
3057,-0.01874,0.012055,0.039853
3058,-0.01874,-0.00469,0.039853
3059,-0.01874,0.0288,-0.014495
3060,0.000481,0.045545,0.057969
3061,0.000481,0.0288,0.003621
3062,-0.01874,-0.00469,-0.032611
3063,-0.01874,-0.00469,0.003621
3064,0.000481,-0.021435,-0.014495
3065,0.000481,-0.00469,0.021737
3066,-0.01874,0.012055,0.021737
3067,0.000481,0.012055,0.021737
3068,0.000481,-0.021435,-0.014495
3069,-0.037962,0.012055,0.057969
3070,0.000481,0.012055,-0.032611
3071,-0.01874,0.012055,-0.032611
3072,-0.01874,-0.00469,0.003621
3073,-0.01874,0.012055,0.003621
3074,0.019703,-0.00469,-0.014495
3075,0.019703,0.012055,0.057969
3076,0.019703,-0.00469,0.021737
3077,0.000481,0.012055,0.039853
3078,0.000481,0.012055,0.021737
3079,0.019703,0.012055,0.021737
3080,0.000481,-0.00469,-0.050727
3081,-0.01874,0.0288,-0.014495
3082,0.019703,-0.00469,-0.014495
3083,-0.01874,-0.00469,0.003621
3084,0.019703,-0.00469,0.003621
3085,-0.057183,-0.021435,-0.014495
3086,-0.01874,-0.00469,0.003621
3087,0.000481,0.0288,0.021737
3088,-0.01874,-0.021435,-0.014495
3089,-0.037962,0.045545,-0.014495
3090,-0.01874,0.012055,0.039853
3091,0.000481,0.012055,-0.032611
3092,0.000481,-0.00469,-0.014495
3093,0.000481,-0.021435,0.021737
3094,-0.01874,0.012055,0.003621
3095,0.000481,-0.00469,-0.014495
3096,-0.037962,0.012055,0.039853
3097,-0.01874,0.012055,-0.014495
3098,0.000481,0.012055,-0.014495
3099,0.000481,0.012055,0.003621
3100,0.000481,-0.00469,-0.032611
3101,0.019703,0.045545,0.021737
3102,-0.01874,-0.00469,0.021737
3103,-0.037962,0.06229,0.003621
3104,-0.01874,0.012055,0.021737
3105,-0.01874,-0.00469,0.003621
3106,0.000481,-0.00469,0.003621
3107,0.000481,-0.00469,0.021737
3108,0.000481,-0.00469,0.021737
3109,0.019703,0.0288,-0.050727
3110,0.019703,0.012055,0.021737
3111,0.019703,0.012055,0.021737
3112,0.038924,-0.00469,0.003621
3113,0.058146,0.012055,-0.014495
3114,0.019703,0.012055,0.003621
3115,-0.037962,0.012055,-0.032611
3116,0.000481,-0.038179,0.021737
3117,-0.01874,-0.021435,0.021737
3118,0.000481,0.0288,-0.014495
3119,-0.037962,0.012055,-0.014495
3120,0.000481,-0.021435,0.003621
3121,-0.01874,0.012055,0.003621
3122,0.000481,-0.00469,0.039853
3123,0.019703,-0.00469,0.021737
3124,0.000481,-0.00469,0.003621
3125,0.000481,-0.00469,0.039853
3126,0.000481,-0.021435,-0.032611
3127,0.000481,-0.00469,-0.014495
3128,0.000481,0.0288,0.057969
3129,0.038924,-0.00469,-0.032611
3130,0.000481,0.012055,0.003621
3131,-0.01874,0.012055,0.003621
3132,0.000481,-0.00469,0.021737
3133,-0.01874,0.0288,-0.014495
3134,-0.01874,0.012055,-0.032611
3135,0.000481,-0.00469,-0.014495
3136,-0.037962,0.012055,-0.014495
3137,0.000481,-0.00469,-0.014495
3138,0.000481,-0.00469,-0.014495
3139,0.000481,-0.00469,0.003621
3140,0.000481,0.012055,0.021737
3141,0.000481,-0.00469,0.021737
3142,0.038924,-0.00469,0.003621
3143,0.000481,0.012055,0.021737
3144,0.019703,0.012055,-0.032611
3145,0.000481,-0.00469,-0.032611
3146,-0.01874,0.012055,0.021737
3147,-0.01874,-0.00469,0.003621
3148,-0.01874,0.045545,0.021737
3149,0.019703,0.012055,-0.014495
3150,0.019703,0.012055,0.003621
3151,-0.01874,0.012055,0.039853
3152,-0.037962,0.0288,-0.014495
3153,-0.037962,-0.021435,-0.032611
3154,0.000481,0.012055,-0.014495
3155,0.000481,0.0288,0.003621
3156,0.038924,0.012055,-0.068843
3157,0.038924,-0.00469,-0.014495
3158,0.000481,-0.021435,0.039853
3159,-0.01874,-0.038179,0.003621
3160,0.000481,0.012055,0.057969
3161,-0.01874,-0.00469,0.003621
3162,-0.01874,0.012055,-0.032611
3163,0.019703,-0.00469,-0.032611
3164,0.019703,-0.00469,-0.014495
3165,0.019703,-0.00469,-0.032611
3166,0.000481,-0.00469,-0.014495
3167,-0.01874,-0.00469,0.021737
3168,-0.057183,0.012055,0.003621
3169,-0.01874,-0.00469,0.021737
3170,0.000481,-0.021435,-0.014495
3171,-0.01874,-0.00469,-0.032611
3172,-0.01874,0.012055,-0.032611
3173,0.019703,-0.00469,-0.032611
3174,-0.01874,-0.00469,0.021737
3175,0.000481,-0.00469,-0.014495
3176,0.000481,-0.00469,0.021737
3177,-0.01874,-0.00469,0.003621
3178,-0.01874,0.045545,0.039853
3179,-0.01874,0.012055,-0.014495
3180,0.000481,-0.00469,0.003621
3181,0.000481,-0.00469,-0.032611
3182,0.000481,-0.00469,-0.050727
3183,0.000481,0.012055,-0.032611
3184,0.000481,0.012055,0.003621
3185,0.000481,0.012055,0.021737
3186,0.000481,0.0288,0.003621
3187,0.000481,0.012055,0.057969
3188,0.000481,-0.00469,0.003621
3189,-0.01874,0.012055,-0.014495
3190,0.000481,-0.00469,0.003621
3191,0.000481,0.012055,-0.032611
3192,-0.01874,-0.021435,-0.014495
3193,0.019703,0.012055,0.021737
3194,0.019703,-0.00469,0.021737
3195,0.000481,-0.00469,0.021737
3196,0.000481,0.012055,0.021737
3197,0.038924,-0.021435,-0.014495
3198,0.000481,-0.021435,-0.032611
3199,0.000481,0.0288,0.003621
3200,0.000481,-0.00469,-0.014495
3201,0.000481,0.012055,0.003621
3202,-0.01874,-0.00469,0.021737
3203,0.019703,-0.00469,0.003621
3204,0.000481,-0.00469,0.021737
3205,0.000481,0.012055,0.021737
3206,-0.01874,-0.00469,-0.014495
3207,0.000481,0.012055,-0.032611
3208,-0.01874,0.012055,0.003621
3209,0.019703,0.012055,-0.032611
3210,0.019703,0.012055,0.003621
3211,0.000481,0.012055,0.039853
3212,0.000481,-0.021435,0.021737
3213,-0.01874,0.012055,0.039853
3214,0.000481,-0.00469,-0.014495
3215,0.000481,-0.021435,-0.032611
3216,0.038924,-0.00469,-0.050727
3217,0.000481,0.012055,0.003621
3218,0.019703,0.012055,-0.050727
3219,0.000481,0.012055,0.003621
3220,0.000481,-0.00469,0.039853
3221,0.019703,-0.00469,0.021737
3222,0.000481,-0.00469,0.039853
3223,0.000481,0.012055,0.021737
3224,-0.01874,0.012055,-0.014495
3225,-0.037962,0.012055,-0.032611
3226,-0.01874,-0.00469,0.003621
3227,0.000481,-0.00469,-0.032611
3228,-0.01874,0.012055,-0.014495
3229,0.000481,-0.00469,0.057969
3230,0.019703,0.012055,0.021737
3231,0.000481,-0.00469,0.021737
3232,0.000481,0.012055,-0.032611
3233,0.000481,-0.038179,-0.032611
3234,0.000481,0.012055,-0.050727
3235,-0.01874,0.012055,-0.050727
3236,0.000481,0.012055,-0.014495
3237,-0.01874,-0.00469,0.039853
3238,-0.01874,-0.00469,0.021737
3239,-0.01874,0.012055,0.039853
3240,0.000481,0.012055,0.057969
3241,-0.037962,-0.00469,-0.014495
3242,0.000481,-0.00469,-0.014495
3243,-0.037962,-0.00469,-0.014495
3244,0.000481,0.0288,-0.014495
3245,-0.037962,0.012055,0.003621
3246,0.000481,0.079034,-0.014495
3247,-0.037962,0.012055,0.003621
3248,-0.01874,-0.021435,0.003621
3249,-0.01874,-0.00469,0.021737
3250,-0.01874,-0.021435,-0.014495
3251,-0.01874,-0.00469,-0.014495
3252,0.038924,-0.021435,0.003621
3253,0.019703,-0.021435,-0.014495
3254,-0.01874,0.012055,-0.032611
3255,-0.01874,0.0288,0.021737
3256,-0.01874,-0.00469,0.057969
3257,-0.01874,0.012055,-0.014495
3258,0.000481,-0.00469,-0.014495
3259,0.000481,-0.00469,-0.014495
3260,0.000481,-0.00469,-0.014495
3261,0.000481,-0.00469,0.003621
3262,0.000481,-0.00469,-0.032611
3263,-0.01874,-0.00469,-0.014495
3264,0.019703,-0.00469,0.021737
3265,0.000481,0.012055,0.003621
3266,0.000481,-0.00469,0.021737
3267,-0.01874,0.012055,0.021737
3268,-0.01874,0.012055,0.003621
3269,0.019703,0.0288,-0.068843
3270,-0.01874,-0.021435,-0.014495
3271,0.000481,-0.021435,-0.032611
3272,-0.01874,0.012055,0.021737
3273,-0.01874,-0.00469,0.003621
3274,-0.01874,0.0288,0.021737
3275,-0.037962,0.012055,0.039853
3276,0.019703,-0.00469,0.021737
3277,0.019703,0.012055,0.003621
3278,-0.01874,-0.00469,-0.032611
3279,0.000481,-0.00469,-0.014495
3280,0.000481,-0.021435,-0.032611
3281,0.000481,0.0288,0.021737
3282,0.000481,-0.00469,0.039853
3283,0.019703,-0.00469,0.039853
3284,0.000481,0.012055,0.021737
3285,0.000481,-0.021435,0.021737
3286,0.000481,-0.00469,-0.014495
3287,0.019703,-0.00469,-0.014495
3288,-0.01874,0.012055,-0.014495
3289,0.000481,0.012055,-0.050727
3290,-0.01874,-0.00469,0.003621
3291,0.000481,-0.00469,0.039853
3292,-0.01874,0.012055,0.021737
3293,-0.01874,0.012055,0.039853
3294,0.000481,0.012055,0.003621
3295,-0.01874,0.012055,0.003621
3296,0.000481,0.012055,-0.032611
3297,0.000481,-0.00469,-0.032611
3298,-0.01874,-0.00469,-0.032611
3299,-0.01874,-0.021435,0.003621
3300,-0.01874,-0.021435,0.039853
3301,0.000481,-0.00469,-0.014495
3302,-0.01874,0.012055,0.021737
3303,-0.01874,0.0288,-0.014495
3304,0.019703,0.0288,-0.014495
3305,-0.01874,-0.00469,-0.032611
3306,-0.01874,0.012055,-0.032611
3307,0.019703,-0.00469,0.003621
3308,0.000481,0.012055,0.003621
3309,0.038924,0.012055,0.076085
3310,0.000481,0.012055,0.021737
3311,0.019703,0.0288,0.003621
3312,0.000481,-0.021435,-0.014495
3313,0.019703,-0.00469,-0.050727
3314,-0.01874,-0.00469,-0.014495
3315,-0.01874,0.012055,-0.032611
3316,0.019703,-0.00469,-0.014495
3317,0.058146,-0.00469,0.021737
3318,0.096589,0.012055,0.021737
3319,0.038924,-0.038179,0.021737
3320,0.000481,-0.021435,0.039853
3321,-0.076405,-0.00469,-0.032611
3322,-0.114848,-0.00469,-0.014495
3323,-0.095626,-0.00469,-0.014495
3324,0.000481,-0.021435,-0.032611
3325,0.038924,-0.021435,-0.032611
3326,0.019703,-0.00469,0.039853
3327,0.000481,0.012055,0.021737
3328,0.000481,-0.00469,0.021737
3329,0.019703,-0.00469,0.057969
3330,0.019703,0.0288,0.021737
3331,-0.01874,0.0288,-0.014495
3332,0.019703,0.0288,0.003621
3333,-0.037962,0.0288,-0.068843
3334,-0.037962,0.0288,-0.068843
3335,-0.01874,-0.038179,0.021737
3336,0.000481,-0.088414,-0.014495
3337,0.019703,-0.088414,0.003621
3338,0.000481,-0.088414,0.021737
3339,0.000481,-0.071669,-0.014495
3340,0.038924,-0.038179,-0.032611
3341,0.000481,0.012055,-0.032611
3342,0.000481,0.012055,-0.032611
3343,-0.037962,0.06229,-0.014495
3344,-0.057183,0.129269,0.039853
3345,0.019703,0.162759,0.003621
3346,0.019703,0.095779,0.039853
3347,0.019703,0.079034,0.003621
3348,-0.01874,0.0288,0.021737
3349,-0.01874,0.012055,0.021737
3350,-0.01874,0.012055,-0.014495
3351,0.000481,0.012055,-0.050727
3352,-0.01874,0.0288,-0.032611
3353,-0.01874,0.012055,0.021737
3354,-0.01874,-0.00469,0.003621
3355,0.000481,-0.00469,0.021737
3356,-0.01874,0.012055,0.039853
3357,0.000481,0.012055,-0.014495
3358,-0.01874,-0.021435,0.021737
3359,0.000481,0.012055,-0.014495
3360,0.000481,0.0288,0.003621
3361,0.019703,-0.00469,-0.032611
3362,0.000481,-0.00469,0.021737
3363,-0.01874,0.012055,-0.014495
3364,0.000481,-0.021435,0.021737
3365,-0.01874,-0.00469,0.039853
3366,0.000481,-0.00469,0.021737
3367,0.000481,-0.00469,0.021737
3368,-0.01874,-0.00469,-0.014495
3369,0.000481,-0.00469,-0.032611
3370,0.000481,-0.021435,0.003621
3371,0.000481,-0.00469,-0.032611
3372,0.000481,-0.00469,0.021737
3373,0.000481,0.0288,0.021737
3374,-0.037962,-0.00469,0.021737
3375,0.000481,-0.00469,0.003621
3376,-0.01874,-0.00469,0.021737
3377,0.000481,-0.00469,-0.032611
3378,0.000481,0.012055,0.003621
3379,-0.01874,-0.00469,-0.014495
3380,0.000481,-0.00469,-0.032611
3381,0.000481,0.012055,0.003621
3382,-0.01874,-0.021435,0.003621
3383,0.019703,-0.00469,-0.014495
3384,0.000481,-0.00469,-0.032611
3385,-0.037962,0.012055,-0.014495
3386,-0.037962,0.012055,-0.014495
3387,0.000481,-0.021435,-0.050727
3388,0.000481,-0.00469,0.003621
3389,-0.01874,0.012055,-0.032611
3390,0.019703,0.012055,-0.032611
3391,0.000481,0.012055,0.003621
3392,-0.01874,-0.00469,0.021737
3393,-0.01874,-0.00469,0.003621
3394,0.000481,0.012055,-0.014495
3395,-0.037962,-0.00469,0.021737
3396,0.000481,-0.00469,-0.032611
3397,0.000481,-0.00469,-0.014495
3398,-0.01874,-0.00469,-0.014495
3399,-0.01874,-0.00469,-0.014495
3400,0.000481,-0.00469,0.021737
3401,-0.01874,0.012055,-0.032611
3402,0.000481,0.0288,0.021737
3403,0.000481,0.0288,-0.014495
3404,0.000481,0.012055,0.003621
3405,-0.01874,-0.00469,0.003621
3406,0.019703,-0.00469,0.021737
3407,-0.01874,-0.00469,-0.032611
3408,0.000481,0.012055,0.039853
3409,0.058146,-0.021435,0.039853
3410,0.096589,0.012055,-0.014495
3411,0.077367,0.012055,0.003621
3412,0.038924,0.012055,0.003621
3413,-0.01874,0.012055,-0.032611
3414,-0.114848,-0.00469,-0.032611
3415,-0.153291,-0.00469,-0.050727
3416,-0.057183,-0.038179,-0.014495
3417,-0.01874,-0.00469,0.021737
3418,-0.057183,0.012055,0.021737
3419,-0.01874,-0.00469,0.021737
3420,-0.01874,0.012055,0.039853
3421,-0.01874,-0.00469,-0.014495
3422,0.000481,0.012055,-0.014495
3423,-0.01874,0.0288,-0.014495
3424,-0.01874,-0.00469,0.021737
3425,0.000481,0.012055,0.003621
3426,0.000481,-0.00469,0.039853
3427,0.000481,0.0288,0.003621
3428,0.000481,0.012055,-0.014495
3429,0.038924,-0.00469,0.039853
3430,0.038924,0.012055,-0.032611
3431,0.038924,-0.00469,-0.014495
3432,0.019703,0.012055,0.021737
3433,0.000481,0.0288,-0.032611
3434,-0.01874,0.012055,0.003621
3435,0.000481,-0.00469,-0.014495
3436,-0.01874,-0.00469,0.003621
3437,-0.01874,0.012055,0.003621
3438,-0.01874,0.012055,0.039853
3439,0.000481,0.0288,-0.014495
3440,-0.037962,-0.00469,-0.032611
3441,-0.01874,0.012055,0.021737
3442,0.000481,0.012055,-0.014495
3443,0.000481,0.012055,0.003621
3444,0.019703,-0.00469,0.039853
3445,0.000481,-0.00469,0.021737
3446,0.000481,-0.00469,0.003621
3447,0.000481,-0.00469,0.021737
3448,0.000481,-0.021435,0.003621
3449,-0.01874,-0.021435,-0.014495
3450,-0.037962,0.012055,0.003621
3451,-0.01874,-0.021435,-0.014495
3452,0.000481,0.012055,0.021737
3453,-0.01874,-0.021435,0.021737
3454,0.000481,0.012055,0.021737
3455,0.019703,0.012055,0.039853
3456,0.000481,0.0288,-0.032611
3457,-0.01874,0.012055,-0.014495
3458,-0.01874,-0.00469,-0.032611
3459,0.000481,-0.00469,-0.032611
3460,-0.01874,-0.00469,-0.014495
3461,0.000481,0.012055,0.003621
3462,0.019703,-0.00469,0.021737
3463,0.000481,0.0288,-0.014495
3464,0.000481,-0.021435,0.039853
3465,0.019703,-0.00469,0.021737
3466,0.000481,0.045545,-0.014495
3467,0.019703,-0.00469,0.003621
3468,-0.037962,-0.00469,-0.032611
3469,-0.037962,-0.038179,-0.050727
3470,-0.01874,-0.00469,0.003621
3471,-0.01874,0.012055,0.003621
3472,0.000481,0.012055,0.003621
3473,-0.01874,0.012055,0.021737
3474,0.000481,-0.00469,0.003621
3475,-0.01874,0.045545,-0.014495
3476,0.000481,0.012055,-0.050727
3477,0.000481,-0.021435,-0.050727
3478,0.000481,-0.00469,-0.032611
3479,0.000481,-0.00469,-0.014495
3480,0.000481,-0.021435,0.057969
3481,-0.01874,0.012055,-0.014495
3482,0.000481,-0.00469,0.039853
3483,-0.01874,0.012055,0.021737
3484,-0.01874,-0.00469,-0.014495
3485,0.000481,-0.00469,-0.032611
3486,-0.01874,-0.00469,-0.014495
3487,0.000481,0.012055,-0.014495
3488,0.000481,-0.00469,-0.014495
3489,0.000481,0.012055,0.039853
3490,-0.01874,0.0288,0.003621
3491,0.000481,0.012055,0.003621
3492,0.000481,0.0288,-0.014495
3493,0.000481,0.012055,-0.032611
3494,0.019703,-0.00469,-0.032611
3495,0.000481,0.012055,-0.032611
3496,0.000481,-0.00469,-0.032611
3497,-0.037962,-0.00469,-0.032611
3498,0.000481,0.0288,0.039853
3499,0.000481,-0.00469,0.021737
3500,-0.01874,0.012055,0.021737
3501,-0.037962,0.012055,-0.014495
3502,0.019703,-0.00469,-0.014495
3503,0.019703,-0.00469,-0.032611
3504,0.000481,0.0288,-0.050727
3505,-0.01874,-0.00469,-0.050727
3506,-0.037962,0.06229,-0.014495
3507,0.000481,-0.021435,0.003621
3508,0.000481,-0.00469,0.021737
3509,0.000481,-0.00469,0.039853
3510,0.000481,0.012055,0.003621
3511,-0.01874,0.012055,-0.032611
3512,-0.01874,-0.00469,-0.014495
3513,-0.01874,-0.038179,-0.014495
3514,-0.01874,-0.021435,-0.032611
3515,0.000481,0.012055,0.021737
3516,-0.01874,-0.00469,0.039853
3517,-0.01874,0.012055,0.021737
3518,-0.037962,-0.00469,0.021737
3519,0.000481,0.045545,0.003621
3520,0.000481,0.012055,-0.014495
3521,-0.037962,0.012055,-0.014495
3522,0.000481,0.012055,-0.032611
3523,-0.01874,0.079034,-0.014495
3524,-0.037962,-0.00469,0.021737
3525,-0.01874,-0.00469,-0.032611
3526,0.019703,-0.021435,0.021737
3527,0.038924,0.012055,0.021737
3528,0.038924,-0.021435,0.003621
3529,0.000481,0.06229,-0.050727
3530,0.019703,0.012055,0.021737
3531,0.000481,0.012055,-0.032611
3532,0.000481,0.012055,-0.032611
3533,0.019703,-0.00469,0.003621
3534,0.019703,0.0288,-0.032611
3535,0.000481,0.012055,0.003621
3536,-0.01874,0.012055,0.021737
3537,0.000481,-0.038179,-0.032611
3538,0.019703,0.012055,-0.032611
3539,0.000481,0.012055,0.003621
3540,0.000481,-0.021435,-0.032611
3541,0.000481,0.012055,-0.032611
3542,0.019703,-0.00469,0.021737
3543,0.000481,-0.00469,-0.014495
3544,0.019703,-0.00469,0.003621
3545,0.019703,-0.00469,0.039853
3546,0.000481,-0.00469,-0.014495
3547,-0.01874,0.012055,0.021737
3548,-0.01874,0.012055,-0.014495
3549,0.000481,0.0288,-0.032611
3550,0.000481,0.0288,-0.032611
3551,-0.01874,-0.00469,0.039853
3552,0.000481,-0.00469,0.003621
3553,0.019703,-0.021435,0.003621
3554,0.000481,-0.00469,0.021737
3555,-0.01874,-0.00469,0.039853
3556,-0.037962,0.012055,0.021737
3557,0.000481,-0.038179,-0.014495
3558,-0.01874,-0.00469,-0.032611
3559,-0.037962,-0.00469,-0.014495
3560,-0.01874,-0.021435,0.021737
3561,0.019703,-0.021435,-0.032611
3562,0.038924,0.0288,0.021737
3563,0.096589,-0.00469,-0.014495
3564,0.11581,0.012055,-0.014495
3565,0.058146,0.012055,-0.014495
3566,-0.037962,0.0288,-0.014495
3567,-0.076405,-0.00469,-0.032611
3568,-0.076405,-0.00469,0.021737
3569,-0.037962,-0.00469,-0.032611
3570,0.000481,-0.038179,0.003621
3571,0.019703,-0.021435,0.003621
3572,-0.037962,-0.00469,0.003621
3573,-0.037962,0.0288,0.021737
3574,-0.037962,0.012055,-0.014495
3575,0.019703,-0.00469,-0.032611
3576,0.000481,-0.00469,-0.050727
3577,0.000481,-0.00469,0.021737
3578,0.019703,0.0288,-0.014495
3579,0.000481,0.012055,-0.014495
3580,0.000481,-0.00469,0.021737
3581,0.019703,0.012055,-0.032611
3582,0.038924,-0.00469,-0.050727
3583,-0.01874,-0.00469,0.021737
3584,-0.057183,-0.00469,-0.032611
3585,-0.01874,-0.00469,-0.050727
3586,0.000481,-0.021435,-0.014495
3587,0.000481,-0.00469,-0.032611
3588,0.019703,0.012055,0.021737
3589,0.038924,0.012055,0.039853
3590,0.019703,-0.00469,-0.032611
3591,-0.037962,-0.021435,0.021737
3592,-0.01874,0.012055,0.003621
3593,0.000481,0.0288,-0.014495
3594,0.038924,0.0288,-0.014495
3595,0.019703,-0.038179,0.021737
3596,0.019703,0.012055,-0.014495
3597,-0.01874,-0.021435,0.003621
3598,-0.01874,-0.00469,0.003621
3599,-0.037962,-0.00469,0.021737
3600,-0.01874,0.012055,0.003621
3601,-0.01874,0.012055,0.021737
3602,0.000481,-0.021435,0.003621
3603,0.038924,0.012055,-0.014495
3604,0.019703,-0.00469,-0.014495
3605,0.000481,0.012055,-0.032611
3606,-0.01874,-0.021435,0.003621
3607,-0.01874,-0.00469,0.021737
3608,-0.037962,-0.00469,-0.014495
3609,-0.01874,-0.00469,0.003621
3610,0.019703,-0.00469,0.021737
3611,-0.01874,-0.021435,-0.014495
3612,0.000481,-0.00469,-0.032611
3613,0.019703,-0.00469,-0.032611
3614,-0.01874,0.012055,-0.014495
3615,-0.01874,-0.00469,0.003621
3616,-0.037962,-0.00469,0.057969
3617,-0.01874,-0.00469,-0.032611
3618,0.019703,-0.00469,0.039853
3619,-0.01874,-0.00469,0.003621
3620,-0.01874,-0.00469,-0.014495
3621,0.019703,-0.00469,-0.014495
3622,0.019703,0.0288,-0.014495
3623,0.000481,-0.00469,-0.050727
3624,-0.01874,-0.00469,0.003621
3625,0.000481,0.0288,0.003621
3626,0.000481,-0.00469,-0.032611
3627,-0.01874,-0.00469,0.021737
3628,0.000481,-0.00469,0.003621
3629,0.000481,0.012055,0.003621
3630,-0.01874,0.012055,-0.032611
3631,0.019703,0.0288,-0.014495
3632,-0.01874,0.0288,-0.014495
3633,0.000481,-0.00469,0.003621
3634,0.000481,-0.00469,0.039853
3635,0.019703,0.012055,0.003621
3636,0.000481,0.012055,0.021737
3637,-0.01874,-0.00469,0.003621
3638,-0.01874,-0.021435,-0.014495
3639,0.000481,0.012055,-0.032611
3640,0.000481,0.012055,-0.032611
3641,0.000481,0.012055,-0.032611
3642,-0.01874,0.012055,-0.032611
3643,0.019703,0.012055,0.003621
3644,0.000481,0.012055,0.021737
3645,-0.01874,-0.00469,0.039853
3646,-0.01874,-0.00469,-0.014495
3647,0.000481,-0.00469,-0.014495
3648,0.000481,-0.00469,-0.032611
3649,-0.01874,-0.00469,-0.032611
3650,0.000481,-0.00469,-0.050727
3651,0.000481,-0.00469,-0.014495
3652,0.019703,-0.00469,0.057969
3653,0.000481,-0.00469,0.003621
3654,0.000481,-0.00469,0.003621
3655,-0.037962,-0.00469,0.021737
3656,-0.037962,-0.00469,-0.014495
3657,-0.037962,0.0288,-0.014495
3658,0.000481,0.012055,0.003621
3659,-0.037962,-0.00469,-0.014495
3660,0.000481,-0.00469,0.021737
3661,0.000481,0.0288,0.039853
3662,0.000481,-0.00469,0.003621
3663,0.000481,0.012055,0.021737
3664,0.038924,-0.00469,0.003621
3665,0.019703,0.0288,-0.032611
3666,0.019703,-0.021435,-0.014495
3667,-0.037962,-0.021435,-0.032611
3668,-0.037962,-0.00469,0.003621
3669,0.000481,-0.00469,-0.014495
3670,0.019703,0.012055,0.039853
3671,0.019703,0.012055,0.021737
3672,0.000481,-0.00469,0.057969
3673,-0.01874,0.0288,0.021737
3674,0.000481,-0.00469,-0.050727
3675,0.000481,-0.00469,-0.014495
3676,0.000481,-0.021435,-0.050727
3677,0.000481,-0.00469,0.003621
3678,-0.01874,-0.00469,0.021737
3679,-0.01874,-0.00469,0.039853
3680,0.000481,-0.00469,0.021737
3681,0.000481,-0.00469,0.003621
3682,0.058146,0.0288,0.021737
3683,0.077367,0.012055,-0.050727
3684,0.019703,-0.00469,0.003621
3685,-0.01874,0.0288,-0.050727
3686,-0.076405,-0.00469,-0.032611
3687,-0.114848,-0.021435,0.039853
3688,-0.057183,-0.021435,-0.014495
3689,0.038924,-0.021435,0.021737
3690,0.000481,-0.021435,0.039853
3691,-0.01874,-0.00469,-0.014495
3692,0.000481,0.012055,-0.032611
3693,0.000481,0.012055,0.021737
3694,0.019703,-0.00469,-0.032611
3695,0.019703,-0.021435,-0.014495
3696,0.000481,0.012055,0.021737
3697,0.000481,0.012055,0.039853
