# Requested Sampling Rate (Hz):,1000
# Actual Sampling Rate (Hz):,998.682
# Requested Duration (s):,5.0
# Actual Duration (s):,5.05
# REST Calibration:,831.9749657534268,832.2800684931498,831.8001369863033
# MAX Calibration:,884.0000,892.0000,887.0000
# Normalization: MVC-based  (x_norm = (x - REST) / (MAX - REST))
sample_idx,EMG1,EMG2,EMG3
0,-0.037962,0.012055,0.003621
1,-0.01874,0.012055,0.021737
2,0.000481,-0.00469,-0.014495
3,0.000481,-0.00469,0.003621
4,0.000481,0.012055,-0.014495
5,0.000481,0.0288,0.021737
6,-0.01874,-0.00469,0.039853
7,0.000481,0.012055,0.021737
8,0.000481,-0.00469,0.021737
9,0.000481,0.012055,0.003621
10,0.000481,-0.021435,-0.032611
11,-0.01874,0.012055,0.021737
12,-0.01874,0.012055,-0.032611
13,0.000481,-0.00469,0.003621
14,0.019703,-0.00469,0.021737
15,-0.01874,-0.021435,0.003621
16,0.000481,-0.00469,0.057969
17,-0.01874,-0.00469,0.094201
18,0.000481,0.012055,0.039853
19,-0.037962,0.012055,-0.014495
20,0.019703,-0.00469,-0.014495
21,-0.01874,-0.021435,-0.050727
22,-0.01874,-0.021435,-0.032611
23,-0.01874,-0.038179,0.021737
24,-0.01874,-0.038179,0.021737
25,-0.037962,0.012055,0.003621
26,-0.037962,-0.00469,-0.032611
27,0.000481,-0.021435,-0.032611
28,0.000481,-0.038179,-0.086959
29,-0.01874,-0.038179,-0.032611
30,-0.01874,-0.038179,-0.014495
31,0.000481,-0.021435,0.003621
32,0.000481,-0.00469,0.003621
33,0.000481,0.0288,-0.032611
34,0.000481,0.06229,-0.014495
35,0.019703,0.0288,0.021737
36,0.000481,0.012055,-0.032611
37,-0.01874,-0.00469,-0.032611
38,0.000481,-0.00469,-0.032611
39,0.000481,-0.021435,-0.050727
40,0.000481,-0.038179,-0.014495
41,0.019703,-0.00469,0.021737
42,0.000481,-0.00469,0.003621
43,-0.01874,0.0288,-0.014495
44,-0.01874,0.0288,0.039853
45,0.000481,0.045545,0.021737
46,0.000481,0.012055,-0.014495
47,-0.01874,0.0288,0.021737
48,0.000481,0.045545,0.021737
49,0.019703,0.045545,-0.014495
50,0.000481,0.012055,0.021737
51,0.000481,-0.00469,-0.032611
52,0.019703,0.012055,0.003621
53,0.019703,-0.00469,-0.014495
54,0.019703,-0.00469,0.039853
55,0.000481,0.012055,0.021737
56,0.000481,0.012055,-0.014495
57,0.000481,0.012055,-0.050727
58,0.000481,-0.021435,0.003621
59,0.000481,-0.00469,-0.086959
60,0.000481,-0.021435,-0.032611
61,0.000481,-0.00469,-0.014495
62,-0.01874,-0.00469,0.021737
63,0.000481,-0.00469,-0.014495
64,-0.01874,-0.00469,0.021737
65,-0.01874,-0.038179,-0.014495
66,-0.037962,0.012055,-0.032611
67,-0.037962,-0.038179,-0.014495
68,-0.01874,0.012055,-0.032611
69,0.000481,0.012055,-0.014495
70,-0.01874,-0.00469,0.003621
71,-0.01874,-0.054924,0.003621
72,0.000481,-0.054924,0.021737
73,-0.01874,-0.038179,0.057969
74,0.000481,-0.00469,0.039853
75,-0.01874,-0.00469,0.003621
76,-0.037962,0.012055,0.003621
77,-0.01874,-0.021435,0.003621
78,0.000481,-0.00469,0.021737
79,0.038924,0.0288,0.003621
80,0.019703,0.0288,-0.014495
81,0.000481,0.0288,0.039853
82,0.000481,0.0288,0.057969
83,-0.037962,0.045545,0.003621
84,0.000481,0.045545,-0.014495
85,0.000481,0.079034,-0.014495
86,0.019703,0.045545,-0.050727
87,0.000481,0.012055,-0.050727
88,0.000481,0.012055,-0.032611
89,0.000481,-0.021435,-0.050727
90,0.000481,0.012055,-0.032611
91,-0.01874,0.012055,0.039853
92,-0.01874,0.012055,-0.014495
93,0.000481,-0.021435,0.003621
94,-0.037962,-0.021435,0.039853
95,0.000481,-0.00469,0.021737
96,-0.01874,0.012055,-0.050727
97,0.019703,-0.00469,0.021737
98,0.038924,0.012055,-0.014495
99,-0.01874,-0.038179,-0.014495
100,0.000481,-0.021435,0.003621
101,0.000481,-0.021435,0.021737
102,-0.01874,-0.00469,0.003621
103,0.000481,-0.021435,0.057969
104,0.000481,-0.021435,-0.014495
105,0.019703,-0.021435,-0.014495
106,0.000481,-0.021435,-0.014495
107,-0.01874,0.012055,-0.032611
108,0.000481,0.012055,-0.014495
109,-0.01874,-0.021435,-0.032611
110,0.000481,0.012055,0.021737
111,0.000481,-0.021435,0.021737
112,0.000481,0.012055,0.057969
113,-0.01874,0.012055,0.003621
114,0.000481,-0.021435,-0.050727
115,-0.037962,-0.021435,-0.032611
116,-0.037962,-0.021435,-0.032611
117,0.000481,-0.038179,-0.068843
118,-0.01874,-0.054924,-0.014495
119,0.000481,-0.038179,0.021737
120,-0.037962,-0.038179,0.003621
121,0.019703,-0.021435,0.039853
122,0.000481,-0.00469,0.003621
123,-0.01874,0.045545,-0.014495
124,-0.01874,0.06229,0.003621
125,0.000481,0.0288,-0.032611
126,-0.01874,0.045545,-0.032611
127,-0.01874,0.0288,0.003621
128,-0.01874,0.045545,0.039853
129,0.019703,0.0288,-0.014495
130,0.019703,-0.021435,0.021737
131,0.000481,-0.054924,-0.014495
132,0.019703,-0.021435,-0.032611
133,-0.037962,-0.021435,0.039853
134,0.000481,-0.00469,-0.014495
135,0.019703,0.0288,0.039853
136,0.000481,0.0288,0.021737
137,-0.01874,0.079034,0.003621
138,0.000481,0.0288,0.021737
139,0.000481,0.0288,0.021737
140,-0.01874,0.012055,0.076085
141,-0.01874,-0.00469,0.021737
142,0.000481,0.012055,0.039853
143,0.000481,-0.00469,0.021737
144,0.000481,0.012055,-0.032611
145,-0.01874,-0.021435,-0.014495
146,-0.01874,-0.021435,-0.086959
147,0.000481,-0.00469,-0.032611
148,0.000481,-0.00469,-0.014495
149,0.000481,-0.00469,0.021737
150,-0.01874,-0.00469,0.003621
151,-0.01874,0.012055,0.039853
152,0.000481,-0.021435,0.039853
153,0.038924,-0.038179,0.021737
154,-0.01874,-0.054924,-0.050727
155,-0.01874,-0.088414,-0.014495
156,0.000481,-0.071669,-0.014495
157,0.000481,-0.021435,-0.014495
158,-0.01874,-0.00469,0.039853
159,-0.01874,0.06229,0.003621
160,0.019703,0.045545,0.039853
161,0.019703,0.095779,0.003621
162,0.000481,0.079034,0.003621
163,0.000481,0.045545,-0.014495
164,0.019703,0.06229,0.003621
165,0.000481,0.012055,0.021737
166,0.000481,0.045545,-0.014495
167,0.000481,-0.00469,0.003621
168,0.019703,0.012055,0.003621
169,0.000481,-0.054924,0.003621
170,0.000481,-0.038179,0.003621
171,0.000481,-0.00469,-0.050727
172,0.019703,0.012055,-0.014495
173,0.019703,0.012055,-0.050727
174,0.019703,0.045545,-0.032611
175,0.000481,0.06229,-0.032611
176,-0.01874,-0.00469,-0.014495
177,0.019703,-0.00469,-0.014495
178,-0.01874,0.012055,0.003621
179,0.000481,-0.00469,0.021737
180,-0.037962,-0.00469,0.003621
181,-0.01874,-0.00469,0.057969
182,-0.01874,-0.021435,0.039853
183,0.000481,0.0288,-0.032611
184,0.000481,-0.00469,0.039853
185,0.000481,-0.00469,0.021737
186,-0.01874,-0.00469,0.021737
187,-0.01874,-0.00469,0.039853
188,0.000481,-0.021435,0.021737
189,0.000481,-0.00469,0.003621
190,-0.01874,-0.054924,0.039853
191,0.019703,-0.088414,0.003621
192,0.019703,-0.054924,-0.014495
193,0.000481,-0.038179,0.003621
194,0.000481,-0.00469,0.021737
195,-0.01874,0.0288,-0.032611
196,0.000481,0.06229,-0.014495
197,0.000481,0.079034,0.003621
198,-0.01874,0.06229,-0.032611
199,-0.01874,0.045545,0.003621
200,-0.037962,0.012055,0.003621
201,0.000481,0.0288,-0.032611
202,0.019703,-0.021435,-0.068843
203,0.019703,-0.00469,-0.050727
204,0.019703,0.012055,-0.050727
205,0.038924,-0.00469,-0.014495
206,0.019703,-0.021435,0.021737
207,0.019703,-0.021435,0.057969
208,0.019703,-0.00469,0.057969
209,0.000481,0.012055,0.057969
210,0.000481,0.0288,0.039853
211,0.019703,-0.00469,0.021737
212,0.000481,0.012055,0.021737
213,0.000481,-0.00469,-0.014495
214,-0.01874,0.012055,-0.014495
215,-0.01874,0.012055,-0.014495
216,-0.01874,-0.021435,0.003621
217,0.000481,-0.00469,-0.032611
218,0.019703,-0.00469,0.003621
219,0.019703,-0.00469,-0.050727
220,0.019703,-0.021435,-0.050727
221,0.000481,-0.021435,0.003621
222,-0.01874,-0.021435,0.003621
223,-0.01874,-0.00469,0.003621
224,-0.01874,0.0288,0.039853
225,0.000481,-0.021435,0.003621
226,-0.01874,-0.00469,0.003621
227,0.000481,0.0288,0.057969
228,0.000481,-0.00469,0.021737
229,0.000481,0.012055,-0.050727
230,0.019703,0.012055,-0.032611
231,0.000481,0.012055,-0.050727
232,0.000481,-0.00469,-0.086959
233,-0.01874,-0.038179,-0.014495
234,0.019703,-0.038179,-0.014495
235,0.000481,-0.071669,0.003621
236,0.000481,-0.038179,0.021737
237,0.000481,-0.00469,0.057969
238,0.019703,-0.00469,0.039853
239,0.019703,0.045545,0.057969
240,-0.01874,0.079034,0.021737
241,0.019703,0.079034,-0.032611
242,-0.01874,0.079034,-0.014495
243,0.019703,0.06229,-0.050727
244,0.000481,0.045545,-0.014495
245,0.019703,0.012055,0.003621
246,0.019703,-0.038179,0.021737
247,-0.01874,-0.021435,0.021737
248,0.000481,-0.038179,0.057969
249,0.000481,-0.00469,0.021737
250,0.000481,-0.00469,-0.050727
251,-0.01874,-0.00469,-0.014495
252,-0.01874,0.012055,-0.050727
253,-0.01874,0.012055,-0.014495
254,-0.01874,0.012055,0.003621
255,0.000481,0.012055,0.003621
256,-0.01874,-0.038179,0.021737
257,0.000481,-0.071669,0.003621
258,-0.01874,-0.071669,0.003621
259,-0.01874,-0.071669,-0.014495
260,-0.037962,-0.088414,-0.032611
261,-0.01874,-0.054924,-0.014495
262,-0.01874,-0.021435,-0.032611
263,0.000481,0.06229,0.003621
264,0.000481,0.079034,0.021737
265,0.019703,0.095779,-0.014495
266,0.000481,0.06229,-0.014495
267,0.000481,0.045545,0.003621
268,0.019703,0.045545,-0.014495
269,0.000481,0.0288,-0.014495
270,0.019703,0.0288,0.003621
271,0.000481,0.0288,-0.014495
272,0.000481,-0.00469,-0.014495
273,0.019703,0.012055,0.039853
274,0.000481,0.012055,0.003621
275,-0.01874,0.012055,-0.014495
276,-0.01874,0.012055,0.003621
277,0.000481,-0.00469,-0.014495
278,0.000481,-0.00469,0.021737
279,0.000481,-0.038179,-0.032611
280,0.000481,-0.021435,-0.050727
281,0.019703,-0.00469,0.003621
282,0.000481,-0.00469,0.021737
283,0.019703,-0.021435,-0.014495
284,0.019703,-0.038179,-0.032611
285,-0.01874,-0.038179,-0.014495
286,0.000481,-0.021435,-0.014495
287,0.000481,-0.038179,-0.014495
288,0.000481,-0.038179,0.003621
289,-0.01874,-0.054924,-0.050727
290,-0.01874,-0.088414,-0.032611
291,0.000481,-0.071669,-0.050727
292,-0.01874,-0.021435,-0.032611
293,-0.01874,-0.00469,0.021737
294,-0.01874,0.012055,0.076085
295,-0.01874,0.012055,0.003621
296,0.000481,0.012055,0.057969
297,0.000481,0.079034,0.003621
298,0.000481,0.079034,0.021737
299,0.000481,0.0288,0.003621
300,0.000481,0.045545,-0.014495
301,0.019703,-0.00469,0.003621
302,0.019703,0.012055,0.003621
303,0.019703,0.012055,0.039853
304,0.000481,-0.038179,0.003621
305,0.000481,-0.00469,0.039853
306,0.000481,0.012055,0.021737
307,0.000481,-0.038179,0.003621
308,0.000481,-0.038179,0.003621
309,-0.01874,-0.021435,0.021737
310,-0.01874,-0.00469,-0.014495
311,-0.01874,0.06229,0.003621
312,0.000481,0.079034,0.039853
313,0.019703,0.045545,0.021737
314,0.000481,0.045545,-0.014495
315,0.019703,0.012055,0.021737
316,-0.01874,0.0288,-0.014495
317,-0.01874,-0.00469,-0.014495
318,-0.01874,-0.021435,0.003621
319,0.000481,-0.00469,-0.014495
320,0.000481,-0.00469,0.021737
321,-0.01874,-0.021435,-0.014495
322,-0.01874,-0.00469,-0.032611
323,0.000481,-0.021435,0.039853
324,0.000481,0.012055,0.039853
325,-0.01874,-0.021435,0.003621
326,-0.01874,-0.00469,-0.014495
327,-0.01874,-0.00469,-0.032611
328,-0.01874,-0.00469,-0.050727
329,0.019703,0.012055,-0.032611
330,0.000481,-0.00469,0.021737
331,-0.01874,-0.00469,-0.032611
332,-0.01874,-0.00469,0.021737
333,-0.01874,-0.021435,0.039853
334,0.000481,-0.038179,-0.032611
335,0.000481,-0.054924,0.057969
336,0.000481,-0.054924,-0.014495
337,-0.01874,-0.088414,-0.032611
338,0.019703,-0.021435,-0.032611
339,-0.01874,-0.038179,0.003621
340,0.000481,-0.021435,-0.014495
341,0.000481,0.0288,0.021737
342,0.000481,0.045545,0.021737
343,0.000481,0.079034,-0.014495
344,0.000481,0.045545,0.057969
345,-0.01874,0.012055,0.021737
346,-0.01874,0.0288,0.003621
347,0.000481,0.045545,-0.014495
348,0.019703,0.0288,0.021737
349,0.019703,-0.00469,-0.050727
350,0.019703,-0.054924,0.021737
351,0.019703,-0.038179,0.003621
352,0.019703,-0.038179,0.021737
353,0.000481,-0.054924,0.021737
354,0.000481,-0.00469,-0.014495
355,-0.01874,0.045545,-0.032611
356,0.000481,0.045545,0.003621
357,0.019703,0.045545,0.003621
358,0.000481,0.06229,0.021737
359,-0.01874,0.0288,0.003621
360,0.019703,0.0288,0.021737
361,0.000481,0.012055,0.003621
362,-0.01874,0.012055,0.021737
363,-0.01874,0.012055,0.057969
364,-0.01874,-0.00469,-0.032611
365,-0.01874,0.012055,-0.014495
366,-0.01874,-0.054924,-0.032611
367,0.000481,-0.021435,-0.050727
368,-0.01874,-0.071669,-0.032611
369,-0.01874,-0.071669,-0.032611
370,0.000481,-0.038179,0.021737
371,0.000481,-0.038179,-0.014495
372,0.000481,-0.021435,0.039853
373,-0.01874,0.012055,0.003621
374,0.000481,0.012055,-0.014495
375,0.000481,0.045545,-0.014495
376,0.000481,0.0288,-0.014495
377,0.000481,0.0288,-0.050727
378,0.000481,0.045545,0.021737
379,0.000481,0.0288,-0.014495
380,0.019703,0.045545,0.003621
381,0.019703,0.012055,0.039853
382,0.000481,0.0288,0.021737
383,0.000481,0.012055,-0.014495
384,0.000481,-0.00469,0.039853
385,0.000481,-0.00469,-0.014495
386,0.019703,0.012055,-0.014495
387,0.000481,-0.021435,0.021737
388,0.000481,-0.054924,-0.050727
389,0.000481,-0.071669,0.039853
390,0.000481,-0.054924,0.039853
391,0.000481,-0.054924,0.039853
392,-0.01874,-0.021435,-0.014495
393,0.000481,-0.021435,0.039853
394,-0.01874,-0.021435,-0.014495
395,0.000481,0.012055,-0.068843
396,-0.01874,0.079034,-0.014495
397,0.000481,0.079034,-0.050727
398,0.000481,0.0288,-0.032611
399,-0.01874,0.0288,0.003621
400,0.000481,0.045545,0.003621
401,0.019703,0.012055,0.003621
402,-0.01874,-0.00469,0.003621
403,0.000481,-0.038179,0.003621
404,-0.01874,-0.038179,-0.032611
405,-0.01874,0.012055,-0.014495
406,0.000481,-0.00469,-0.014495
407,0.000481,-0.021435,0.003621
408,-0.01874,-0.00469,0.021737
409,0.000481,0.045545,0.021737
410,0.000481,0.06229,0.021737
411,0.000481,0.045545,0.057969
412,0.000481,0.0288,0.039853
413,-0.01874,0.012055,-0.032611
414,0.019703,-0.00469,-0.014495
415,0.019703,-0.00469,-0.032611
416,0.000481,0.012055,-0.050727
417,-0.01874,0.012055,0.003621
418,0.000481,-0.00469,0.003621
419,0.019703,-0.021435,0.039853
420,0.019703,-0.00469,0.021737
421,0.019703,0.012055,0.003621
422,-0.01874,-0.00469,-0.032611
423,-0.01874,-0.021435,-0.014495
424,-0.01874,-0.00469,-0.050727
425,-0.01874,-0.038179,-0.068843
426,-0.01874,-0.038179,-0.014495
427,-0.01874,-0.054924,0.094201
428,-0.01874,-0.088414,-0.014495
429,0.000481,-0.054924,0.039853
430,0.000481,-0.038179,0.057969
431,0.000481,-0.038179,0.003621
432,-0.01874,-0.00469,0.039853
433,0.000481,0.0288,0.021737
434,-0.01874,-0.021435,-0.032611
435,0.000481,-0.038179,-0.032611
436,0.000481,-0.054924,0.021737
437,0.000481,-0.138648,-0.032611
438,-0.01874,-0.071669,0.003621
439,-0.01874,0.0288,0.039853
440,-0.01874,0.045545,-0.014495
441,0.000481,0.095779,0.021737
442,-0.01874,0.079034,0.003621
443,0.000481,0.095779,-0.032611
444,-0.01874,0.112524,-0.050727
445,0.000481,0.079034,0.003621
446,0.019703,0.095779,-0.032611
447,-0.01874,0.0288,-0.014495
448,0.000481,0.012055,0.039853
449,0.000481,0.012055,0.021737
450,0.000481,0.045545,0.039853
451,-0.01874,0.0288,0.057969
452,0.000481,-0.021435,0.003621
453,0.019703,-0.021435,-0.050727
454,0.000481,0.012055,0.003621
455,0.000481,0.0288,-0.014495
456,0.019703,-0.00469,-0.014495
457,0.000481,-0.021435,0.021737
458,-0.01874,-0.00469,0.039853
459,-0.01874,0.012055,-0.032611
460,-0.01874,0.012055,0.039853
461,0.000481,-0.021435,0.003621
462,0.000481,-0.054924,-0.068843
463,0.000481,-0.054924,-0.050727
464,-0.01874,-0.054924,-0.014495
465,-0.01874,-0.038179,-0.050727
466,-0.01874,-0.038179,0.003621
467,0.000481,-0.00469,-0.032611
468,-0.037962,-0.00469,0.039853
469,-0.037962,-0.071669,0.094201
470,-0.01874,-0.121903,0.057969
471,0.000481,-0.121903,0.021737
472,-0.037962,-0.105159,0.021737
473,-0.01874,-0.038179,-0.014495
474,0.000481,0.079034,-0.014495
475,0.000481,0.146014,0.003621
476,0.000481,0.095779,-0.050727
477,-0.01874,0.146014,-0.032611
478,0.000481,0.112524,0.003621
479,0.000481,0.079034,0.021737
480,0.000481,0.045545,0.003621
481,0.000481,0.0288,0.003621
482,-0.01874,0.012055,-0.014495
483,-0.01874,0.012055,-0.032611
484,0.000481,0.012055,-0.050727
485,0.000481,-0.00469,-0.032611
486,-0.01874,-0.00469,0.021737
487,-0.01874,0.012055,0.039853
488,0.000481,0.045545,0.057969
489,0.000481,0.045545,0.039853
490,-0.01874,0.012055,0.057969
491,0.000481,0.0288,-0.014495
492,0.000481,0.012055,-0.050727
493,-0.01874,-0.054924,-0.068843
494,-0.037962,-0.038179,-0.050727
495,0.000481,-0.054924,-0.050727
496,0.000481,-0.071669,-0.032611
497,0.000481,-0.088414,0.003621
498,-0.01874,-0.088414,0.003621
499,-0.01874,-0.021435,0.039853
500,0.000481,-0.021435,0.039853
501,-0.01874,-0.00469,0.003621
502,0.000481,0.06229,-0.032611
503,0.000481,0.06229,0.003621
504,0.000481,0.079034,0.021737
505,0.000481,0.06229,0.057969
506,-0.057183,0.045545,0.039853
507,-0.01874,0.012055,0.003621
508,0.000481,-0.00469,0.003621
509,0.000481,-0.00469,-0.014495
510,0.000481,-0.021435,-0.032611
511,-0.037962,-0.00469,-0.032611
512,0.000481,-0.038179,-0.014495
513,0.000481,-0.054924,-0.050727
514,-0.01874,-0.105159,0.003621
515,0.019703,-0.038179,0.003621
516,0.000481,0.012055,0.021737
517,0.019703,-0.00469,0.039853
518,0.000481,0.0288,0.021737
519,0.000481,0.045545,-0.050727
520,0.000481,0.079034,0.003621
521,0.000481,0.06229,-0.032611
522,-0.037962,0.012055,-0.050727
523,-0.01874,-0.021435,0.003621
524,0.000481,-0.054924,0.003621
525,-0.01874,-0.105159,-0.032611
526,0.000481,-0.121903,0.039853
527,-0.037962,-0.054924,0.057969
528,-0.01874,-0.038179,0.021737
529,0.000481,-0.00469,0.039853
530,-0.037962,0.0288,-0.014495
531,-0.01874,0.112524,-0.014495
532,0.019703,0.112524,0.003621
533,0.000481,0.045545,-0.014495
534,0.019703,-0.00469,0.003621
535,0.000481,-0.021435,0.039853
536,0.000481,0.012055,0.003621
537,-0.01874,-0.00469,-0.014495
538,0.000481,-0.00469,0.021737
539,0.000481,-0.021435,0.021737
540,0.000481,-0.00469,-0.050727
541,0.000481,-0.021435,0.003621
542,0.000481,0.012055,-0.050727
543,0.000481,0.079034,-0.014495
544,0.000481,0.045545,0.003621
545,-0.01874,0.045545,0.003621
546,0.019703,0.0288,0.003621
547,0.000481,0.012055,0.021737
548,0.000481,-0.00469,0.003621
549,-0.01874,-0.00469,0.021737
550,-0.01874,-0.021435,0.003621
551,-0.037962,-0.021435,0.021737
552,-0.01874,-0.00469,-0.014495
553,0.019703,0.012055,0.039853
554,0.000481,0.0288,0.039853
555,0.000481,-0.00469,0.003621
556,0.000481,0.0288,-0.014495
557,-0.01874,0.012055,-0.032611
558,-0.037962,-0.00469,-0.032611
559,-0.037962,-0.021435,-0.086959
560,-0.01874,0.012055,-0.032611
561,0.000481,0.012055,0.003621
562,-0.01874,-0.021435,0.021737
563,0.000481,0.012055,0.003621
564,0.000481,-0.021435,0.003621
565,-0.01874,-0.00469,0.003621
566,0.000481,-0.00469,-0.014495
567,0.000481,-0.021435,-0.032611
568,-0.01874,-0.054924,-0.050727
569,-0.01874,-0.00469,0.003621
570,0.019703,0.012055,-0.014495
571,0.000481,-0.054924,-0.032611
572,0.019703,-0.054924,0.003621
573,0.000481,-0.088414,0.003621
574,-0.01874,-0.071669,0.021737
575,-0.01874,-0.105159,0.021737
576,-0.01874,-0.155393,-0.032611
577,-0.037962,-0.172138,0.039853
578,0.000481,-0.172138,0.003621
579,0.019703,-0.121903,0.057969
580,0.000481,-0.071669,0.021737
581,0.000481,-0.038179,0.039853
582,-0.01874,-0.00469,0.003621
583,-0.01874,0.146014,0.039853
584,0.000481,0.296717,0.094201
585,0.019703,0.313462,0.003621
586,0.058146,0.380441,0.039853
587,0.077367,0.330207,-0.014495
588,0.058146,0.162759,-0.014495
589,0.058146,0.045545,-0.050727
590,0.038924,-0.00469,-0.032611
591,0.019703,-0.054924,-0.032611
592,0.000481,-0.021435,0.003621
593,0.000481,-0.054924,0.021737
594,0.000481,-0.021435,0.021737
595,-0.01874,-0.021435,0.003621
596,0.000481,-0.021435,0.021737
597,-0.01874,-0.038179,-0.050727
598,0.000481,-0.054924,-0.032611
599,-0.01874,-0.021435,-0.032611
600,0.000481,-0.021435,-0.032611
601,-0.037962,-0.121903,0.003621
602,-0.01874,-0.155393,0.021737
603,-0.037962,-0.172138,0.039853
604,-0.037962,-0.138648,0.039853
605,-0.01874,-0.088414,0.039853
606,-0.057183,-0.038179,-0.014495
607,-0.076405,0.012055,-0.014495
608,-0.057183,0.095779,0.003621
609,-0.037962,0.162759,0.003621
610,0.000481,0.229738,0.003621
611,0.019703,0.129269,0.021737
612,0.000481,0.112524,0.003621
613,0.038924,0.095779,0.003621
614,0.038924,0.045545,0.039853
615,0.058146,0.0288,-0.014495
616,0.019703,-0.038179,-0.014495
617,0.000481,-0.121903,-0.014495
618,-0.01874,-0.188883,0.003621
619,0.000481,-0.155393,-0.014495
620,0.019703,-0.038179,-0.014495
621,0.019703,0.06229,0.039853
622,0.000481,0.079034,0.003621
623,0.000481,-0.038179,0.021737
624,0.000481,-0.222372,0.021737
625,-0.037962,-0.239117,-0.032611
626,-0.01874,-0.188883,-0.032611
627,-0.01874,-0.172138,-0.014495
628,-0.057183,-0.205628,-0.050727
629,-0.057183,-0.121903,-0.032611
630,-0.037962,0.045545,-0.050727
631,0.000481,0.212993,0.021737
632,0.000481,0.330207,0.021737
633,0.019703,0.346952,0.021737
634,0.077367,0.279972,-0.032611
635,0.077367,0.229738,0.057969
636,0.077367,0.279972,0.021737
637,0.038924,0.212993,-0.050727
638,0.019703,0.146014,0.003621
639,0.019703,0.045545,-0.014495
640,0.019703,0.06229,-0.014495
641,0.019703,0.079034,0.021737
642,0.019703,0.0288,-0.014495
643,0.000481,-0.021435,0.003621
644,-0.01874,-0.038179,0.021737
645,-0.01874,-0.021435,-0.032611
646,-0.01874,-0.038179,-0.050727
647,0.000481,-0.054924,-0.014495
648,-0.01874,-0.088414,-0.032611
649,-0.01874,-0.105159,0.003621
650,-0.037962,-0.088414,0.021737
651,-0.01874,-0.088414,0.039853
652,-0.037962,-0.121903,0.021737
653,0.000481,-0.172138,-0.014495
654,-0.01874,-0.172138,0.021737
655,0.000481,-0.188883,0.021737
656,-0.057183,-0.255862,0.003621
657,-0.037962,-0.373076,0.057969
658,0.000481,-0.356331,0.057969
659,0.019703,-0.205628,0.076085
660,0.000481,0.012055,0.039853
661,-0.037962,0.045545,0.003621
662,-0.01874,0.263228,0.003621
663,0.038924,0.380441,0.039853
664,0.096589,0.430676,0.003621
665,0.058146,0.413931,0.021737
666,0.038924,0.212993,-0.050727
667,0.000481,0.179503,-0.032611
668,-0.037962,0.212993,-0.014495
669,-0.037962,0.196248,0.021737
670,-0.037962,0.079034,-0.032611
671,-0.037962,-0.038179,0.021737
672,-0.057183,-0.205628,0.057969
673,-0.037962,-0.306097,0.003621
674,-0.057183,-0.272607,0.039853
675,-0.057183,-0.088414,-0.014495
676,0.000481,-0.071669,-0.032611
677,-0.037962,-0.054924,0.003621
678,-0.037962,-0.121903,-0.014495
679,0.000481,-0.021435,-0.032611
680,0.019703,0.095779,0.003621
681,0.000481,0.0288,-0.014495
682,-0.01874,-0.00469,-0.050727
683,-0.037962,0.0288,-0.014495
684,0.000481,0.129269,-0.032611
685,0.000481,0.095779,0.003621
686,0.058146,-0.138648,-0.014495
687,0.038924,-0.507035,0.003621
688,0.000481,-0.4568,-0.032611
689,-0.01874,-0.339586,0.003621
690,-0.01874,-0.289352,0.021737
691,-0.057183,-0.205628,-0.032611
692,-0.153291,-0.038179,-0.032611
693,-0.114848,0.06229,0.003621
694,0.038924,0.330207,0.021737
695,0.077367,0.296717,0.021737
696,0.038924,0.079034,0.021737
697,-0.01874,-0.00469,-0.014495
698,-0.057183,0.162759,0.003621
699,-0.037962,0.330207,0.039853
700,0.019703,0.430676,0.003621
701,0.000481,0.346952,0.003621
702,0.019703,0.413931,0.003621
703,0.077367,0.296717,-0.014495
704,0.154253,0.095779,-0.014495
705,0.096589,-0.021435,-0.032611
706,0.038924,-0.105159,-0.032611
707,0.019703,-0.138648,-0.068843
708,-0.057183,-0.188883,0.021737
709,-0.114848,-0.239117,0.021737
710,-0.076405,-0.239117,0.021737
711,-0.037962,-0.054924,0.021737
712,-0.057183,-0.088414,-0.032611
713,-0.095626,-0.172138,-0.032611
714,0.000481,-0.071669,-0.014495
715,0.058146,-0.440055,-0.050727
716,0.019703,-0.440055,-0.032611
717,0.038924,-0.339586,0.021737
718,0.077367,-0.188883,-0.032611
719,0.077367,0.112524,-0.014495
720,0.000481,0.313462,0.003621
721,0.000481,0.413931,-0.032611
722,0.058146,0.581379,-0.032611
723,0.077367,0.614869,0.021737
724,0.058146,0.363697,0.003621
725,-0.01874,0.179503,-0.050727
726,-0.076405,0.229738,-0.032611
727,-0.076405,0.246483,-0.050727
728,-0.076405,0.112524,-0.032611
729,-0.037962,0.06229,-0.014495
730,0.019703,-0.088414,0.021737
731,0.000481,-0.406566,-0.032611
732,0.019703,-0.373076,0.057969
733,0.000481,-0.155393,0.003621
734,-0.037962,-0.021435,-0.032611
735,-0.037962,-0.172138,0.003621
736,0.000481,-0.172138,0.003621
737,0.038924,-0.054924,0.039853
738,0.058146,-0.088414,0.021737
739,-0.037962,-0.356331,0.021737
740,-0.095626,-0.373076,-0.050727
741,-0.01874,-0.389821,-0.014495
742,0.038924,-0.289352,-0.014495
743,0.077367,-0.222372,-0.032611
744,0.038924,-0.272607,0.003621
745,0.019703,0.012055,-0.032611
746,0.000481,0.095779,-0.086959
747,0.000481,0.397186,-0.032611
748,0.154253,0.665103,0.003621
749,0.173475,0.54789,0.039853
750,0.000481,-0.038179,0.039853
751,-0.249399,-0.473545,0.039853
752,-0.307063,-0.557269,0.003621
753,-0.26862,-0.590759,0.003621
754,-0.210955,-0.42331,0.003621
755,-0.210955,-0.4568,-0.014495
756,-0.153291,-0.356331,0.057969
757,0.058146,0.06229,0.021737
758,0.211918,0.263228,-0.032611
759,0.019703,0.095779,-0.050727
760,0.038924,0.246483,-0.068843
761,0.192696,0.648359,0.003621
762,0.173475,0.631614,0.057969
763,0.192696,0.330207,-0.014495
764,0.077367,-0.021435,-0.068843
765,-0.114848,0.012055,0.039853
766,-0.345506,-0.758207,0.076085
767,-0.576164,-1.46149,-0.032611
768,-0.307063,-0.707972,0.057969
769,-0.095626,0.079034,0.039853
770,-0.076405,0.079034,0.003621
771,0.173475,0.012055,0.003621
772,0.36569,1.251172,-0.014495
773,0.250361,1.4856,-0.014495
774,0.096589,0.397186,-0.050727
775,0.11581,0.229738,0.003621
776,0.231139,0.564634,0.057969
777,0.135032,0.631614,0.039853
778,-0.134069,0.129269,-0.068843
779,0.058146,0.045545,-0.105075
780,0.423355,0.430676,0.003621
781,0.11581,0.330207,-0.014495
782,-0.249399,-0.289352,-0.086959
783,0.000481,-0.272607,-0.032611
784,0.288804,-0.473545,-0.032611
785,0.135032,-0.42331,-0.050727
786,0.019703,-0.356331,0.057969
787,-0.01874,-0.42331,0.057969
788,-0.095626,-0.322841,0.021737
789,-0.076405,-0.4568,0.021737
790,0.019703,-0.440055,0.021737
791,-0.095626,-0.724717,0.057969
792,-0.153291,-1.109848,0.021737
793,0.058146,-0.640993,-0.086959
794,0.11581,0.296717,-0.068843
795,0.038924,1.284662,0.003621
796,-0.095626,1.736772,0.076085
797,-0.710715,1.45211,-0.050727
798,-0.441614,1.418621,0.021737
799,0.038924,0.765572,-0.014495
800,0.231139,-0.239117,0.021737
801,0.231139,-0.791697,0.057969
802,0.231139,-1.009379,0.094201
803,0.423355,-0.992635,-0.014495
804,0.288804,-0.691228,-0.123191
805,-0.076405,0.447421,-0.105075
806,-0.095626,0.748828,-0.014495
807,-0.057183,0.397186,0.112317
808,-0.26862,0.196248,0.148549
809,-0.095626,-0.272607,0.021737
810,0.154253,-0.674483,-0.105075
811,0.192696,-0.121903,-0.032611
812,-0.460835,0.413931,0.003621
813,-0.287842,0.06229,0.003621
814,-0.191734,-0.657738,0.021737
815,0.077367,-1.126593,0.003621
816,0.154253,-1.059614,-0.032611
817,-0.191734,0.012055,-0.050727
818,-0.114848,1.535835,-0.032611
819,0.346468,2.222372,0.112317
820,0.481019,1.51909,0.003621
821,-0.422392,0.581379,-0.014495
822,-0.114848,-0.172138,0.057969
823,0.654013,-0.42331,0.148549
824,0.61557,-0.741462,0.039853
825,-0.037962,-1.009379,-0.068843
826,0.135032,-0.9424,-0.105075
827,0.135032,-0.239117,-0.032611
828,-0.076405,-0.272607,0.003621
829,-0.114848,-0.205628,-0.014495
830,-0.999038,-0.892166,-0.086959
831,-0.614607,0.179503,0.003621
832,-0.403171,0.497655,-0.050727
833,-0.134069,0.614869,-0.123191
834,0.75012,0.983255,-0.032611
835,1.557424,1.753517,0.148549
836,0.807785,0.614869,0.003621
837,-0.114848,-0.172138,-0.068843
838,0.250361,-0.373076,-0.050727
839,0.077367,-0.574014,0.039853
840,-0.210955,-0.959145,0.021737
841,-0.210955,-0.892166,0.148549
842,0.173475,-0.356331,0.057969
843,0.327247,-0.808441,-0.123191
844,0.269582,-0.138648,-0.014495
845,-0.5185,0.06229,-0.086959
846,-0.230177,0.196248,-0.014495
847,-0.153291,0.045545,0.039853
848,-0.287842,0.0288,-0.068843
849,-1.402689,-0.121903,-0.195655
850,-0.441614,0.430676,-0.068843
851,-0.287842,0.095779,-0.032611
852,-0.729936,0.799062,0.021737
853,-0.249399,0.866041,0.003621
854,-0.422392,1.083724,0.039853
855,-0.26862,1.0,0.094201
856,0.058146,0.263228,0.057969
857,-0.037962,-1.109848,-0.014495
858,0.135032,-1.444745,-0.050727
859,0.154253,-0.607504,0.003621
860,0.211918,-0.42331,-0.086959
861,0.519462,-0.121903,-0.050727
862,0.846228,0.212993,0.057969
863,0.308025,-0.00469,-0.014495
864,-0.345506,0.330207,-0.032611
865,-0.364728,1.45211,0.039853
866,-0.307063,1.03349,0.003621
867,-0.210955,-0.138648,-0.032611
868,-0.210955,-0.691228,0.021737
869,0.038924,-0.4568,0.021737
870,-0.057183,-0.188883,-0.050727
871,-0.26862,0.012055,0.021737
872,-0.134069,-0.473545,0.003621
873,-0.01874,-0.322841,0.039853
874,0.711677,-0.389821,0.003621
875,0.730899,0.296717,-0.068843
876,0.000481,0.799062,0.003621
877,-0.364728,0.799062,-0.032611
878,-0.210955,0.648359,-0.014495
879,-0.287842,-0.00469,-0.032611
880,-0.26862,-0.121903,-0.014495
881,-0.345506,-0.389821,-0.050727
882,-0.134069,-0.155393,-0.032611
883,0.36569,0.162759,0.003621
884,0.211918,0.079034,-0.068843
885,-0.114848,-0.507035,0.003621
886,-0.114848,-0.574014,-0.050727
887,0.11581,-0.540524,-0.014495
888,0.269582,-0.038179,0.003621
889,0.192696,-0.071669,0.003621
890,-0.287842,-0.188883,0.021737
891,-0.345506,-0.574014,0.003621
892,0.192696,-0.741462,0.003621
893,0.654013,-0.523779,0.021737
894,0.692456,0.0288,0.021737
895,-0.595386,-0.105159,-0.050727
896,-0.422392,0.196248,-0.014495
897,-0.210955,0.815807,0.021737
898,-0.076405,0.882786,0.039853
899,0.038924,0.665103,0.021737
900,0.000481,0.581379,0.076085
901,-0.114848,0.246483,0.039853
902,0.058146,-0.021435,0.021737
903,-0.057183,-0.272607,-0.032611
904,-0.01874,-0.758207,0.003621
905,-0.037962,-0.959145,-0.014495
906,-0.057183,-0.825186,-0.032611
907,-0.076405,-0.4568,-0.105075
908,0.038924,0.698593,-0.050727
909,0.096589,1.050234,-0.050727
910,0.038924,0.413931,-0.050727
911,-0.037962,0.079034,-0.014495
912,0.000481,0.229738,-0.032611
913,-0.01874,0.196248,-0.014495
914,0.000481,0.129269,-0.014495
915,0.000481,-0.071669,-0.068843
916,-0.057183,-0.121903,-0.086959
917,-0.057183,-0.155393,-0.159423
918,-0.01874,0.045545,-0.105075
919,-0.037962,-0.071669,-0.050727
920,-0.037962,-0.121903,0.003621
921,-0.037962,-0.121903,0.039853
922,-0.037962,-0.155393,0.094201
923,-0.037962,-0.172138,0.076085
924,-0.076405,-0.473545,0.057969
925,-0.134069,-1.310786,0.076085
926,-0.153291,-1.612193,0.130433
927,-0.191734,-1.39451,0.057969
928,-0.191734,-0.9424,0.003621
929,0.000481,0.430676,0.057969
930,0.096589,0.799062,0.148549
931,0.096589,0.648359,0.148549
932,0.058146,0.330207,-0.014495
933,0.077367,0.648359,0.003621
934,0.096589,0.866041,0.094201
935,0.038924,0.581379,0.003621
936,0.058146,0.832552,-0.014495
937,0.058146,0.54789,-0.014495
938,0.058146,0.447421,0.003621
939,0.058146,0.430676,0.039853
940,0.000481,0.112524,0.039853
941,0.000481,0.045545,0.021737
942,0.000481,-0.155393,0.039853
943,0.000481,-0.021435,0.003621
944,0.038924,0.06229,-0.014495
945,0.038924,0.129269,-0.032611
946,0.019703,0.045545,-0.014495
947,-0.01874,-0.088414,-0.014495
948,-0.01874,-0.272607,0.003621
949,-0.057183,-0.239117,-0.014495
950,-0.057183,-0.222372,-0.050727
951,-0.057183,-0.255862,-0.014495
952,-0.01874,-0.038179,0.003621
953,-0.01874,-0.088414,0.003621
954,-0.057183,-0.239117,-0.032611
955,-0.037962,-0.105159,0.039853
956,0.000481,0.012055,-0.014495
957,0.058146,0.012055,0.021737
958,-0.01874,-0.172138,-0.032611
959,0.038924,0.06229,0.039853
960,-0.057183,-0.138648,0.039853
961,0.000481,-0.289352,0.021737
962,-0.01874,-0.356331,-0.032611
963,0.000481,-0.222372,-0.050727
964,0.000481,0.246483,-0.014495
965,-0.01874,0.246483,-0.032611
966,-0.057183,0.012055,-0.086959
967,-0.01874,-0.021435,-0.032611
968,0.096589,0.06229,0.021737
969,0.038924,0.112524,0.003621
970,0.019703,-0.138648,0.021737
971,-0.037962,-0.724717,0.003621
972,-0.095626,-1.042869,-0.014495
973,-0.095626,-0.90891,-0.014495
974,-0.095626,-0.774952,-0.105075
975,0.000481,0.5144,0.021737
976,0.077367,1.184193,0.076085
977,0.058146,0.598124,0.057969
978,0.038924,0.296717,0.057969
979,0.038924,0.212993,0.076085
980,0.000481,0.363697,0.039853
981,0.038924,0.380441,-0.014495
982,0.077367,0.598124,0.021737
983,0.058146,0.397186,0.039853
984,0.019703,0.196248,-0.014495
985,0.019703,0.06229,0.003621
986,0.038924,0.0288,0.057969
987,-0.01874,0.012055,-0.014495
988,0.000481,-0.071669,0.039853
989,-0.01874,-0.088414,0.039853
990,0.000481,-0.088414,-0.014495
991,0.000481,-0.105159,-0.014495
992,0.000481,-0.088414,-0.032611
993,0.000481,-0.071669,-0.050727
994,-0.01874,-0.138648,-0.050727
995,-0.01874,-0.155393,-0.050727
996,-0.01874,-0.188883,-0.050727
997,-0.01874,-0.205628,-0.032611
998,0.000481,-0.239117,-0.068843
999,-0.01874,-0.339586,-0.032611
1000,-0.01874,-0.222372,0.057969
1001,-0.01874,-0.172138,0.003621
1002,0.038924,0.0288,-0.032611
1003,0.019703,0.246483,0.039853
1004,0.058146,0.48091,0.057969
1005,0.019703,0.179503,0.057969
1006,0.038924,0.079034,0.076085
1007,0.038924,0.06229,0.057969
1008,0.019703,0.0288,0.021737
1009,0.019703,0.012055,0.076085
1010,0.000481,0.0288,0.039853
1011,0.019703,0.012055,0.021737
1012,0.019703,-0.021435,0.039853
1013,-0.037962,-0.021435,0.021737
1014,-0.01874,-0.038179,0.021737
1015,0.000481,-0.038179,0.039853
1016,0.000481,-0.071669,0.003621
1017,0.019703,-0.054924,0.003621
1018,0.000481,-0.038179,0.021737
1019,0.038924,-0.00469,0.021737
1020,0.019703,-0.038179,-0.032611
1021,0.038924,-0.054924,-0.032611
1022,-0.01874,-0.071669,-0.068843
1023,0.000481,-0.054924,-0.032611
1024,0.000481,-0.054924,0.039853
1025,0.000481,-0.021435,0.057969
1026,-0.01874,0.045545,0.076085
1027,0.019703,0.079034,0.166665
1028,0.019703,0.06229,0.166665
1029,0.038924,0.095779,0.130433
1030,0.038924,0.045545,0.166665
1031,0.019703,0.012055,0.094201
1032,0.000481,0.012055,0.076085
1033,-0.01874,-0.00469,-0.014495
1034,-0.01874,-0.054924,-0.050727
1035,-0.01874,-0.071669,-0.141307
1036,-0.01874,-0.071669,-0.141307
1037,-0.01874,-0.054924,-0.213771
1038,0.000481,-0.071669,-0.268119
1039,0.038924,-0.071669,-0.177539
1040,0.000481,-0.088414,-0.159423
1041,-0.037962,-0.188883,-0.123191
1042,0.019703,-0.071669,-0.068843
1043,0.038924,0.045545,-0.050727
1044,0.000481,0.095779,-0.050727
1045,-0.01874,-0.121903,-0.014495
1046,-0.037962,-0.42331,-0.050727
1047,-0.057183,-0.624248,-0.123191
1048,-0.01874,-0.473545,-0.050727
1049,0.000481,-0.071669,-0.068843
1050,0.058146,0.598124,-0.014495
1051,0.058146,0.882786,0.021737
1052,0.038924,0.48091,0.076085
1053,0.019703,0.212993,0.003621
1054,0.000481,0.045545,0.076085
1055,0.000481,-0.172138,0.039853
1056,-0.01874,-0.255862,0.021737
1057,-0.057183,-0.339586,0.021737
1058,-0.037962,-0.272607,-0.014495
1059,-0.01874,-0.172138,-0.032611
1060,0.000481,-0.105159,0.021737
1061,0.019703,-0.071669,-0.014495
1062,0.019703,0.162759,0.039853
1063,0.019703,0.196248,0.076085
1064,0.000481,0.346952,0.057969
1065,0.058146,0.564634,0.057969
1066,0.058146,0.413931,0.057969
1067,0.058146,0.229738,0.003621
1068,0.038924,0.196248,-0.014495
1069,0.019703,0.095779,0.039853
1070,0.000481,0.0288,-0.014495
1071,0.019703,0.06229,0.021737
1072,0.000481,-0.021435,0.003621
1073,0.019703,-0.071669,0.003621
1074,0.000481,-0.071669,-0.014495
1075,0.000481,-0.155393,0.021737
1076,-0.01874,-0.138648,-0.050727
1077,-0.01874,-0.088414,-0.068843
1078,0.000481,0.06229,-0.014495
1079,0.000481,0.112524,-0.050727
1080,0.000481,0.179503,0.094201
1081,0.019703,0.112524,0.184781
1082,0.019703,0.06229,0.148549
1083,0.019703,0.045545,0.094201
1084,0.038924,0.012055,0.094201
1085,0.019703,0.012055,0.112317
1086,0.000481,-0.00469,0.076085
1087,-0.01874,-0.021435,0.094201
1088,-0.037962,-0.021435,0.003621
1089,-0.037962,-0.088414,-0.123191
1090,-0.01874,-0.121903,-0.177539
1091,-0.037962,-0.155393,-0.195655
1092,-0.037962,-0.138648,-0.105075
1093,-0.01874,-0.054924,0.039853
1094,0.000481,-0.071669,0.057969
1095,-0.01874,-0.054924,0.003621
1096,0.000481,-0.054924,0.003621
1097,0.000481,-0.00469,0.003621
1098,0.038924,0.012055,-0.014495
1099,0.019703,-0.00469,-0.014495
1100,0.000481,0.012055,-0.014495
1101,0.000481,-0.00469,-0.032611
1102,0.000481,-0.021435,0.003621
1103,0.019703,-0.00469,-0.014495
1104,0.000481,-0.00469,-0.014495
1105,0.000481,-0.00469,-0.014495
1106,-0.01874,-0.00469,0.003621
1107,0.019703,-0.00469,-0.014495
1108,-0.037962,-0.021435,-0.014495
1109,-0.01874,-0.021435,0.003621
1110,-0.01874,-0.00469,-0.050727
1111,-0.01874,-0.00469,-0.014495
1112,-0.037962,-0.021435,0.003621
1113,0.000481,-0.00469,-0.050727
1114,0.019703,-0.00469,0.003621
1115,0.019703,-0.00469,-0.050727
1116,0.019703,-0.021435,-0.068843
1117,0.000481,-0.054924,0.003621
1118,0.000481,0.012055,0.003621
1119,-0.01874,-0.00469,0.021737
1120,0.019703,0.012055,0.039853
1121,0.019703,-0.00469,0.057969
1122,0.000481,0.012055,0.057969
1123,0.019703,0.012055,0.076085
1124,0.000481,0.012055,0.021737
1125,0.000481,0.012055,0.021737
1126,0.000481,0.012055,0.003621
1127,0.000481,0.012055,0.003621
1128,0.019703,-0.00469,0.003621
1129,0.000481,0.012055,0.021737
1130,-0.01874,-0.021435,0.039853
1131,0.000481,0.0288,-0.032611
1132,-0.01874,0.0288,0.021737
1133,0.038924,-0.021435,-0.050727
1134,-0.01874,-0.00469,-0.105075
1135,-0.01874,-0.021435,-0.068843
1136,0.000481,-0.021435,-0.086959
1137,-0.01874,-0.038179,-0.086959
1138,-0.037962,-0.071669,-0.068843
1139,-0.01874,-0.121903,0.021737
1140,-0.037962,-0.222372,-0.032611
1141,-0.01874,-0.205628,-0.014495
1142,-0.01874,-0.105159,-0.014495
1143,0.019703,0.045545,0.003621
1144,0.019703,0.246483,0.021737
1145,0.019703,0.330207,0.039853
1146,0.038924,0.196248,0.039853
1147,0.019703,0.129269,0.094201
1148,0.000481,0.095779,0.130433
1149,0.019703,0.079034,0.094201
1150,0.019703,0.06229,0.112317
1151,0.019703,0.0288,0.094201
1152,-0.01874,0.0288,0.039853
1153,0.000481,0.012055,0.021737
1154,0.019703,-0.00469,0.003621
1155,0.000481,-0.00469,-0.068843
1156,0.000481,-0.021435,-0.050727
1157,-0.01874,-0.038179,-0.032611
1158,0.019703,-0.038179,-0.086959
1159,0.000481,-0.00469,-0.014495
1160,0.000481,-0.00469,0.003621
1161,0.019703,0.012055,0.003621
1162,0.019703,-0.00469,-0.032611
1163,-0.01874,-0.00469,0.021737
1164,0.000481,-0.00469,0.021737
1165,-0.01874,-0.021435,0.003621
1166,0.000481,-0.054924,-0.014495
1167,0.019703,-0.038179,0.039853
1168,0.019703,-0.00469,0.094201
1169,-0.01874,0.012055,0.112317
1170,-0.01874,-0.021435,0.076085
1171,0.000481,0.012055,0.094201
1172,0.019703,0.012055,0.003621
1173,0.019703,-0.00469,-0.032611
1174,0.000481,-0.038179,-0.068843
1175,-0.01874,-0.021435,0.003621
1176,-0.01874,-0.00469,0.003621
1177,-0.037962,-0.00469,0.021737
1178,-0.01874,-0.00469,0.057969
1179,-0.01874,0.012055,-0.032611
1180,0.000481,0.0288,0.021737
1181,0.019703,0.012055,-0.032611
1182,-0.01874,-0.00469,-0.050727
1183,0.000481,0.012055,-0.068843
1184,-0.01874,-0.021435,-0.050727
1185,-0.01874,-0.00469,-0.068843
1186,0.019703,0.012055,-0.032611
1187,0.038924,-0.00469,0.057969
1188,-0.01874,-0.021435,0.057969
1189,0.000481,-0.038179,0.094201
1190,0.000481,-0.054924,0.057969
1191,0.019703,-0.00469,0.003621
1192,-0.01874,-0.021435,-0.050727
1193,0.000481,0.012055,-0.050727
1194,-0.037962,-0.021435,-0.086959
1195,-0.01874,-0.038179,-0.032611
1196,-0.01874,-0.021435,-0.032611
1197,-0.037962,-0.00469,-0.032611
1198,0.000481,0.012055,0.021737
1199,0.000481,-0.00469,-0.014495
1200,0.000481,-0.00469,-0.050727
1201,0.000481,-0.00469,-0.068843
1202,0.000481,-0.00469,-0.014495
1203,-0.01874,0.012055,0.021737
1204,0.000481,0.0288,0.021737
1205,0.019703,0.0288,0.021737
1206,0.000481,0.012055,0.094201
1207,0.000481,0.045545,0.039853
1208,0.000481,0.0288,0.057969
1209,0.019703,0.0288,0.057969
1210,0.019703,0.0288,0.039853
1211,-0.01874,0.012055,0.057969
1212,0.000481,0.0288,0.021737
1213,0.000481,0.0288,0.003621
1214,0.000481,0.012055,0.039853
1215,-0.01874,-0.00469,0.003621
1216,-0.037962,-0.021435,-0.014495
1217,0.000481,-0.021435,0.039853
1218,0.000481,0.0288,0.021737
1219,0.000481,-0.00469,-0.068843
1220,0.000481,-0.021435,-0.068843
1221,-0.037962,-0.00469,-0.068843
1222,0.000481,-0.00469,-0.050727
1223,-0.01874,0.012055,-0.032611
1224,0.000481,-0.00469,-0.050727
1225,0.000481,0.0288,-0.014495
1226,-0.01874,0.0288,0.021737
1227,0.019703,0.012055,0.003621
1228,0.019703,0.012055,0.021737
1229,0.038924,0.012055,0.021737
1230,0.058146,0.045545,0.039853
1231,0.058146,0.0288,0.057969
1232,0.038924,0.045545,0.076085
1233,0.019703,0.0288,0.057969
1234,0.019703,0.0288,0.130433
1235,0.019703,0.0288,0.094201
1236,0.000481,-0.00469,0.076085
1237,0.019703,0.012055,0.057969
1238,0.019703,-0.021435,0.021737
1239,0.038924,-0.00469,-0.068843
1240,0.019703,-0.021435,-0.123191
1241,0.000481,-0.021435,-0.123191
1242,-0.01874,-0.054924,-0.159423
1243,-0.01874,-0.071669,-0.123191
1244,-0.01874,-0.038179,-0.086959
1245,0.000481,-0.00469,0.021737
1246,0.000481,-0.021435,-0.014495
1247,0.000481,-0.038179,-0.014495
1248,-0.01874,-0.038179,-0.014495
1249,0.000481,0.012055,-0.014495
1250,0.019703,0.0288,0.003621
1251,0.000481,0.045545,0.003621
1252,0.019703,0.06229,0.039853
1253,0.019703,0.079034,0.039853
1254,0.000481,0.06229,0.057969
1255,0.000481,0.012055,0.039853
1256,0.000481,0.012055,0.094201
1257,0.000481,0.012055,0.057969
1258,0.019703,0.012055,0.076085
1259,0.038924,0.0288,0.094201
1260,0.038924,0.045545,0.057969
1261,0.019703,0.045545,0.021737
1262,0.000481,-0.00469,-0.032611
1263,-0.057183,-0.021435,0.021737
1264,-0.01874,-0.021435,-0.014495
1265,-0.01874,-0.021435,0.003621
1266,0.000481,0.012055,-0.032611
1267,-0.037962,-0.054924,-0.050727
1268,-0.037962,-0.121903,-0.050727
1269,-0.057183,-0.172138,-0.068843
1270,-0.037962,-0.172138,-0.068843
1271,-0.037962,-0.138648,-0.032611
1272,-0.01874,-0.088414,0.003621
1273,-0.01874,-0.021435,-0.014495
1274,-0.01874,0.045545,0.021737
1275,-0.01874,0.146014,-0.032611
1276,0.000481,0.196248,-0.032611
1277,0.019703,0.112524,0.003621
1278,0.019703,0.112524,-0.032611
1279,-0.01874,0.129269,0.003621
1280,0.000481,0.095779,0.003621
1281,-0.01874,0.045545,-0.014495
1282,0.019703,0.0288,0.039853
1283,0.000481,0.0288,0.076085
1284,0.000481,-0.00469,0.039853
1285,-0.01874,-0.00469,0.021737
1286,0.000481,0.012055,0.057969
1287,0.000481,0.012055,0.039853
1288,0.019703,0.012055,0.021737
1289,0.000481,-0.00469,-0.014495
1290,0.000481,-0.00469,-0.032611
1291,-0.01874,-0.021435,-0.014495
1292,-0.01874,-0.00469,0.021737
1293,0.000481,-0.021435,0.003621
1294,-0.01874,-0.021435,-0.032611
1295,-0.01874,-0.021435,-0.032611
1296,-0.01874,-0.021435,-0.050727
1297,-0.01874,-0.021435,-0.068843
1298,-0.01874,-0.00469,0.003621
1299,-0.01874,0.012055,-0.014495
1300,-0.01874,0.012055,0.039853
1301,-0.01874,-0.00469,0.057969
1302,-0.01874,0.0288,0.094201
1303,0.019703,0.012055,0.057969
1304,0.000481,0.0288,0.039853
1305,0.000481,-0.00469,-0.032611
1306,-0.01874,-0.021435,-0.068843
1307,-0.01874,-0.021435,-0.068843
1308,-0.057183,-0.038179,-0.105075
1309,-0.037962,0.012055,-0.032611
1310,0.000481,-0.021435,0.021737
1311,0.000481,-0.021435,0.003621
1312,0.000481,-0.00469,0.021737
1313,0.000481,-0.00469,0.021737
1314,0.000481,0.012055,0.003621
1315,0.019703,-0.00469,0.021737
1316,0.000481,-0.00469,0.021737
1317,0.000481,-0.00469,-0.014495
1318,0.000481,-0.00469,-0.014495
1319,0.000481,0.012055,0.021737
1320,-0.01874,-0.00469,0.057969
1321,-0.01874,0.012055,0.039853
1322,0.000481,-0.00469,0.003621
1323,0.000481,0.012055,-0.014495
1324,0.000481,0.0288,-0.032611
1325,-0.01874,-0.00469,-0.032611
1326,-0.01874,-0.038179,-0.068843
1327,0.000481,-0.054924,-0.068843
1328,-0.01874,-0.105159,-0.068843
1329,-0.01874,-0.054924,0.094201
1330,-0.01874,-0.054924,-0.050727
1331,-0.037962,-0.038179,0.003621
1332,0.000481,-0.00469,0.021737
1333,0.019703,0.012055,-0.014495
1334,0.000481,-0.021435,0.021737
1335,0.000481,0.0288,0.057969
1336,0.019703,0.095779,0.003621
1337,0.019703,0.095779,0.057969
1338,0.038924,0.095779,0.112317
1339,0.019703,0.045545,0.039853
1340,-0.01874,0.012055,0.039853
1341,-0.01874,0.0288,0.076085
1342,0.000481,-0.021435,0.057969
1343,-0.01874,-0.021435,0.076085
1344,0.000481,-0.038179,0.076085
1345,-0.01874,0.0288,-0.032611
1346,-0.01874,-0.021435,0.021737
1347,0.000481,0.06229,-0.032611
1348,0.000481,0.095779,-0.014495
1349,0.000481,0.045545,-0.032611
1350,-0.037962,-0.00469,-0.032611
1351,-0.01874,-0.054924,-0.050727
1352,-0.037962,-0.021435,-0.032611
1353,-0.01874,-0.021435,-0.014495
1354,-0.01874,-0.054924,-0.014495
1355,0.000481,-0.088414,-0.032611
1356,-0.037962,-0.121903,-0.050727
1357,-0.01874,-0.188883,-0.050727
1358,-0.037962,-0.054924,-0.014495
1359,0.000481,-0.021435,-0.014495
1360,0.019703,0.0288,0.003621
1361,-0.037962,0.06229,0.003621
1362,0.000481,0.112524,0.003621
1363,0.019703,0.162759,-0.068843
1364,0.000481,0.112524,0.003621
1365,0.019703,0.06229,-0.014495
1366,0.019703,-0.00469,0.003621
1367,0.019703,-0.054924,0.021737
1368,0.000481,-0.088414,0.057969
1369,0.000481,-0.038179,0.021737
1370,-0.01874,-0.00469,0.039853
1371,-0.01874,0.0288,0.021737
1372,-0.01874,0.012055,-0.032611
1373,0.000481,0.079034,0.003621
1374,0.019703,0.079034,0.003621
1375,0.019703,0.095779,-0.014495
1376,0.000481,0.079034,0.003621
1377,0.038924,0.079034,0.039853
1378,0.038924,0.012055,0.021737
1379,0.019703,0.0288,0.021737
1380,0.000481,-0.021435,-0.014495
1381,-0.01874,-0.071669,-0.050727
1382,-0.037962,-0.021435,-0.086959
1383,0.019703,-0.038179,-0.050727
1384,-0.01874,0.0288,-0.050727
1385,-0.01874,0.012055,-0.014495
1386,0.019703,0.012055,0.021737
1387,0.019703,-0.00469,-0.014495
1388,0.019703,-0.021435,0.003621
1389,0.000481,-0.00469,0.021737
1390,0.038924,0.012055,0.003621
1391,0.019703,-0.054924,-0.014495
1392,-0.037962,-0.054924,-0.086959
1393,-0.057183,-0.088414,-0.086959
1394,-0.057183,-0.00469,-0.032611
1395,0.000481,-0.021435,0.003621
1396,-0.037962,-0.021435,0.003621
1397,-0.01874,-0.00469,0.039853
1398,0.000481,-0.021435,0.039853
1399,-0.01874,-0.00469,0.021737
1400,0.000481,0.0288,0.076085
1401,0.000481,0.012055,0.039853
1402,0.000481,0.012055,0.021737
1403,0.000481,-0.00469,0.039853
1404,0.019703,-0.00469,0.021737
1405,0.000481,-0.038179,0.021737
1406,-0.01874,-0.054924,0.021737
1407,0.000481,-0.054924,0.039853
1408,-0.01874,-0.071669,-0.050727
1409,-0.01874,-0.00469,0.003621
1410,0.000481,-0.021435,-0.014495
1411,0.000481,-0.021435,-0.050727
1412,-0.037962,0.012055,-0.032611
1413,0.000481,0.06229,-0.032611
1414,-0.01874,0.0288,-0.014495
1415,-0.01874,-0.00469,0.003621
1416,-0.01874,0.0288,-0.014495
1417,0.000481,-0.00469,-0.032611
1418,0.000481,0.0288,0.003621
1419,-0.01874,0.012055,0.021737
1420,0.019703,0.012055,-0.014495
1421,0.038924,0.045545,0.021737
1422,0.019703,-0.00469,0.021737
1423,0.000481,0.045545,0.039853
1424,-0.01874,-0.021435,0.003621
1425,-0.01874,-0.00469,0.094201
1426,-0.01874,0.0288,0.076085
1427,0.000481,0.06229,0.094201
1428,0.000481,0.045545,0.039853
1429,0.000481,0.012055,-0.032611
1430,0.000481,0.045545,-0.014495
1431,0.000481,0.0288,-0.014495
1432,-0.01874,0.012055,0.003621
1433,0.000481,-0.00469,0.003621
1434,0.038924,-0.00469,0.003621
1435,0.019703,0.012055,-0.014495
1436,0.019703,-0.021435,0.021737
1437,0.019703,-0.00469,0.021737
1438,0.000481,-0.021435,-0.050727
1439,-0.01874,-0.038179,-0.050727
1440,0.000481,-0.021435,-0.032611
1441,0.000481,-0.038179,-0.086959
1442,-0.037962,-0.038179,-0.032611
1443,-0.01874,-0.00469,-0.032611
1444,-0.037962,0.012055,-0.032611
1445,0.000481,0.012055,-0.014495
1446,0.000481,-0.00469,-0.032611
1447,0.000481,0.012055,0.003621
1448,0.000481,0.0288,-0.032611
1449,0.019703,0.012055,0.003621
1450,0.019703,0.0288,-0.014495
1451,0.019703,-0.021435,0.003621
1452,-0.01874,-0.054924,0.021737
1453,0.000481,-0.021435,0.039853
1454,0.000481,-0.00469,0.057969
1455,0.019703,0.012055,0.039853
1456,0.019703,0.045545,0.021737
1457,-0.01874,0.045545,0.039853
1458,-0.01874,0.045545,-0.014495
1459,-0.01874,0.0288,-0.068843
1460,-0.01874,0.045545,-0.014495
1461,0.000481,0.0288,0.021737
1462,0.019703,0.0288,0.003621
1463,0.000481,0.0288,-0.014495
1464,0.019703,-0.00469,0.021737
1465,0.000481,0.012055,-0.032611
1466,0.000481,0.012055,0.021737
1467,0.000481,0.0288,-0.032611
1468,-0.01874,-0.00469,0.003621
1469,0.000481,-0.021435,-0.068843
1470,0.000481,0.012055,-0.014495
1471,0.000481,-0.021435,-0.050727
1472,-0.037962,-0.021435,0.003621
1473,-0.037962,-0.00469,0.057969
1474,0.000481,-0.021435,0.003621
1475,-0.01874,-0.00469,0.039853
1476,0.000481,-0.00469,0.021737
1477,0.000481,0.012055,0.003621
1478,0.000481,-0.00469,0.003621
1479,0.019703,0.012055,0.039853
1480,0.000481,-0.021435,-0.032611
1481,-0.01874,-0.054924,0.003621
1482,0.000481,-0.00469,0.021737
1483,-0.01874,-0.021435,0.039853
1484,0.000481,-0.021435,0.057969
1485,0.000481,-0.00469,0.039853
1486,-0.01874,0.0288,0.021737
1487,0.000481,0.0288,-0.050727
1488,0.000481,0.012055,-0.014495
1489,-0.037962,0.06229,-0.068843
1490,-0.01874,0.012055,-0.050727
1491,0.000481,-0.00469,0.003621
1492,0.000481,-0.00469,0.021737
1493,0.000481,-0.021435,-0.014495
1494,0.000481,-0.054924,0.021737
1495,0.000481,-0.054924,-0.014495
1496,-0.01874,-0.071669,-0.050727
1497,0.019703,-0.088414,-0.014495
1498,0.000481,-0.038179,0.003621
1499,-0.01874,0.0288,-0.014495
1500,0.019703,0.06229,0.039853
1501,0.000481,0.06229,-0.032611
1502,-0.01874,0.045545,-0.014495
1503,-0.01874,0.012055,0.003621
1504,-0.01874,0.045545,0.003621
1505,0.000481,-0.038179,-0.014495
1506,0.000481,-0.054924,-0.014495
1507,-0.037962,-0.071669,0.003621
1508,0.000481,-0.038179,-0.032611
1509,0.000481,0.0288,0.021737
1510,0.000481,0.079034,-0.014495
1511,0.019703,0.112524,0.039853
1512,0.019703,0.06229,0.039853
1513,0.019703,0.06229,0.057969
1514,0.019703,0.0288,0.003621
1515,-0.01874,0.0288,0.039853
1516,-0.01874,0.045545,0.021737
1517,0.000481,0.012055,0.003621
1518,0.000481,-0.00469,-0.014495
1519,0.000481,0.012055,-0.014495
1520,0.000481,0.012055,-0.014495
1521,0.000481,0.012055,0.021737
1522,0.000481,-0.00469,0.003621
1523,0.019703,0.012055,-0.014495
1524,0.000481,-0.00469,0.021737
1525,0.000481,-0.021435,0.003621
1526,-0.01874,-0.021435,-0.032611
1527,-0.01874,-0.00469,-0.014495
1528,-0.01874,0.012055,-0.014495
1529,0.019703,-0.00469,-0.014495
1530,0.000481,-0.00469,0.021737
1531,0.000481,-0.038179,0.003621
1532,0.000481,-0.071669,-0.014495
1533,0.000481,-0.038179,0.003621
1534,0.000481,-0.054924,-0.014495
1535,0.000481,-0.00469,-0.014495
1536,0.000481,-0.021435,-0.050727
1537,0.000481,-0.00469,-0.032611
1538,0.000481,0.012055,-0.050727
1539,-0.037962,0.012055,-0.014495
1540,-0.037962,0.012055,-0.014495
1541,0.000481,-0.021435,-0.032611
1542,0.000481,0.012055,0.021737
1543,0.019703,0.012055,0.003621
1544,0.000481,0.045545,-0.032611
1545,0.000481,0.079034,0.003621
1546,-0.01874,0.06229,0.003621
1547,-0.01874,0.045545,0.003621
1548,0.019703,0.045545,0.057969
1549,0.019703,0.012055,0.039853
1550,-0.01874,0.012055,0.021737
1551,0.000481,-0.00469,0.021737
1552,0.000481,-0.00469,0.003621
1553,0.000481,-0.00469,-0.014495
1554,-0.01874,-0.00469,-0.014495
1555,-0.01874,-0.00469,-0.032611
1556,0.000481,-0.038179,-0.032611
1557,0.000481,-0.054924,0.003621
1558,0.019703,-0.071669,0.003621
1559,-0.01874,-0.038179,-0.032611
1560,0.000481,-0.021435,0.039853
1561,0.000481,-0.021435,0.021737
1562,-0.01874,0.012055,0.021737
1563,0.000481,0.06229,0.057969
1564,0.000481,0.079034,-0.014495
1565,-0.01874,0.06229,-0.050727
1566,-0.01874,0.045545,-0.014495
1567,-0.01874,0.012055,-0.068843
1568,-0.01874,0.012055,-0.032611
1569,0.000481,-0.038179,0.003621
1570,0.000481,-0.054924,0.021737
1571,-0.01874,-0.071669,-0.014495
1572,0.000481,-0.021435,0.021737
1573,0.019703,-0.00469,0.021737
1574,0.000481,0.045545,0.003621
1575,0.000481,0.012055,0.003621
1576,-0.01874,0.0288,0.003621
1577,0.019703,0.06229,0.003621
1578,0.000481,0.0288,0.057969
1579,0.000481,0.012055,0.057969
1580,-0.01874,-0.00469,0.039853
1581,0.000481,0.012055,0.057969
1582,-0.01874,-0.021435,0.003621
1583,-0.01874,-0.038179,0.003621
1584,0.000481,-0.038179,-0.014495
1585,0.000481,-0.021435,-0.014495
1586,0.000481,0.0288,0.039853
1587,0.000481,0.012055,0.039853
1588,0.000481,-0.00469,0.021737
1589,0.019703,-0.00469,0.021737
1590,0.000481,0.012055,0.003621
1591,-0.01874,0.012055,-0.014495
1592,0.000481,0.0288,-0.068843
1593,0.000481,-0.021435,-0.068843
1594,-0.01874,-0.00469,-0.068843
1595,0.000481,-0.00469,-0.086959
1596,0.000481,-0.00469,-0.032611
1597,-0.01874,-0.021435,-0.014495
1598,0.000481,-0.021435,-0.014495
1599,-0.01874,-0.021435,0.039853
1600,-0.01874,-0.038179,-0.032611
1601,0.000481,-0.021435,-0.050727
1602,-0.01874,-0.00469,-0.032611
1603,0.000481,-0.00469,-0.014495
1604,0.000481,0.012055,-0.032611
1605,0.000481,-0.00469,0.021737
1606,0.000481,0.012055,0.039853
1607,0.019703,0.012055,-0.032611
1608,0.000481,0.012055,0.039853
1609,0.000481,0.0288,0.057969
1610,0.000481,0.012055,-0.014495
1611,-0.01874,0.012055,-0.014495
1612,0.000481,-0.021435,-0.014495
1613,0.000481,-0.038179,-0.050727
1614,0.019703,-0.071669,-0.014495
1615,0.000481,-0.054924,0.003621
1616,-0.01874,-0.038179,-0.014495
1617,-0.01874,-0.00469,0.003621
1618,-0.037962,0.0288,-0.032611
1619,0.000481,0.06229,-0.032611
1620,0.000481,0.06229,0.021737
1621,0.019703,0.0288,-0.050727
1622,-0.01874,-0.00469,-0.014495
1623,0.019703,-0.00469,0.021737
1624,0.000481,0.012055,0.021737
1625,0.000481,-0.021435,0.003621
1626,0.000481,0.012055,0.039853
1627,0.019703,0.0288,0.039853
1628,0.038924,-0.00469,0.003621
1629,0.038924,0.0288,0.057969
1630,0.038924,0.012055,0.021737
1631,0.019703,0.012055,-0.014495
1632,0.000481,-0.00469,0.003621
1633,0.000481,-0.00469,-0.032611
1634,0.000481,-0.021435,-0.050727
1635,-0.057183,-0.038179,-0.050727
1636,-0.037962,-0.021435,-0.068843
1637,-0.057183,-0.021435,-0.050727
1638,-0.037962,-0.00469,-0.032611
1639,-0.01874,0.012055,-0.068843
1640,-0.01874,0.012055,-0.032611
1641,-0.01874,-0.021435,0.003621
1642,-0.01874,-0.038179,-0.032611
1643,0.000481,-0.038179,0.021737
1644,0.000481,-0.021435,0.057969
1645,0.000481,-0.021435,0.057969
1646,-0.01874,0.045545,0.039853
1647,0.000481,0.06229,0.076085
1648,0.000481,0.095779,0.057969
1649,0.019703,0.06229,0.003621
1650,0.019703,0.045545,0.003621
1651,0.000481,0.0288,-0.014495
1652,0.019703,0.012055,0.003621
1653,-0.01874,0.012055,0.021737
1654,0.000481,0.012055,-0.014495
1655,0.000481,0.0288,-0.014495
1656,0.000481,-0.021435,0.003621
1657,-0.01874,-0.054924,-0.050727
1658,-0.037962,-0.054924,-0.032611
1659,0.000481,-0.021435,0.021737
1660,-0.01874,-0.00469,-0.032611
1661,0.000481,0.012055,0.003621
1662,0.019703,0.06229,0.021737
1663,0.019703,0.06229,0.057969
1664,-0.01874,0.095779,0.021737
1665,0.019703,0.0288,0.039853
1666,0.000481,0.012055,0.021737
1667,0.000481,-0.021435,-0.014495
1668,-0.01874,-0.021435,0.003621
1669,0.000481,-0.00469,-0.014495
1670,0.000481,-0.021435,-0.014495
1671,0.000481,-0.00469,0.003621
1672,-0.01874,-0.00469,0.003621
1673,0.000481,-0.021435,-0.014495
1674,0.019703,0.0288,0.021737
1675,0.000481,-0.00469,-0.014495
1676,-0.01874,-0.021435,-0.032611
1677,0.000481,-0.00469,0.003621
1678,-0.01874,-0.00469,-0.050727
1679,0.000481,-0.00469,-0.032611
1680,0.000481,-0.00469,0.003621
1681,0.000481,-0.021435,0.021737
1682,-0.01874,-0.00469,-0.014495
1683,-0.01874,-0.00469,0.003621
1684,-0.01874,0.012055,-0.032611
1685,-0.01874,-0.00469,-0.050727
1686,0.000481,-0.00469,-0.032611
1687,-0.037962,-0.038179,-0.032611
1688,-0.01874,-0.054924,-0.032611
1689,0.000481,-0.038179,0.021737
1690,-0.01874,-0.054924,0.057969
1691,0.019703,-0.021435,0.039853
1692,-0.01874,-0.00469,0.076085
1693,0.000481,0.0288,0.076085
1694,0.019703,0.079034,0.039853
1695,-0.01874,0.095779,0.039853
1696,0.000481,0.095779,-0.032611
1697,-0.01874,0.045545,-0.014495
1698,0.019703,0.012055,0.003621
1699,0.000481,-0.00469,-0.032611
1700,-0.01874,-0.00469,-0.032611
1701,-0.01874,0.012055,0.021737
1702,-0.01874,0.012055,-0.032611
1703,0.000481,-0.00469,-0.068843
1704,0.000481,0.012055,-0.032611
1705,0.000481,0.012055,0.003621
1706,0.000481,0.012055,-0.014495
1707,0.000481,-0.00469,-0.032611
1708,0.000481,-0.021435,-0.032611
1709,0.000481,-0.00469,0.003621
1710,0.000481,-0.00469,0.039853
1711,0.000481,0.0288,0.003621
1712,-0.01874,-0.00469,-0.014495
1713,-0.01874,0.012055,0.003621
1714,-0.01874,-0.021435,-0.050727
1715,-0.01874,0.012055,-0.032611
1716,-0.037962,-0.00469,-0.014495
1717,-0.01874,-0.00469,-0.050727
1718,-0.01874,-0.021435,0.021737
1719,-0.01874,-0.021435,0.021737
1720,-0.037962,-0.021435,0.003621
1721,-0.037962,-0.038179,0.021737
1722,-0.01874,-0.038179,0.039853
1723,0.000481,-0.021435,-0.014495
1724,-0.01874,-0.021435,-0.032611
1725,0.000481,-0.00469,0.003621
1726,0.000481,-0.00469,-0.032611
1727,0.000481,-0.021435,0.021737
1728,-0.037962,0.012055,0.003621
1729,0.000481,0.06229,-0.014495
1730,0.038924,0.079034,0.039853
1731,0.000481,-0.021435,0.039853
1732,0.000481,-0.00469,-0.014495
1733,0.000481,-0.021435,-0.014495
1734,-0.01874,-0.021435,-0.014495
1735,0.000481,-0.038179,-0.050727
1736,0.000481,-0.038179,-0.014495
1737,0.000481,-0.00469,0.039853
1738,-0.01874,0.045545,-0.014495
1739,0.000481,0.012055,0.003621
1740,0.000481,0.0288,0.003621
1741,0.000481,0.079034,0.003621
1742,0.000481,0.0288,-0.032611
1743,0.019703,0.0288,0.003621
1744,0.000481,0.012055,-0.050727
1745,0.019703,0.0288,0.003621
1746,0.000481,-0.021435,0.057969
1747,0.019703,0.012055,0.057969
1748,0.000481,-0.00469,0.039853
1749,0.000481,0.012055,0.039853
1750,-0.037962,0.0288,0.021737
1751,0.019703,0.012055,-0.032611
1752,-0.01874,-0.00469,-0.014495
1753,0.000481,-0.021435,-0.032611
1754,-0.01874,-0.00469,-0.032611
1755,-0.01874,-0.00469,0.003621
1756,-0.01874,-0.021435,0.039853
1757,-0.01874,-0.021435,0.003621
1758,0.019703,0.012055,0.003621
1759,0.000481,-0.038179,-0.014495
1760,0.000481,-0.00469,-0.068843
1761,0.000481,-0.00469,-0.032611
1762,-0.01874,0.0288,-0.068843
1763,0.019703,0.012055,-0.050727
1764,0.000481,-0.021435,-0.014495
1765,0.019703,-0.105159,0.003621
1766,0.000481,-0.105159,0.021737
1767,0.000481,-0.105159,0.039853
1768,-0.01874,-0.088414,0.021737
1769,-0.01874,-0.038179,0.003621
1770,-0.01874,0.0288,0.039853
1771,0.000481,0.079034,0.021737
1772,0.000481,0.112524,-0.014495
1773,0.000481,0.146014,0.039853
1774,0.000481,0.095779,-0.014495
1775,0.000481,0.06229,0.003621
1776,0.000481,0.045545,0.039853
1777,0.000481,0.012055,-0.032611
1778,0.000481,0.012055,-0.014495
1779,0.000481,0.045545,-0.014495
1780,0.019703,-0.00469,-0.032611
1781,0.019703,-0.00469,-0.068843
1782,0.000481,0.012055,-0.014495
1783,-0.01874,-0.00469,0.003621
1784,0.019703,-0.038179,0.021737
1785,0.000481,-0.00469,0.021737
1786,0.019703,-0.00469,0.003621
1787,-0.01874,-0.021435,0.003621
1788,-0.01874,-0.021435,0.021737
1789,0.000481,-0.00469,-0.032611
1790,-0.037962,-0.00469,-0.068843
1791,0.000481,0.012055,-0.032611
1792,-0.01874,0.0288,-0.014495
1793,0.000481,-0.021435,0.003621
1794,0.019703,-0.00469,0.003621
1795,0.000481,-0.00469,-0.014495
1796,-0.01874,0.012055,0.021737
1797,-0.037962,0.012055,0.021737
1798,0.000481,0.012055,0.021737
1799,-0.01874,-0.00469,0.003621
1800,0.000481,-0.071669,0.003621
1801,-0.01874,-0.021435,0.003621
1802,0.000481,-0.038179,0.039853
1803,0.000481,0.012055,0.076085
1804,0.000481,0.012055,0.112317
1805,0.000481,0.0288,0.057969
1806,0.000481,0.06229,0.057969
1807,0.000481,0.095779,0.003621
1808,-0.01874,0.0288,-0.032611
1809,0.000481,-0.00469,0.003621
1810,-0.037962,-0.00469,-0.032611
1811,-0.01874,-0.021435,-0.014495
1812,0.000481,-0.021435,-0.032611
1813,0.000481,-0.00469,0.021737
1814,0.000481,-0.00469,-0.050727
1815,-0.076405,-0.00469,0.003621
1816,0.000481,0.012055,-0.014495
1817,0.000481,-0.00469,-0.050727
1818,0.019703,-0.00469,0.003621
1819,0.019703,0.012055,-0.014495
1820,0.000481,-0.038179,-0.014495
1821,-0.01874,-0.021435,0.003621
1822,0.019703,-0.054924,0.021737
1823,0.000481,-0.071669,0.003621
1824,0.000481,-0.021435,0.021737
1825,0.000481,0.012055,-0.032611
1826,0.000481,0.045545,-0.032611
1827,-0.01874,0.045545,-0.032611
1828,-0.01874,0.0288,-0.032611
1829,0.019703,0.0288,-0.032611
1830,0.019703,-0.00469,0.003621
1831,0.000481,0.012055,-0.032611
1832,0.000481,0.012055,-0.014495
1833,0.038924,0.012055,0.039853
1834,0.000481,-0.00469,0.003621
1835,0.000481,0.012055,0.057969
1836,0.000481,-0.00469,0.039853
1837,0.019703,0.012055,0.003621
1838,0.019703,-0.021435,-0.068843
1839,-0.037962,-0.038179,-0.068843
1840,-0.037962,-0.021435,-0.086959
1841,0.019703,0.0288,-0.050727
1842,0.000481,0.012055,-0.032611
1843,-0.01874,-0.038179,-0.032611
1844,-0.01874,-0.088414,-0.050727
1845,-0.01874,-0.088414,-0.032611
1846,0.019703,-0.054924,0.003621
1847,0.019703,0.012055,-0.032611
1848,0.000481,-0.00469,0.057969
1849,0.000481,-0.021435,0.021737
1850,-0.01874,-0.021435,0.003621
1851,0.000481,0.012055,0.039853
1852,0.000481,0.06229,0.076085
1853,0.038924,0.012055,0.039853
1854,0.019703,0.045545,0.076085
1855,0.038924,0.06229,0.039853
1856,0.019703,0.079034,0.021737
1857,0.019703,0.095779,0.039853
1858,-0.01874,0.079034,-0.032611
1859,-0.01874,0.045545,-0.014495
1860,-0.01874,-0.00469,0.003621
1861,0.019703,-0.00469,0.021737
1862,0.019703,-0.038179,0.021737
1863,0.000481,-0.038179,0.021737
1864,0.000481,-0.071669,-0.014495
1865,0.000481,-0.054924,0.003621
1866,0.000481,-0.054924,0.003621
1867,0.000481,-0.021435,-0.032611
1868,0.019703,-0.00469,-0.032611
1869,0.000481,0.045545,0.003621
1870,-0.01874,0.0288,0.039853
1871,-0.037962,-0.00469,-0.032611
1872,0.000481,-0.00469,-0.014495
1873,0.000481,0.079034,-0.032611
1874,0.019703,0.095779,-0.014495
1875,0.038924,0.045545,0.021737
1876,-0.01874,0.045545,-0.014495
1877,0.000481,-0.00469,-0.032611
1878,0.038924,0.012055,0.021737
1879,0.019703,-0.00469,0.039853
1880,-0.01874,-0.00469,0.003621
1881,0.000481,0.012055,0.021737
1882,-0.01874,0.012055,0.003621
1883,0.000481,-0.021435,0.003621
1884,-0.01874,-0.021435,0.039853
1885,-0.01874,-0.00469,0.021737
1886,-0.01874,-0.00469,-0.050727
1887,0.000481,-0.00469,0.003621
1888,0.000481,-0.00469,0.003621
1889,0.000481,-0.00469,-0.014495
1890,0.000481,-0.00469,0.003621
1891,0.019703,-0.00469,-0.014495
1892,0.000481,-0.054924,-0.014495
1893,-0.01874,-0.021435,0.021737
1894,0.019703,-0.021435,0.021737
1895,0.000481,0.012055,-0.050727
1896,0.019703,-0.00469,0.003621
1897,-0.01874,-0.00469,-0.050727
1898,-0.01874,-0.00469,0.003621
1899,-0.01874,-0.021435,0.021737
1900,-0.037962,-0.021435,0.003621
1901,0.000481,0.012055,0.094201
1902,-0.01874,0.012055,0.057969
1903,-0.01874,0.012055,0.003621
1904,-0.01874,-0.021435,-0.014495
1905,0.019703,-0.021435,0.039853
1906,0.000481,-0.038179,-0.032611
1907,-0.01874,-0.038179,0.021737
1908,-0.01874,-0.00469,0.021737
1909,0.019703,-0.00469,0.021737
1910,0.000481,0.0288,-0.032611
1911,0.000481,0.045545,0.003621
1912,0.000481,0.0288,0.003621
1913,-0.037962,-0.00469,-0.032611
1914,-0.01874,0.012055,-0.014495
1915,0.000481,0.0288,-0.050727
1916,-0.01874,0.0288,0.003621
1917,0.000481,-0.00469,-0.032611
1918,0.000481,-0.021435,0.003621
1919,0.000481,-0.00469,-0.014495
1920,0.019703,-0.00469,0.021737
1921,0.000481,-0.00469,0.003621
1922,-0.01874,-0.00469,-0.050727
1923,-0.01874,-0.021435,-0.032611
1924,0.000481,0.0288,-0.050727
1925,-0.01874,-0.00469,-0.050727
1926,0.019703,0.012055,0.021737
1927,0.000481,-0.00469,0.039853
1928,-0.01874,-0.00469,0.021737
1929,-0.01874,-0.00469,0.039853
1930,-0.037962,0.012055,0.021737
1931,-0.01874,-0.00469,-0.032611
1932,0.000481,-0.00469,-0.032611
1933,0.000481,-0.00469,-0.032611
1934,-0.01874,-0.021435,-0.050727
1935,-0.01874,0.012055,0.003621
1936,-0.01874,-0.00469,0.021737
1937,-0.01874,-0.021435,-0.014495
1938,0.000481,-0.00469,0.003621
1939,-0.01874,0.079034,-0.014495
1940,0.000481,0.012055,0.003621
1941,0.019703,0.012055,0.021737
1942,0.000481,0.012055,0.003621
1943,0.000481,0.012055,0.021737
1944,0.000481,0.06229,0.039853
1945,0.038924,0.045545,0.076085
1946,0.019703,0.0288,0.021737
1947,0.019703,0.0288,0.057969
1948,0.000481,0.079034,0.003621
1949,-0.037962,-0.00469,-0.068843
1950,-0.01874,-0.00469,-0.068843
1951,-0.01874,-0.021435,-0.068843
1952,-0.01874,-0.021435,-0.068843
1953,-0.01874,-0.021435,-0.032611
1954,-0.01874,-0.00469,0.021737
1955,-0.01874,-0.071669,0.021737
1956,-0.01874,-0.054924,0.076085
1957,0.019703,-0.021435,0.094201
1958,0.000481,-0.00469,0.076085
1959,0.019703,0.012055,0.057969
1960,0.019703,-0.021435,0.021737
1961,0.000481,-0.00469,-0.014495
1962,-0.01874,0.012055,0.003621
1963,-0.01874,-0.021435,-0.014495
1964,0.000481,-0.00469,-0.014495
1965,0.000481,-0.00469,-0.014495
1966,-0.01874,0.0288,0.003621
1967,-0.01874,0.06229,-0.014495
1968,0.000481,0.06229,0.021737
1969,-0.01874,0.06229,0.003621
1970,-0.01874,0.045545,-0.032611
1971,-0.01874,0.06229,-0.014495
1972,0.019703,0.012055,-0.014495
1973,-0.01874,-0.00469,-0.014495
1974,0.000481,-0.021435,0.021737
1975,0.000481,0.012055,0.057969
1976,0.000481,0.012055,-0.014495
1977,-0.01874,-0.00469,0.021737
1978,0.000481,-0.054924,-0.050727
1979,-0.01874,-0.021435,-0.032611
1980,0.000481,-0.054924,-0.032611
1981,-0.01874,-0.054924,-0.014495
1982,0.000481,-0.038179,-0.014495
1983,0.000481,-0.00469,0.003621
1984,-0.01874,0.045545,0.039853
1985,-0.01874,0.06229,0.003621
1986,0.000481,0.095779,0.021737
1987,0.000481,0.045545,0.021737
1988,0.000481,0.06229,-0.014495
1989,-0.01874,0.045545,0.039853
1990,0.000481,0.0288,-0.014495
1991,-0.01874,0.0288,-0.014495
1992,0.000481,0.012055,0.003621
1993,-0.01874,-0.00469,0.021737
1994,0.000481,-0.00469,-0.032611
1995,0.000481,-0.00469,-0.014495
1996,-0.01874,-0.021435,-0.014495
1997,0.019703,0.012055,-0.014495
1998,0.000481,-0.00469,0.021737
1999,0.000481,0.012055,0.021737
2000,0.000481,-0.00469,-0.032611
2001,0.000481,0.012055,0.003621
2002,0.019703,-0.00469,0.039853
2003,-0.01874,-0.038179,0.021737
2004,-0.01874,-0.00469,0.039853
2005,-0.037962,0.012055,-0.032611
2006,-0.01874,0.012055,-0.032611
2007,-0.01874,-0.021435,-0.050727
2008,-0.01874,-0.038179,-0.068843
2009,0.000481,-0.00469,-0.050727
2010,0.000481,0.012055,-0.014495
2011,0.000481,-0.021435,0.021737
2012,-0.01874,-0.00469,0.021737
2013,0.000481,-0.038179,0.003621
2014,0.000481,0.012055,0.003621
2015,0.019703,0.012055,0.003621
2016,0.000481,0.012055,0.021737
2017,0.000481,0.0288,-0.032611
2018,0.000481,-0.021435,-0.014495
2019,-0.01874,-0.00469,0.003621
2020,0.000481,0.012055,0.021737
2021,0.019703,0.0288,0.021737
2022,0.000481,0.012055,0.039853
2023,0.000481,0.012055,0.021737
2024,-0.01874,-0.00469,-0.014495
2025,-0.01874,-0.038179,0.021737
2026,0.000481,-0.021435,0.003621
2027,0.000481,-0.00469,-0.050727
2028,-0.01874,-0.021435,0.003621
2029,-0.037962,-0.00469,-0.050727
2030,-0.01874,0.012055,-0.014495
2031,0.019703,0.0288,0.021737
2032,0.019703,0.012055,0.003621
2033,-0.01874,0.0288,-0.032611
2034,0.000481,0.012055,-0.014495
2035,0.019703,0.012055,-0.032611
2036,0.000481,0.012055,-0.032611
2037,0.000481,-0.00469,-0.014495
2038,-0.01874,-0.021435,-0.032611
2039,0.000481,-0.038179,0.003621
2040,-0.01874,-0.021435,0.057969
2041,0.000481,0.012055,0.021737
2042,0.000481,0.012055,0.003621
2043,0.019703,-0.00469,0.039853
2044,0.000481,0.0288,0.003621
2045,-0.01874,0.0288,0.003621
2046,0.000481,0.0288,0.003621
2047,0.000481,0.045545,-0.032611
2048,0.000481,0.0288,-0.032611
2049,0.000481,0.0288,0.003621
2050,0.000481,-0.021435,-0.014495
2051,0.000481,-0.00469,0.003621
2052,0.000481,-0.00469,-0.014495
2053,0.000481,-0.021435,-0.032611
2054,-0.01874,-0.021435,-0.050727
2055,0.000481,-0.038179,-0.014495
2056,0.000481,-0.038179,-0.032611
2057,-0.01874,-0.00469,-0.014495
2058,0.000481,0.012055,0.021737
2059,-0.01874,0.012055,0.057969
2060,0.000481,-0.00469,0.021737
2061,0.000481,0.012055,0.039853
2062,0.000481,0.012055,0.003621
2063,-0.037962,-0.021435,-0.032611
2064,0.000481,-0.038179,-0.014495
2065,-0.01874,0.012055,-0.014495
2066,0.000481,-0.00469,-0.032611
2067,0.000481,-0.00469,0.021737
2068,-0.01874,-0.00469,0.021737
2069,0.019703,0.012055,0.003621
2070,-0.01874,0.0288,0.021737
2071,0.019703,0.0288,0.039853
2072,0.000481,0.0288,-0.032611
2073,0.000481,0.012055,-0.014495
2074,0.000481,-0.054924,-0.032611
2075,-0.01874,-0.054924,-0.014495
2076,-0.01874,-0.054924,0.003621
2077,-0.01874,-0.038179,0.021737
2078,-0.01874,0.012055,0.003621
2079,0.000481,0.012055,0.039853
2080,0.019703,0.079034,0.039853
2081,0.000481,0.079034,-0.032611
2082,0.019703,0.06229,0.003621
2083,-0.01874,0.06229,-0.032611
2084,0.019703,0.012055,-0.050727
2085,0.000481,0.012055,-0.014495
2086,0.019703,0.012055,0.003621
2087,0.019703,0.045545,-0.014495
2088,-0.037962,0.045545,0.003621
2089,-0.01874,0.0288,-0.014495
2090,0.000481,0.0288,-0.032611
2091,0.000481,0.012055,-0.014495
2092,0.000481,0.012055,-0.014495
2093,-0.01874,0.012055,-0.032611
2094,-0.01874,-0.00469,0.021737
2095,0.000481,-0.00469,-0.032611
2096,0.000481,0.012055,0.003621
2097,0.000481,-0.00469,0.057969
2098,0.000481,-0.00469,0.021737
2099,-0.01874,-0.00469,0.003621
2100,0.019703,-0.021435,0.003621
2101,-0.01874,-0.038179,-0.050727
2102,0.000481,-0.021435,-0.014495
2103,0.000481,-0.00469,-0.014495
2104,-0.01874,-0.054924,-0.032611
2105,-0.01874,-0.054924,0.021737
2106,0.000481,-0.054924,0.057969
2107,0.019703,-0.00469,0.039853
2108,0.000481,0.012055,0.057969
2109,0.019703,0.012055,0.039853
2110,0.000481,0.0288,0.021737
2111,-0.01874,0.0288,-0.032611
2112,0.000481,0.06229,0.003621
2113,0.019703,0.079034,0.003621
2114,0.000481,0.045545,0.021737
2115,0.000481,0.0288,0.021737
2116,-0.01874,0.012055,0.021737
2117,0.000481,0.012055,0.039853
2118,0.000481,0.0288,0.039853
2119,0.000481,-0.00469,-0.014495
2120,-0.01874,0.012055,-0.050727
2121,0.000481,-0.021435,-0.014495
2122,-0.01874,-0.00469,-0.050727
2123,0.000481,-0.021435,-0.032611
2124,0.000481,-0.00469,0.003621
2125,0.000481,-0.038179,0.021737
2126,0.000481,-0.021435,-0.032611
2127,0.000481,-0.038179,0.003621
2128,0.019703,-0.038179,-0.032611
2129,-0.01874,-0.00469,-0.050727
2130,-0.01874,-0.00469,-0.014495
2131,-0.01874,0.0288,-0.050727
2132,0.000481,0.012055,-0.050727
2133,0.000481,0.0288,-0.050727
2134,-0.037962,-0.00469,0.021737
2135,-0.01874,-0.00469,0.039853
2136,-0.037962,0.012055,0.057969
2137,-0.01874,-0.00469,0.021737
2138,-0.01874,0.012055,0.021737
2139,-0.01874,0.012055,0.076085
2140,0.000481,0.045545,0.039853
2141,0.000481,0.012055,0.003621
2142,-0.01874,-0.00469,0.021737
2143,0.000481,0.012055,-0.014495
2144,-0.01874,-0.00469,0.021737
2145,0.000481,0.012055,0.021737
2146,0.019703,-0.00469,0.021737
2147,0.000481,-0.021435,-0.014495
2148,-0.01874,-0.00469,0.021737
2149,-0.01874,-0.00469,0.039853
2150,-0.01874,-0.00469,-0.050727
2151,0.019703,0.012055,0.021737
2152,0.019703,-0.00469,0.039853
2153,-0.01874,0.0288,-0.014495
2154,0.000481,0.0288,0.021737
2155,0.019703,-0.00469,0.003621
2156,0.000481,-0.021435,-0.032611
2157,0.000481,0.012055,-0.014495
2158,0.000481,-0.00469,-0.032611
2159,0.019703,-0.00469,-0.050727
2160,0.000481,-0.038179,-0.068843
2161,0.000481,-0.054924,-0.032611
2162,0.000481,-0.021435,0.021737
2163,0.000481,-0.00469,0.021737
2164,0.000481,-0.00469,0.076085
2165,-0.01874,-0.00469,0.021737
2166,0.000481,-0.00469,0.076085
2167,-0.01874,0.0288,0.039853
2168,0.000481,0.0288,0.039853
2169,0.000481,0.0288,0.021737
2170,0.000481,-0.00469,-0.014495
2171,0.000481,-0.021435,-0.014495
2172,0.000481,-0.021435,0.003621
2173,-0.01874,-0.038179,0.039853
2174,-0.01874,-0.038179,-0.032611
2175,0.000481,-0.00469,-0.014495
2176,-0.01874,0.0288,-0.032611
2177,0.000481,0.0288,-0.032611
2178,-0.01874,0.0288,-0.086959
2179,-0.01874,0.045545,-0.014495
2180,0.000481,0.012055,0.003621
2181,-0.037962,0.012055,-0.014495
2182,0.000481,0.012055,0.021737
2183,0.000481,-0.00469,-0.014495
2184,-0.01874,0.0288,0.021737
2185,0.019703,0.0288,0.021737
2186,-0.01874,-0.00469,0.021737
2187,0.000481,-0.00469,0.021737
2188,0.019703,0.012055,0.021737
2189,0.000481,0.012055,0.003621
2190,0.000481,0.0288,0.057969
2191,0.000481,-0.00469,0.057969
2192,0.000481,0.012055,0.003621
2193,-0.037962,-0.021435,0.021737
2194,-0.01874,-0.00469,0.021737
2195,0.019703,-0.021435,0.003621
2196,-0.01874,-0.038179,-0.014495
2197,0.000481,-0.021435,-0.014495
2198,-0.01874,-0.00469,-0.050727
2199,-0.01874,-0.021435,0.003621
2200,0.000481,-0.054924,0.003621
2201,-0.01874,-0.038179,0.003621
2202,0.000481,-0.021435,0.039853
2203,-0.01874,-0.021435,0.021737
2204,0.000481,0.012055,-0.014495
2205,0.000481,-0.00469,0.039853
2206,0.000481,0.0288,-0.014495
2207,0.000481,0.0288,-0.014495
2208,0.000481,-0.00469,0.003621
2209,-0.01874,0.0288,0.094201
2210,-0.01874,0.012055,-0.014495
2211,0.019703,0.079034,0.003621
2212,0.000481,0.095779,0.039853
2213,0.000481,0.06229,-0.032611
2214,0.000481,0.045545,0.057969
2215,-0.01874,0.0288,0.021737
2216,-0.01874,0.0288,0.039853
2217,-0.01874,0.0288,0.039853
2218,-0.01874,0.012055,0.039853
2219,-0.01874,-0.00469,-0.050727
2220,-0.01874,0.012055,-0.032611
2221,0.000481,0.012055,0.003621
2222,0.000481,-0.00469,0.039853
2223,-0.037962,0.0288,0.039853
2224,0.000481,0.012055,0.021737
2225,0.000481,-0.00469,-0.032611
2226,0.019703,0.012055,0.003621
2227,0.019703,0.012055,-0.014495
2228,0.000481,0.0288,-0.014495
2229,0.019703,0.012055,0.003621
2230,-0.01874,-0.038179,0.003621
2231,0.000481,-0.00469,-0.050727
2232,-0.01874,-0.00469,-0.014495
2233,-0.037962,-0.021435,0.003621
2234,-0.01874,-0.038179,-0.014495
2235,-0.01874,-0.038179,-0.050727
2236,-0.01874,-0.00469,-0.032611
2237,-0.01874,-0.00469,-0.014495
2238,0.000481,0.012055,0.021737
2239,0.000481,-0.00469,0.003621
2240,0.000481,-0.00469,-0.014495
2241,0.000481,-0.00469,0.003621
2242,0.019703,0.0288,-0.014495
2243,0.000481,-0.00469,-0.050727
2244,0.000481,0.045545,-0.032611
2245,0.000481,0.012055,-0.032611
2246,-0.01874,-0.00469,-0.032611
2247,0.000481,-0.00469,0.003621
2248,0.000481,0.012055,0.057969
2249,0.019703,0.0288,0.039853
2250,0.019703,0.012055,0.039853
2251,0.000481,-0.038179,0.021737
2252,0.000481,-0.021435,-0.014495
2253,0.000481,-0.00469,0.039853
2254,0.019703,-0.021435,-0.014495
2255,0.000481,0.012055,0.003621
2256,-0.01874,-0.00469,0.003621
2257,0.000481,0.045545,0.039853
2258,-0.01874,-0.00469,-0.014495
2259,-0.01874,-0.00469,-0.014495
2260,-0.01874,-0.021435,-0.014495
2261,-0.01874,-0.021435,-0.086959
2262,-0.01874,-0.021435,-0.032611
2263,-0.01874,-0.021435,-0.014495
2264,0.000481,0.012055,-0.032611
2265,-0.01874,0.012055,0.021737
2266,-0.01874,-0.00469,0.039853
2267,0.019703,0.0288,0.021737
2268,0.000481,0.012055,0.057969
2269,0.000481,-0.00469,-0.014495
2270,0.019703,-0.00469,-0.032611
2271,0.000481,0.0288,0.003621
2272,-0.01874,0.0288,0.003621
2273,0.000481,0.0288,-0.050727
2274,-0.01874,-0.00469,0.003621
2275,0.019703,-0.00469,-0.014495
2276,0.000481,0.012055,-0.014495
2277,0.000481,0.012055,-0.014495
2278,0.000481,-0.021435,-0.032611
2279,0.000481,-0.021435,-0.014495
2280,0.000481,-0.021435,-0.014495
2281,0.019703,-0.021435,0.003621
2282,0.000481,-0.00469,-0.014495
2283,-0.037962,-0.00469,0.021737
2284,0.000481,-0.038179,0.021737
2285,-0.01874,-0.021435,0.003621
2286,-0.01874,-0.00469,0.003621
2287,0.019703,0.012055,0.003621
2288,0.000481,-0.00469,0.003621
2289,0.000481,0.012055,0.039853
2290,0.000481,-0.00469,0.021737
2291,0.019703,-0.00469,-0.032611
2292,0.019703,0.012055,0.021737
2293,0.019703,-0.071669,-0.014495
2294,-0.01874,-0.071669,0.057969
2295,0.000481,-0.138648,0.039853
2296,-0.01874,-0.121903,0.003621
2297,-0.01874,-0.088414,0.003621
2298,-0.037962,-0.038179,0.003621
2299,-0.01874,0.0288,-0.014495
2300,-0.01874,0.045545,-0.032611
2301,0.019703,0.095779,0.021737
2302,-0.01874,0.095779,-0.050727
2303,0.000481,0.112524,0.003621
2304,0.019703,0.06229,0.003621
2305,0.000481,0.012055,0.021737
2306,0.019703,0.0288,-0.032611
2307,0.000481,0.06229,0.039853
2308,-0.037962,0.045545,-0.014495
2309,0.000481,0.045545,-0.032611
2310,0.019703,0.045545,-0.014495
2311,0.019703,0.0288,-0.014495
2312,-0.01874,-0.021435,0.021737
2313,-0.01874,-0.038179,0.003621
2314,0.000481,-0.038179,0.021737
2315,0.000481,-0.00469,0.003621
2316,-0.01874,-0.021435,0.021737
2317,0.000481,0.012055,0.003621
2318,0.000481,-0.00469,0.003621
2319,-0.01874,-0.00469,0.003621
2320,0.000481,-0.021435,-0.014495
2321,-0.01874,-0.021435,0.003621
2322,0.000481,-0.054924,0.021737
2323,0.000481,-0.021435,0.039853
2324,0.019703,0.012055,0.039853
2325,-0.01874,0.012055,0.057969
2326,-0.01874,0.045545,0.003621
2327,0.000481,0.0288,-0.014495
2328,-0.01874,0.0288,-0.032611
2329,0.000481,0.0288,-0.050727
2330,0.019703,-0.00469,-0.014495
2331,0.000481,-0.00469,0.021737
2332,0.019703,-0.00469,0.021737
2333,-0.01874,-0.00469,0.003621
2334,0.000481,-0.00469,0.003621
2335,0.000481,-0.021435,-0.014495
2336,0.000481,-0.00469,-0.032611
2337,0.019703,-0.00469,-0.032611
2338,0.000481,0.012055,-0.032611
2339,-0.01874,-0.00469,-0.032611
2340,-0.01874,-0.00469,0.021737
2341,0.000481,0.012055,0.039853
2342,0.000481,0.012055,0.021737
2343,0.000481,-0.00469,0.021737
2344,-0.01874,0.012055,0.003621
2345,0.019703,0.0288,0.039853
2346,0.000481,-0.00469,0.021737
2347,0.019703,-0.00469,-0.014495
2348,0.000481,-0.00469,0.003621
2349,0.000481,-0.00469,0.003621
2350,-0.01874,-0.00469,0.021737
2351,-0.01874,-0.00469,-0.014495
2352,-0.037962,0.012055,0.021737
2353,0.000481,-0.021435,0.003621
2354,0.000481,-0.021435,-0.050727
2355,0.000481,-0.038179,-0.014495
2356,0.000481,-0.00469,-0.032611
2357,0.000481,-0.00469,-0.050727
2358,-0.01874,-0.021435,-0.014495
2359,0.019703,-0.00469,-0.032611
2360,0.000481,0.012055,0.021737
2361,0.000481,0.0288,0.021737
2362,-0.01874,-0.00469,0.021737
2363,-0.01874,0.012055,0.003621
2364,-0.01874,-0.00469,0.021737
2365,0.000481,-0.00469,-0.014495
2366,0.000481,-0.00469,0.003621
2367,-0.01874,-0.00469,0.003621
2368,0.019703,-0.038179,-0.050727
2369,-0.037962,-0.038179,-0.032611
2370,0.000481,-0.021435,0.039853
2371,0.019703,0.012055,0.003621
2372,0.000481,0.012055,-0.032611
2373,-0.01874,0.012055,-0.014495
2374,-0.01874,-0.021435,0.003621
2375,0.000481,0.0288,-0.014495
2376,0.019703,-0.00469,0.003621
2377,-0.01874,-0.054924,-0.032611
2378,0.000481,-0.071669,0.003621
2379,-0.01874,-0.071669,0.003621
2380,0.000481,-0.054924,-0.014495
2381,0.000481,-0.054924,0.003621
2382,-0.01874,-0.054924,0.039853
2383,0.000481,-0.021435,-0.014495
2384,0.000481,0.045545,-0.014495
2385,-0.01874,0.0288,0.094201
2386,0.000481,0.045545,-0.050727
2387,-0.01874,0.012055,-0.014495
2388,0.000481,0.0288,0.003621
2389,0.000481,0.0288,0.039853
2390,-0.01874,0.045545,0.021737
2391,0.019703,0.06229,0.021737
2392,0.000481,0.079034,-0.014495
2393,0.019703,0.045545,-0.014495
2394,0.019703,0.06229,0.021737
2395,0.019703,0.012055,0.021737
2396,0.019703,0.0288,0.003621
2397,-0.01874,0.0288,0.039853
2398,0.000481,0.0288,0.076085
2399,0.019703,0.045545,0.039853
2400,0.019703,-0.021435,0.021737
2401,0.019703,-0.038179,-0.014495
2402,0.000481,-0.054924,-0.032611
2403,-0.01874,-0.038179,-0.014495
2404,-0.01874,-0.021435,-0.050727
2405,-0.037962,-0.021435,-0.032611
2406,-0.01874,0.012055,-0.014495
2407,0.000481,0.0288,0.039853
2408,0.000481,0.045545,0.003621
2409,0.000481,0.012055,0.021737
2410,-0.01874,0.012055,0.003621
2411,0.000481,-0.00469,-0.032611
2412,0.000481,0.045545,0.003621
2413,0.019703,0.0288,-0.032611
2414,0.000481,-0.00469,-0.050727
2415,0.000481,-0.021435,-0.032611
2416,-0.01874,-0.00469,0.003621
2417,0.000481,-0.00469,-0.014495
2418,0.000481,-0.00469,0.021737
2419,0.000481,-0.054924,0.003621
2420,-0.01874,-0.021435,-0.050727
2421,0.000481,-0.021435,0.021737
2422,0.000481,0.012055,0.021737
2423,0.000481,-0.00469,-0.014495
2424,0.000481,-0.00469,0.021737
2425,0.000481,-0.00469,0.003621
2426,0.000481,-0.00469,0.003621
2427,0.019703,-0.00469,0.039853
2428,0.000481,0.012055,0.021737
2429,0.019703,-0.021435,-0.014495
2430,0.000481,-0.00469,0.039853
2431,-0.01874,-0.00469,0.003621
2432,0.000481,-0.00469,-0.032611
2433,-0.01874,-0.00469,-0.014495
2434,0.000481,0.012055,-0.032611
2435,0.019703,0.012055,-0.014495
2436,-0.01874,-0.00469,-0.014495
2437,-0.01874,0.012055,0.003621
2438,0.019703,-0.00469,0.003621
2439,0.000481,0.012055,0.021737
2440,-0.01874,-0.00469,0.003621
2441,0.000481,-0.00469,-0.014495
2442,0.000481,-0.00469,0.003621
2443,0.019703,-0.021435,-0.014495
2444,0.000481,-0.00469,0.021737
2445,0.000481,-0.00469,0.021737
2446,0.000481,-0.021435,0.021737
2447,0.019703,-0.00469,0.057969
2448,0.000481,-0.00469,0.039853
2449,0.000481,0.012055,0.021737
2450,-0.01874,0.045545,-0.014495
2451,0.000481,0.012055,0.003621
2452,0.000481,0.012055,-0.032611
2453,-0.01874,-0.00469,-0.032611
2454,-0.01874,0.079034,-0.014495
2455,-0.01874,0.012055,0.021737
2456,-0.01874,0.012055,0.021737
2457,-0.01874,0.012055,0.021737
2458,0.000481,-0.00469,-0.032611
2459,-0.01874,-0.021435,-0.032611
2460,-0.01874,-0.038179,-0.014495
2461,0.000481,-0.038179,-0.014495
2462,0.000481,-0.021435,-0.050727
2463,0.019703,-0.071669,0.021737
2464,0.000481,-0.071669,0.039853
2465,0.000481,-0.038179,0.003621
2466,0.000481,-0.021435,0.021737
2467,0.000481,0.079034,0.021737
2468,0.000481,-0.00469,0.003621
2469,0.000481,0.012055,-0.032611
2470,0.000481,0.0288,-0.050727
2471,0.000481,0.095779,-0.050727
2472,0.000481,0.079034,0.003621
2473,0.000481,0.045545,0.003621
2474,0.019703,0.06229,-0.014495
2475,0.019703,0.045545,0.021737
2476,0.000481,0.0288,-0.014495
2477,0.019703,0.0288,0.003621
2478,0.000481,0.0288,0.039853
2479,0.000481,-0.00469,0.003621
2480,-0.01874,0.012055,-0.014495
2481,-0.01874,0.012055,0.021737
2482,0.019703,0.012055,0.057969
2483,0.019703,0.012055,0.021737
2484,0.000481,0.012055,0.076085
2485,0.000481,-0.00469,0.076085
2486,0.019703,0.012055,0.003621
2487,-0.01874,-0.021435,0.021737
2488,0.000481,0.079034,-0.032611
2489,0.000481,-0.00469,-0.050727
2490,-0.01874,-0.021435,-0.032611
2491,-0.01874,-0.00469,0.003621
2492,0.000481,-0.00469,-0.032611
2493,0.000481,-0.00469,-0.014495
2494,0.000481,-0.038179,0.003621
2495,0.000481,-0.021435,-0.050727
2496,0.000481,-0.021435,0.021737
2497,-0.01874,-0.038179,0.003621
2498,-0.01874,-0.121903,-0.014495
2499,-0.01874,-0.088414,0.003621
2500,0.000481,-0.038179,0.003621
2501,0.019703,-0.054924,0.021737
2502,0.000481,-0.021435,0.039853
2503,0.000481,0.0288,0.039853
2504,0.000481,0.06229,-0.050727
2505,0.000481,0.095779,0.003621
2506,0.000481,0.06229,-0.014495
2507,0.000481,0.06229,-0.050727
2508,0.000481,0.079034,-0.032611
2509,0.019703,0.06229,-0.014495
2510,0.000481,0.045545,-0.014495
2511,0.000481,0.045545,0.003621
2512,0.000481,0.012055,0.039853
2513,0.000481,-0.00469,0.021737
2514,-0.01874,-0.00469,0.021737
2515,0.000481,-0.00469,0.021737
2516,-0.01874,-0.021435,-0.014495
2517,0.019703,-0.021435,-0.014495
2518,0.000481,0.012055,-0.032611
2519,-0.01874,-0.00469,-0.068843
2520,-0.01874,-0.00469,0.003621
2521,0.019703,-0.00469,-0.014495
2522,0.019703,0.012055,-0.068843
2523,0.000481,-0.00469,-0.032611
2524,0.000481,-0.038179,-0.014495
2525,-0.01874,-0.021435,-0.050727
2526,0.000481,-0.021435,-0.014495
2527,0.000481,0.012055,0.021737
2528,0.000481,0.012055,0.039853
2529,0.000481,-0.021435,0.076085
2530,0.000481,-0.021435,0.021737
2531,0.019703,0.012055,0.039853
2532,0.019703,-0.00469,0.076085
2533,-0.01874,-0.021435,0.057969
2534,0.019703,-0.021435,0.039853
2535,0.000481,-0.038179,0.057969
2536,0.000481,-0.021435,0.021737
2537,0.019703,-0.021435,-0.014495
2538,0.000481,-0.00469,0.021737
2539,-0.037962,-0.00469,0.003621
2540,-0.01874,-0.021435,-0.014495
2541,0.000481,0.012055,0.039853
2542,0.000481,0.012055,0.039853
2543,0.000481,0.012055,-0.032611
2544,0.000481,-0.021435,0.003621
2545,-0.01874,0.045545,-0.014495
2546,-0.01874,-0.00469,-0.032611
2547,0.000481,-0.038179,-0.050727
2548,-0.01874,-0.054924,-0.014495
2549,0.000481,-0.021435,-0.086959
2550,0.019703,-0.021435,-0.050727
2551,0.000481,-0.021435,-0.014495
2552,0.000481,0.012055,-0.014495
2553,0.000481,0.012055,0.021737
2554,0.000481,0.06229,0.003621
2555,-0.01874,0.045545,-0.050727
2556,0.019703,0.045545,-0.032611
2557,0.019703,0.0288,-0.014495
2558,-0.01874,0.0288,-0.032611
2559,0.019703,0.0288,0.003621
2560,0.000481,0.045545,0.039853
2561,-0.01874,0.012055,0.039853
2562,0.000481,-0.00469,0.057969
2563,0.019703,0.045545,0.039853
2564,0.019703,0.045545,0.003621
2565,0.000481,0.012055,-0.032611
2566,0.000481,-0.00469,0.003621
2567,-0.01874,-0.00469,-0.032611
2568,-0.01874,-0.00469,-0.014495
2569,0.000481,-0.038179,0.039853
2570,0.000481,-0.054924,0.057969
2571,0.000481,-0.054924,0.021737
2572,-0.037962,-0.088414,0.003621
2573,-0.01874,-0.054924,0.003621
2574,0.000481,-0.021435,-0.032611
2575,-0.01874,-0.00469,-0.014495
2576,-0.01874,0.045545,-0.032611
2577,0.000481,0.06229,0.003621
2578,-0.01874,0.012055,0.039853
2579,-0.01874,-0.00469,-0.050727
2580,0.000481,0.012055,0.003621
2581,0.000481,0.012055,0.003621
2582,-0.01874,-0.00469,-0.050727
2583,0.019703,0.045545,-0.014495
2584,0.000481,0.045545,0.003621
2585,0.000481,0.012055,-0.014495
2586,0.019703,0.0288,0.003621
2587,-0.01874,0.012055,0.021737
2588,0.019703,0.045545,-0.014495
2589,0.000481,-0.021435,0.021737
2590,0.000481,-0.00469,0.039853
2591,0.000481,-0.00469,-0.014495
2592,0.019703,-0.038179,-0.014495
2593,0.000481,-0.00469,0.057969
2594,-0.01874,-0.00469,0.003621
2595,0.000481,-0.00469,-0.032611
2596,0.000481,-0.00469,-0.014495
2597,-0.01874,-0.038179,-0.050727
2598,-0.01874,-0.00469,-0.032611
2599,0.000481,0.012055,-0.032611
2600,-0.01874,-0.021435,-0.032611
2601,-0.01874,-0.00469,-0.014495
2602,-0.01874,-0.021435,-0.032611
2603,0.000481,-0.00469,-0.050727
2604,0.019703,-0.038179,-0.068843
2605,-0.01874,-0.021435,-0.032611
2606,-0.01874,-0.00469,-0.032611
2607,-0.01874,-0.00469,-0.014495
2608,0.000481,0.0288,0.039853
2609,0.038924,-0.00469,0.039853
2610,0.000481,-0.00469,0.039853
2611,-0.01874,0.012055,0.076085
2612,-0.037962,-0.00469,0.057969
2613,0.000481,0.012055,0.021737
2614,0.019703,0.0288,0.003621
2615,0.019703,-0.00469,-0.014495
2616,0.019703,-0.00469,0.003621
2617,-0.01874,-0.00469,0.021737
2618,0.000481,-0.00469,0.021737
2619,0.000481,-0.021435,0.021737
2620,-0.01874,0.012055,0.039853
2621,0.000481,-0.038179,0.003621
2622,0.000481,0.012055,-0.014495
2623,-0.01874,-0.00469,-0.014495
2624,-0.01874,0.012055,-0.014495
2625,-0.01874,0.012055,-0.032611
2626,0.019703,0.045545,0.021737
2627,-0.037962,0.045545,0.039853
2628,0.019703,0.012055,-0.014495
2629,-0.01874,0.012055,0.003621
2630,-0.01874,-0.00469,-0.050727
2631,0.000481,-0.038179,-0.050727
2632,0.000481,-0.054924,-0.014495
2633,0.000481,-0.071669,-0.032611
2634,0.019703,-0.038179,-0.050727
2635,0.019703,-0.038179,-0.014495
2636,-0.037962,-0.038179,0.003621
2637,0.000481,-0.021435,-0.014495
2638,0.000481,-0.00469,0.021737
2639,0.019703,0.045545,-0.032611
2640,-0.01874,0.012055,0.003621
2641,-0.01874,-0.038179,0.021737
2642,0.000481,0.045545,0.021737
2643,0.019703,0.0288,-0.014495
2644,-0.01874,0.045545,0.039853
2645,0.019703,0.0288,0.021737
2646,0.019703,0.012055,0.076085
2647,0.000481,-0.00469,0.039853
2648,-0.01874,-0.021435,0.039853
2649,0.000481,0.0288,0.021737
2650,-0.037962,-0.038179,0.057969
2651,0.000481,-0.038179,0.003621
2652,0.019703,-0.021435,0.003621
2653,0.000481,0.0288,0.003621
2654,-0.01874,0.045545,-0.050727
2655,0.000481,0.012055,-0.014495
2656,-0.01874,0.045545,0.021737
2657,0.000481,0.045545,0.003621
2658,0.019703,-0.038179,-0.032611
2659,0.019703,-0.021435,0.021737
2660,0.019703,-0.021435,0.003621
2661,-0.037962,-0.021435,-0.068843
2662,-0.037962,-0.021435,-0.032611
2663,-0.01874,0.06229,-0.068843
2664,0.000481,0.0288,-0.032611
2665,0.000481,0.012055,0.003621
2666,-0.01874,0.0288,0.039853
2667,-0.01874,-0.021435,0.039853
2668,0.000481,-0.00469,0.039853
2669,0.000481,-0.00469,0.057969
2670,-0.057183,0.0288,0.003621
2671,-0.01874,0.012055,0.039853
2672,0.000481,-0.021435,0.021737
2673,-0.01874,0.012055,0.039853
2674,0.019703,0.012055,0.021737
2675,0.000481,-0.021435,0.021737
2676,0.019703,0.012055,0.003621
2677,-0.01874,0.045545,0.003621
2678,-0.01874,0.012055,-0.014495
2679,0.000481,0.0288,-0.050727
2680,0.000481,-0.00469,-0.050727
2681,-0.037962,0.012055,-0.050727
2682,-0.01874,-0.038179,-0.032611
2683,-0.01874,0.012055,-0.050727
2684,0.000481,-0.038179,0.039853
2685,0.000481,-0.021435,0.021737
2686,0.000481,-0.00469,0.039853
2687,0.000481,-0.021435,-0.014495
2688,0.038924,0.012055,0.003621
2689,0.019703,-0.021435,-0.032611
2690,0.000481,0.012055,-0.014495
2691,0.000481,0.045545,-0.014495
2692,0.000481,0.045545,0.021737
2693,0.038924,0.0288,0.021737
2694,0.019703,-0.021435,0.003621
2695,0.019703,-0.00469,-0.014495
2696,0.000481,0.012055,-0.032611
2697,0.000481,-0.038179,0.003621
2698,-0.01874,-0.00469,0.003621
2699,0.000481,0.012055,-0.032611
2700,0.000481,0.012055,-0.050727
2701,0.019703,0.0288,0.021737
2702,0.000481,0.012055,0.057969
2703,0.000481,0.012055,0.021737
2704,0.038924,-0.00469,0.057969
2705,0.019703,0.012055,0.003621
2706,0.038924,0.012055,0.003621
2707,0.000481,0.0288,0.039853
2708,0.000481,0.012055,-0.032611
2709,0.038924,-0.054924,-0.032611
2710,0.000481,0.012055,0.003621
2711,0.038924,-0.021435,-0.032611
2712,-0.01874,-0.00469,0.039853
2713,0.000481,-0.00469,0.039853
2714,0.000481,0.012055,0.021737
2715,-0.01874,0.0288,0.003621
2716,-0.01874,0.012055,0.003621
2717,0.000481,0.012055,0.003621
2718,-0.01874,0.012055,-0.050727
2719,-0.037962,-0.021435,-0.014495
2720,-0.01874,-0.038179,-0.050727
2721,-0.01874,-0.054924,-0.032611
2722,-0.01874,-0.021435,0.003621
2723,0.019703,-0.054924,-0.032611
2724,-0.037962,-0.021435,0.003621
2725,0.000481,-0.00469,0.003621
2726,0.019703,-0.021435,0.021737
2727,0.000481,-0.00469,-0.050727
2728,0.000481,0.0288,0.003621
2729,0.096589,-0.00469,-0.032611
2730,0.000481,0.045545,0.003621
2731,0.019703,-0.00469,0.057969
2732,0.000481,0.0288,0.021737
2733,0.019703,-0.00469,0.021737
2734,0.000481,-0.021435,0.021737
2735,0.019703,-0.00469,-0.014495
2736,-0.01874,-0.021435,-0.068843
2737,0.019703,0.045545,0.003621
2738,0.000481,-0.00469,-0.032611
2739,0.000481,0.0288,0.003621
2740,0.000481,0.045545,0.021737
2741,0.000481,0.012055,0.021737
2742,0.019703,0.0288,0.021737
2743,0.000481,0.012055,0.039853
2744,-0.01874,0.012055,-0.032611
2745,-0.01874,0.012055,-0.050727
2746,-0.037962,-0.00469,-0.014495
2747,-0.01874,0.012055,-0.032611
2748,-0.01874,-0.071669,-0.032611
2749,0.000481,-0.071669,0.003621
2750,-0.01874,-0.071669,0.021737
2751,-0.01874,-0.054924,0.003621
2752,-0.037962,-0.021435,0.057969
2753,0.000481,0.012055,0.003621
2754,0.000481,0.06229,0.003621
2755,0.019703,0.095779,0.021737
2756,0.019703,0.06229,0.003621
2757,0.000481,0.095779,-0.014495
2758,0.000481,0.06229,0.021737
2759,0.019703,0.045545,0.094201
2760,0.019703,-0.00469,0.021737
2761,0.000481,-0.021435,0.039853
2762,0.019703,-0.038179,-0.014495
2763,0.000481,-0.054924,-0.014495
2764,0.000481,-0.021435,-0.014495
2765,0.000481,-0.021435,-0.050727
2766,0.019703,-0.00469,0.003621
2767,-0.01874,-0.021435,0.039853
2768,-0.01874,-0.00469,0.057969
2769,-0.01874,0.06229,0.039853
2770,-0.01874,-0.00469,0.039853
2771,0.019703,-0.021435,0.003621
2772,-0.01874,-0.00469,-0.032611
2773,-0.01874,0.012055,-0.014495
2774,0.000481,0.012055,-0.050727
2775,0.000481,0.012055,-0.032611
2776,0.019703,0.045545,0.003621
2777,0.019703,0.045545,-0.014495
2778,0.019703,0.0288,0.003621
2779,0.000481,0.0288,0.039853
2780,0.000481,0.012055,0.003621
2781,-0.01874,0.0288,0.003621
2782,-0.01874,-0.00469,-0.014495
2783,0.000481,-0.038179,-0.050727
2784,-0.037962,-0.038179,-0.050727
2785,0.000481,-0.054924,-0.032611
2786,-0.01874,-0.021435,-0.032611
2787,0.000481,-0.038179,0.003621
2788,-0.01874,-0.00469,0.021737
2789,-0.01874,-0.00469,-0.050727
2790,-0.01874,-0.00469,-0.032611
2791,0.000481,0.045545,0.003621
2792,0.019703,0.06229,-0.032611
2793,0.000481,0.045545,-0.032611
2794,0.000481,0.012055,0.039853
2795,0.000481,-0.021435,0.003621
2796,0.000481,0.012055,0.021737
2797,0.000481,-0.00469,0.003621
2798,0.000481,-0.021435,-0.032611
2799,0.019703,-0.021435,0.003621
2800,0.000481,-0.021435,-0.050727
2801,0.000481,0.012055,-0.014495
2802,-0.01874,-0.00469,-0.032611
2803,0.000481,0.0288,0.039853
2804,0.000481,-0.021435,0.003621
2805,0.000481,-0.00469,0.039853
2806,-0.01874,0.012055,0.057969
2807,0.000481,-0.021435,0.021737
2808,-0.01874,-0.021435,0.057969
2809,-0.01874,-0.021435,0.003621
2810,-0.037962,-0.00469,-0.014495
2811,0.000481,0.0288,-0.032611
2812,0.000481,-0.021435,-0.014495
2813,-0.01874,-0.00469,-0.068843
2814,0.019703,-0.00469,-0.014495
2815,0.000481,0.0288,0.039853
2816,0.019703,0.0288,0.003621
2817,0.000481,-0.00469,0.003621
2818,-0.01874,0.0288,0.003621
2819,0.000481,-0.00469,-0.032611
2820,-0.01874,0.012055,-0.086959
2821,0.000481,0.012055,-0.014495
2822,-0.01874,-0.00469,-0.032611
2823,-0.01874,-0.00469,-0.014495
2824,-0.01874,-0.00469,0.021737
2825,-0.01874,-0.021435,0.021737
2826,0.000481,-0.00469,0.021737
2827,0.000481,-0.021435,0.021737
2828,0.000481,-0.00469,0.039853
2829,0.000481,-0.00469,-0.014495
2830,-0.01874,-0.021435,0.021737
2831,0.000481,-0.021435,-0.014495
2832,0.000481,-0.00469,0.021737
2833,0.000481,0.012055,0.021737
2834,0.000481,-0.00469,0.021737
2835,-0.037962,0.012055,0.003621
2836,-0.01874,0.012055,0.039853
2837,0.000481,0.012055,-0.032611
2838,-0.01874,-0.00469,-0.014495
2839,0.000481,-0.00469,0.003621
2840,0.000481,0.0288,-0.014495
2841,0.000481,-0.038179,-0.014495
2842,-0.01874,-0.071669,0.039853
2843,-0.01874,-0.054924,-0.014495
2844,0.019703,-0.038179,-0.014495
2845,-0.01874,-0.038179,0.039853
2846,-0.01874,-0.038179,-0.032611
2847,-0.01874,-0.021435,-0.050727
2848,-0.01874,0.012055,-0.032611
2849,-0.01874,0.0288,-0.050727
2850,0.000481,0.012055,-0.032611
2851,-0.01874,-0.00469,0.003621
2852,-0.01874,-0.054924,-0.050727
2853,-0.01874,-0.038179,0.021737
2854,-0.01874,0.045545,0.076085
2855,-0.01874,0.045545,0.076085
2856,0.000481,0.0288,0.003621
2857,0.000481,0.0288,0.021737
2858,0.000481,0.0288,0.021737
2859,0.000481,0.0288,0.003621
2860,-0.01874,0.0288,0.021737
2861,-0.037962,0.06229,-0.014495
2862,0.019703,-0.021435,0.021737
2863,0.000481,-0.021435,0.021737
2864,0.019703,0.012055,-0.032611
2865,0.000481,-0.00469,-0.014495
2866,0.019703,0.045545,-0.014495
2867,0.000481,0.06229,-0.014495
2868,-0.01874,0.045545,-0.032611
2869,0.000481,0.0288,-0.032611
2870,0.000481,-0.00469,-0.050727
2871,0.000481,-0.021435,0.003621
2872,-0.037962,-0.021435,0.003621
2873,0.000481,-0.00469,0.003621
2874,0.019703,-0.00469,0.003621
2875,0.000481,0.012055,-0.014495
2876,0.019703,-0.00469,-0.014495
2877,-0.01874,-0.038179,-0.050727
2878,0.000481,-0.038179,0.003621
2879,0.000481,-0.038179,-0.032611
2880,0.000481,-0.021435,-0.014495
2881,0.000481,-0.00469,-0.014495
2882,0.000481,0.012055,0.021737
2883,0.000481,0.0288,-0.014495
2884,0.000481,0.045545,0.021737
2885,-0.01874,0.012055,-0.014495
2886,0.000481,0.012055,-0.032611
2887,0.019703,-0.00469,-0.032611
2888,0.000481,-0.00469,0.003621
2889,-0.01874,-0.00469,-0.014495
2890,0.000481,0.012055,0.039853
2891,0.000481,0.012055,0.039853
2892,-0.01874,-0.00469,0.039853
2893,-0.01874,-0.00469,0.021737
2894,0.000481,-0.00469,0.003621
2895,0.000481,-0.00469,-0.014495
2896,0.019703,-0.021435,0.003621
2897,0.000481,-0.021435,-0.032611
2898,-0.01874,-0.038179,-0.032611
2899,0.019703,-0.00469,-0.014495
2900,-0.01874,-0.021435,0.021737
2901,-0.057183,-0.00469,0.021737
2902,-0.01874,-0.021435,0.021737
2903,-0.01874,0.012055,0.003621
2904,0.000481,0.0288,-0.032611
2905,0.000481,0.0288,0.003621
2906,0.000481,0.0288,-0.014495
2907,0.000481,0.012055,0.003621
2908,0.000481,-0.00469,0.021737
2909,-0.01874,-0.00469,0.003621
2910,-0.01874,-0.021435,0.003621
2911,0.000481,-0.00469,0.039853
2912,0.000481,-0.00469,0.021737
2913,0.000481,-0.021435,-0.014495
2914,-0.037962,-0.021435,0.003621
2915,-0.01874,-0.021435,-0.014495
2916,0.000481,-0.00469,-0.014495
2917,0.000481,-0.021435,0.039853
2918,-0.01874,0.012055,-0.014495
2919,-0.01874,0.012055,0.021737
2920,-0.01874,0.012055,0.021737
2921,0.000481,0.012055,-0.014495
2922,0.000481,-0.00469,-0.032611
2923,0.000481,0.012055,0.003621
2924,0.000481,-0.00469,-0.014495
2925,0.000481,-0.00469,-0.032611
2926,0.000481,0.012055,0.003621
2927,-0.01874,0.0288,-0.050727
2928,0.000481,-0.00469,0.003621
2929,-0.01874,-0.00469,-0.014495
2930,-0.01874,0.012055,0.021737
2931,-0.01874,-0.038179,0.039853
2932,0.000481,-0.038179,0.039853
2933,0.000481,-0.038179,-0.032611
2934,0.019703,-0.00469,0.003621
2935,-0.01874,-0.00469,0.003621
2936,0.000481,0.0288,-0.014495
2937,-0.01874,0.045545,-0.032611
2938,0.000481,0.045545,0.021737
2939,0.019703,0.0288,0.021737
2940,0.000481,-0.021435,0.003621
2941,0.000481,-0.00469,-0.014495
2942,0.000481,0.012055,0.003621
2943,0.019703,0.012055,-0.014495
2944,-0.01874,-0.021435,0.021737
2945,0.000481,0.012055,-0.014495
2946,0.019703,0.012055,0.021737
2947,-0.01874,0.012055,0.021737
2948,0.000481,-0.021435,0.021737
2949,0.000481,-0.00469,0.039853
2950,0.019703,-0.00469,-0.032611
2951,-0.01874,-0.021435,-0.032611
2952,0.019703,-0.038179,-0.086959
2953,0.000481,-0.054924,0.003621
2954,0.000481,-0.038179,-0.014495
2955,-0.01874,-0.038179,-0.014495
2956,0.000481,-0.00469,0.039853
2957,-0.01874,0.012055,-0.014495
2958,-0.01874,-0.00469,0.039853
2959,-0.01874,0.0288,0.003621
2960,-0.037962,0.012055,-0.014495
2961,-0.01874,0.0288,-0.050727
2962,0.000481,0.012055,0.003621
2963,0.000481,0.0288,-0.032611
2964,0.000481,0.0288,-0.014495
2965,-0.01874,0.079034,0.021737
2966,0.019703,0.045545,-0.014495
2967,0.000481,0.0288,0.021737
2968,-0.01874,-0.00469,0.039853
2969,-0.01874,-0.038179,-0.014495
2970,0.000481,-0.021435,-0.086959
2971,0.019703,-0.021435,-0.014495
2972,0.000481,0.012055,-0.032611
2973,-0.01874,0.0288,-0.014495
2974,0.019703,0.012055,0.039853
2975,0.000481,0.045545,-0.014495
2976,-0.01874,0.045545,0.021737
2977,0.000481,0.0288,0.003621
2978,0.000481,-0.00469,-0.014495
2979,0.000481,-0.021435,-0.032611
2980,0.000481,-0.021435,-0.014495
2981,-0.037962,-0.00469,-0.050727
2982,-0.01874,-0.00469,0.021737
2983,0.000481,-0.00469,0.039853
2984,0.019703,0.012055,0.003621
2985,0.019703,-0.00469,-0.014495
2986,0.019703,0.012055,0.039853
2987,0.000481,0.0288,0.021737
2988,0.000481,-0.021435,0.003621
2989,0.019703,-0.021435,0.057969
2990,0.019703,-0.021435,0.021737
2991,0.019703,-0.00469,0.003621
2992,0.000481,-0.021435,0.057969
2993,0.000481,0.045545,0.003621
2994,0.019703,-0.00469,0.039853
2995,-0.01874,-0.00469,0.003621
2996,-0.037962,-0.00469,-0.050727
2997,-0.01874,-0.021435,-0.086959
2998,-0.01874,-0.038179,-0.068843
2999,-0.01874,-0.054924,-0.068843
3000,-0.01874,-0.105159,-0.050727
3001,-0.01874,-0.071669,-0.032611
3002,0.000481,-0.071669,-0.050727
3003,-0.01874,-0.00469,-0.014495
3004,-0.01874,0.112524,0.021737
3005,-0.01874,0.079034,0.021737
3006,-0.01874,0.129269,0.039853
3007,0.019703,0.095779,0.057969
3008,0.000481,0.06229,-0.014495
3009,0.000481,0.06229,0.021737
3010,0.000481,0.012055,0.039853
3011,0.000481,0.0288,0.003621
3012,0.000481,-0.00469,0.003621
3013,0.000481,0.0288,0.003621
3014,0.019703,0.012055,-0.032611
3015,0.000481,0.012055,0.021737
3016,0.019703,-0.00469,-0.032611
3017,-0.037962,-0.00469,-0.014495
3018,-0.037962,0.012055,-0.032611
3019,-0.01874,-0.00469,-0.014495
3020,0.000481,-0.021435,-0.032611
3021,-0.01874,-0.021435,-0.032611
3022,-0.01874,-0.021435,0.039853
3023,-0.01874,-0.00469,0.003621
3024,-0.01874,-0.038179,0.057969
3025,0.000481,-0.054924,0.039853
3026,-0.037962,-0.054924,-0.014495
3027,0.000481,-0.054924,-0.032611
3028,-0.01874,-0.021435,0.021737
3029,-0.01874,-0.00469,-0.032611
3030,-0.01874,-0.00469,0.003621
3031,-0.037962,0.045545,-0.032611
3032,-0.01874,0.079034,0.003621
3033,0.000481,0.129269,-0.032611
3034,0.000481,0.0288,-0.032611
3035,0.000481,-0.00469,-0.032611
3036,-0.01874,0.012055,-0.032611
3037,-0.01874,-0.021435,0.003621
3038,-0.01874,-0.00469,-0.014495
3039,-0.01874,-0.021435,0.039853
3040,0.000481,0.012055,0.057969
3041,0.000481,-0.00469,0.003621
3042,0.000481,0.012055,0.021737
3043,0.000481,0.012055,0.039853
3044,0.000481,0.012055,0.003621
3045,0.000481,0.0288,0.021737
3046,0.000481,0.012055,0.003621
3047,0.000481,0.045545,-0.032611
3048,0.000481,0.012055,-0.014495
3049,0.000481,0.012055,0.021737
3050,0.019703,0.045545,0.003621
3051,0.019703,-0.021435,0.039853
3052,0.000481,-0.021435,0.003621
3053,0.000481,-0.038179,-0.014495
3054,-0.01874,-0.021435,-0.050727
3055,0.000481,0.012055,0.003621
3056,0.000481,0.012055,-0.050727
3057,0.000481,-0.00469,-0.032611
3058,0.000481,-0.00469,0.021737
3059,0.019703,-0.038179,-0.014495
3060,0.000481,-0.038179,0.076085
3061,0.019703,0.079034,0.021737
3062,0.000481,0.012055,0.003621
3063,0.019703,-0.00469,0.021737
3064,-0.01874,0.012055,0.003621
3065,-0.01874,-0.021435,-0.014495
3066,0.000481,-0.021435,0.003621
3067,-0.01874,-0.038179,0.094201
3068,0.000481,-0.038179,0.021737
3069,0.019703,-0.021435,0.039853
3070,0.000481,-0.00469,0.021737
3071,0.000481,-0.00469,0.003621
3072,0.000481,0.012055,0.003621
3073,0.000481,0.0288,0.003621
3074,0.000481,0.0288,-0.032611
3075,0.000481,0.0288,0.039853
3076,-0.01874,-0.00469,0.021737
3077,0.000481,-0.00469,0.021737
3078,0.000481,0.012055,0.021737
3079,0.000481,0.0288,0.021737
3080,0.019703,0.0288,-0.032611
3081,0.000481,-0.00469,0.021737
3082,0.019703,0.012055,-0.014495
3083,0.000481,-0.00469,-0.086959
3084,-0.01874,-0.00469,-0.014495
3085,-0.037962,-0.00469,-0.068843
3086,-0.01874,-0.00469,-0.014495
3087,-0.01874,-0.00469,0.003621
3088,0.000481,-0.00469,-0.014495
3089,0.000481,-0.038179,-0.014495
3090,0.019703,-0.00469,0.003621
3091,0.000481,0.012055,-0.014495
3092,0.096589,-0.00469,-0.014495
3093,0.000481,-0.00469,0.021737
3094,-0.037962,-0.00469,-0.014495
3095,-0.01874,0.012055,0.039853
3096,0.019703,-0.021435,0.021737
3097,-0.037962,-0.00469,0.039853
3098,0.000481,-0.038179,0.021737
3099,-0.037962,-0.054924,0.021737
3100,0.000481,-0.071669,0.021737
3101,-0.01874,-0.021435,-0.014495
3102,0.000481,-0.00469,-0.014495
3103,-0.01874,0.012055,0.003621
3104,0.000481,-0.021435,-0.014495
3105,-0.01874,-0.054924,0.021737
3106,0.000481,-0.071669,0.039853
3107,-0.01874,-0.054924,-0.014495
3108,0.000481,0.012055,0.021737
3109,0.019703,0.06229,-0.032611
3110,0.000481,0.079034,0.003621
3111,0.000481,0.112524,-0.050727
3112,0.000481,0.095779,-0.050727
3113,0.000481,0.079034,-0.014495
3114,0.019703,0.06229,0.021737
3115,0.000481,0.045545,0.003621
3116,-0.01874,0.0288,-0.032611
3117,-0.01874,0.0288,-0.014495
3118,0.000481,0.0288,-0.032611
3119,-0.01874,-0.00469,-0.050727
3120,0.000481,-0.021435,-0.032611
3121,-0.01874,-0.038179,0.003621
3122,0.000481,0.012055,-0.014495
3123,0.000481,-0.00469,0.003621
3124,0.000481,-0.021435,0.021737
3125,-0.01874,0.0288,0.003621
3126,-0.01874,-0.00469,0.003621
3127,0.019703,-0.021435,-0.014495
3128,0.019703,-0.021435,-0.014495
3129,0.000481,-0.038179,0.021737
3130,0.000481,0.012055,0.003621
3131,-0.01874,-0.00469,-0.014495
3132,-0.01874,-0.021435,-0.014495
3133,0.000481,-0.00469,0.094201
3134,0.019703,-0.00469,-0.014495
3135,-0.01874,0.012055,-0.032611
3136,-0.037962,0.0288,-0.014495
3137,-0.037962,-0.021435,-0.032611
3138,0.000481,-0.021435,0.021737
3139,-0.037962,-0.021435,-0.014495
3140,-0.01874,-0.00469,-0.032611
3141,0.000481,-0.00469,0.003621
3142,0.000481,-0.021435,0.021737
3143,0.038924,-0.021435,0.003621
3144,0.019703,-0.038179,0.021737
3145,0.000481,-0.021435,0.039853
3146,0.000481,-0.038179,0.003621
3147,-0.01874,-0.00469,0.057969
3148,0.000481,0.012055,0.021737
3149,0.038924,0.0288,0.003621
3150,0.000481,0.0288,0.003621
3151,0.000481,0.0288,-0.014495
3152,0.000481,0.0288,0.003621
3153,-0.01874,0.012055,0.021737
3154,-0.01874,-0.021435,0.039853
3155,-0.037962,-0.038179,0.003621
3156,0.000481,-0.021435,0.076085
3157,0.000481,-0.021435,0.021737
3158,0.000481,0.012055,-0.014495
3159,0.019703,-0.00469,0.021737
3160,0.000481,0.045545,-0.014495
3161,0.000481,0.079034,0.003621
3162,0.000481,0.079034,0.003621
3163,0.000481,-0.00469,0.021737
3164,0.000481,-0.00469,-0.014495
3165,-0.01874,-0.021435,0.003621
3166,0.000481,-0.021435,-0.014495
3167,0.019703,-0.00469,-0.014495
3168,0.000481,-0.00469,-0.032611
3169,0.000481,-0.054924,-0.014495
3170,-0.037962,-0.038179,-0.032611
3171,-0.01874,-0.038179,0.003621
3172,0.000481,0.012055,0.021737
3173,0.000481,0.0288,0.003621
3174,0.000481,0.045545,0.021737
3175,0.000481,0.06229,0.039853
3176,0.019703,0.045545,0.003621
3177,0.000481,0.012055,-0.032611
3178,0.019703,0.0288,-0.014495
3179,0.019703,0.0288,-0.014495
3180,0.000481,0.045545,0.003621
3181,0.019703,-0.00469,0.003621
3182,0.000481,-0.021435,0.003621
3183,-0.01874,-0.021435,-0.014495
3184,-0.057183,-0.038179,0.039853
3185,0.000481,0.012055,-0.014495
3186,-0.01874,-0.00469,-0.050727
3187,0.000481,0.012055,-0.014495
3188,-0.01874,0.012055,-0.032611
3189,0.000481,0.012055,-0.050727
3190,0.000481,-0.00469,-0.014495
3191,-0.01874,-0.00469,-0.068843
3192,-0.01874,0.012055,-0.014495
3193,0.000481,0.012055,0.039853
3194,-0.01874,0.012055,0.003621
3195,0.000481,-0.021435,0.057969
3196,-0.037962,-0.00469,0.021737
3197,-0.01874,-0.038179,0.003621
3198,0.000481,-0.038179,0.021737
3199,0.000481,-0.054924,0.039853
3200,-0.01874,-0.054924,0.021737
3201,-0.01874,-0.038179,0.039853
3202,-0.01874,-0.038179,0.039853
3203,0.000481,-0.054924,0.003621
3204,0.000481,-0.054924,0.021737
3205,0.000481,0.012055,-0.050727
3206,-0.01874,0.012055,-0.050727
3207,-0.01874,-0.00469,-0.050727
3208,-0.01874,0.0288,-0.014495
3209,-0.01874,0.06229,-0.068843
3210,0.000481,0.045545,-0.050727
3211,-0.01874,0.06229,0.039853
3212,0.000481,0.06229,-0.014495
3213,0.000481,0.045545,0.021737
3214,-0.01874,0.06229,0.003621
3215,0.000481,0.045545,0.003621
3216,0.000481,0.06229,0.021737
3217,0.000481,0.06229,0.057969
3218,0.000481,0.0288,0.003621
3219,0.000481,0.0288,0.039853
3220,0.000481,0.012055,0.039853
3221,0.000481,-0.00469,-0.032611
3222,-0.01874,-0.021435,0.021737
3223,0.000481,-0.021435,-0.014495
3224,0.000481,-0.021435,-0.014495
3225,0.000481,-0.021435,-0.014495
3226,-0.01874,-0.00469,0.021737
3227,0.000481,-0.021435,-0.014495
3228,0.000481,-0.00469,-0.014495
3229,0.000481,0.012055,0.057969
3230,0.000481,-0.00469,0.003621
3231,0.000481,0.0288,0.003621
3232,0.000481,-0.00469,0.003621
3233,-0.01874,-0.021435,-0.032611
3234,0.000481,-0.00469,-0.050727
3235,-0.01874,-0.021435,-0.014495
3236,0.000481,-0.021435,-0.068843
3237,-0.01874,-0.021435,-0.032611
3238,0.000481,-0.021435,0.003621
3239,0.000481,-0.00469,-0.014495
3240,-0.01874,-0.00469,0.039853
3241,-0.01874,-0.021435,0.039853
3242,0.000481,-0.00469,-0.014495
3243,0.000481,-0.00469,-0.014495
3244,0.019703,0.012055,0.003621
3245,0.019703,0.0288,-0.014495
3246,0.000481,0.0288,0.003621
3247,0.000481,0.045545,0.039853
3248,0.019703,-0.00469,0.021737
3249,0.000481,-0.021435,0.039853
3250,-0.01874,0.012055,0.057969
3251,0.000481,-0.00469,0.003621
3252,0.000481,-0.071669,-0.014495
3253,0.000481,-0.071669,0.021737
3254,0.000481,-0.038179,0.003621
3255,0.000481,-0.054924,-0.032611
3256,0.019703,-0.021435,0.021737
3257,-0.01874,0.0288,-0.014495
3258,0.000481,0.095779,0.003621
3259,0.000481,0.112524,0.057969
3260,0.000481,0.095779,-0.014495
3261,0.000481,0.0288,0.021737
3262,-0.01874,0.0288,0.003621
3263,-0.01874,0.012055,-0.032611
3264,-0.01874,0.012055,-0.032611
3265,-0.01874,-0.038179,-0.050727
3266,0.000481,-0.071669,-0.050727
3267,0.000481,-0.038179,0.003621
3268,0.000481,-0.021435,0.039853
3269,0.000481,-0.038179,0.003621
3270,-0.01874,-0.00469,0.003621
3271,-0.01874,-0.00469,0.021737
3272,-0.01874,0.012055,-0.014495
3273,-0.037962,0.0288,-0.014495
3274,0.000481,0.06229,-0.014495
3275,-0.01874,0.012055,-0.014495
3276,0.000481,-0.00469,-0.032611
3277,-0.01874,-0.00469,-0.014495
3278,-0.01874,0.012055,0.021737
3279,-0.01874,0.012055,0.003621
3280,0.000481,-0.00469,0.021737
3281,-0.01874,0.012055,-0.014495
3282,-0.01874,-0.00469,-0.032611
3283,0.000481,-0.00469,0.003621
3284,0.000481,-0.00469,-0.032611
3285,0.000481,0.012055,-0.050727
3286,-0.01874,-0.00469,-0.032611
3287,-0.01874,-0.021435,-0.014495
3288,-0.01874,-0.00469,0.021737
3289,0.000481,-0.00469,0.003621
3290,0.000481,0.079034,0.003621
3291,0.000481,0.012055,-0.014495
3292,0.000481,-0.00469,0.003621
3293,0.000481,-0.00469,-0.032611
3294,-0.01874,-0.00469,0.003621
3295,0.000481,0.012055,0.039853
3296,-0.01874,-0.00469,0.057969
3297,0.000481,0.012055,0.003621
3298,0.000481,-0.00469,0.039853
3299,0.000481,-0.00469,0.021737
3300,0.000481,-0.021435,0.003621
3301,0.000481,-0.00469,0.021737
3302,0.000481,-0.021435,-0.014495
3303,0.000481,-0.021435,-0.068843
3304,-0.01874,-0.021435,-0.014495
3305,-0.01874,-0.021435,0.003621
3306,-0.01874,-0.00469,-0.014495
3307,0.000481,0.012055,0.003621
3308,0.000481,0.06229,-0.014495
3309,-0.01874,0.0288,-0.032611
3310,-0.01874,-0.00469,0.003621
3311,-0.037962,0.012055,-0.068843
3312,-0.01874,-0.00469,-0.032611
3313,0.000481,0.012055,0.003621
3314,0.000481,0.0288,0.021737
3315,-0.01874,-0.00469,0.039853
3316,-0.01874,-0.021435,0.057969
3317,0.000481,-0.021435,0.076085
3318,0.000481,-0.038179,0.039853
3319,0.000481,-0.00469,0.076085
3320,0.019703,-0.021435,0.003621
3321,0.038924,-0.00469,-0.014495
3322,0.019703,0.045545,0.003621
3323,0.000481,0.0288,0.003621
3324,0.019703,0.045545,0.021737
3325,0.000481,0.045545,0.003621
3326,0.019703,0.06229,0.039853
3327,0.000481,0.0288,0.003621
3328,-0.01874,0.0288,0.021737
3329,-0.01874,0.0288,0.003621
3330,-0.01874,-0.00469,-0.050727
3331,0.000481,0.012055,-0.014495
3332,-0.01874,-0.00469,-0.050727
3333,0.019703,-0.00469,-0.014495
3334,0.000481,0.0288,0.021737
3335,0.000481,0.012055,0.021737
3336,0.000481,-0.021435,-0.032611
3337,0.000481,-0.038179,0.003621
3338,0.000481,-0.054924,-0.032611
3339,-0.037962,-0.038179,-0.050727
3340,-0.01874,-0.054924,-0.050727
3341,-0.01874,-0.021435,0.021737
3342,0.019703,0.012055,-0.014495
3343,0.019703,0.0288,0.003621
3344,0.000481,0.0288,0.021737
3345,0.019703,0.045545,0.057969
3346,0.000481,0.0288,0.039853
3347,0.000481,-0.021435,0.039853
3348,0.019703,-0.00469,-0.032611
3349,-0.01874,-0.038179,0.003621
3350,0.000481,-0.088414,0.021737
3351,0.000481,-0.054924,0.003621
3352,-0.01874,-0.021435,0.021737
3353,-0.037962,-0.00469,0.094201
3354,0.000481,0.012055,0.003621
3355,0.000481,0.079034,0.021737
3356,-0.01874,0.079034,0.039853
3357,0.000481,0.06229,-0.014495
3358,0.000481,0.06229,0.021737
3359,0.019703,0.012055,0.021737
3360,0.000481,-0.00469,-0.014495
3361,0.019703,0.012055,-0.014495
3362,0.000481,-0.00469,-0.014495
3363,0.000481,0.012055,-0.032611
3364,-0.01874,-0.021435,-0.014495
3365,0.000481,-0.038179,0.003621
3366,-0.01874,-0.054924,0.003621
3367,0.000481,-0.054924,0.021737
3368,0.000481,-0.038179,0.003621
3369,-0.01874,-0.021435,-0.032611
3370,0.000481,-0.00469,-0.032611
3371,0.000481,0.0288,0.003621
3372,0.000481,0.06229,-0.032611
3373,-0.01874,0.06229,-0.050727
3374,0.000481,0.0288,0.021737
3375,-0.01874,0.045545,0.021737
3376,0.019703,0.0288,0.039853
3377,-0.01874,-0.00469,0.003621
3378,-0.01874,0.0288,0.003621
3379,0.000481,-0.00469,-0.050727
3380,-0.01874,-0.038179,0.021737
3381,-0.01874,-0.021435,-0.050727
3382,-0.01874,-0.00469,0.021737
3383,0.000481,-0.00469,0.057969
3384,-0.01874,0.012055,0.021737
3385,0.000481,-0.00469,0.039853
3386,0.000481,-0.00469,0.003621
3387,-0.01874,-0.00469,0.003621
3388,0.019703,-0.00469,-0.014495
3389,0.000481,-0.00469,0.003621
3390,-0.01874,-0.00469,-0.014495
3391,-0.01874,-0.021435,-0.032611
3392,0.000481,-0.00469,-0.014495
3393,-0.01874,-0.021435,-0.032611
3394,0.000481,-0.00469,-0.014495
3395,-0.01874,0.012055,0.021737
3396,-0.01874,-0.00469,-0.032611
3397,0.019703,-0.00469,-0.086959
3398,0.000481,-0.038179,-0.050727
3399,-0.01874,-0.038179,-0.086959
3400,-0.01874,-0.038179,-0.050727
3401,-0.01874,0.012055,0.021737
3402,-0.01874,-0.00469,-0.014495
3403,-0.01874,0.0288,0.021737
3404,0.000481,0.06229,0.021737
3405,0.000481,0.045545,0.057969
3406,0.000481,0.0288,0.039853
3407,0.000481,0.0288,0.094201
3408,0.038924,0.06229,0.039853
3409,0.019703,0.0288,0.021737
3410,0.000481,0.0288,0.003621
3411,0.000481,-0.021435,-0.014495
3412,0.000481,-0.00469,-0.032611
3413,0.000481,-0.00469,0.021737
3414,0.000481,-0.00469,0.057969
3415,0.000481,-0.00469,0.021737
3416,0.000481,-0.00469,0.057969
3417,-0.01874,-0.00469,0.021737
3418,0.000481,-0.021435,-0.032611
3419,-0.01874,0.012055,-0.032611
3420,-0.037962,0.012055,-0.014495
3421,0.000481,0.0288,-0.050727
3422,-0.01874,0.0288,0.003621
3423,-0.01874,-0.038179,0.003621
3424,-0.01874,-0.021435,-0.032611
3425,0.000481,-0.021435,0.003621
3426,0.019703,-0.021435,-0.014495
3427,0.000481,-0.00469,0.021737
3428,0.000481,-0.021435,-0.014495
3429,0.000481,-0.021435,0.021737
3430,0.000481,-0.088414,0.003621
3431,-0.01874,-0.054924,0.003621
3432,0.000481,-0.021435,0.021737
3433,-0.01874,-0.00469,0.003621
3434,-0.01874,0.012055,0.003621
3435,0.000481,0.045545,0.021737
3436,0.019703,0.06229,-0.014495
3437,-0.01874,0.06229,0.003621
3438,0.000481,0.045545,-0.032611
3439,0.000481,0.012055,-0.032611
3440,0.019703,0.012055,0.021737
3441,0.000481,0.012055,0.003621
3442,0.038924,-0.021435,-0.014495
3443,-0.01874,-0.021435,0.039853
3444,0.000481,0.012055,0.039853
3445,-0.01874,-0.00469,0.039853
3446,-0.01874,-0.00469,0.003621
3447,-0.01874,-0.021435,0.003621
3448,-0.01874,-0.00469,-0.032611
3449,0.019703,0.0288,-0.032611
3450,0.000481,0.0288,-0.032611
3451,0.019703,0.0288,-0.032611
3452,0.038924,-0.021435,-0.014495
3453,-0.01874,-0.038179,0.003621
3454,0.000481,-0.021435,0.003621
3455,-0.01874,-0.021435,0.021737
3456,-0.01874,-0.021435,0.003621
3457,-0.01874,-0.054924,-0.014495
3458,0.000481,-0.038179,-0.032611
3459,-0.01874,-0.00469,-0.014495
3460,0.000481,-0.00469,-0.014495
3461,-0.01874,-0.00469,0.021737
3462,-0.01874,0.0288,0.039853
3463,0.000481,0.0288,0.003621
3464,0.000481,0.06229,0.039853
3465,-0.037962,0.06229,0.039853
3466,0.000481,-0.00469,0.003621
3467,-0.01874,-0.021435,-0.014495
3468,0.019703,-0.00469,0.021737
3469,-0.01874,0.012055,0.003621
3470,0.000481,0.0288,-0.032611
3471,-0.01874,0.012055,-0.014495
3472,-0.01874,0.0288,0.003621
3473,0.019703,-0.021435,-0.032611
3474,0.019703,-0.00469,0.039853
3475,0.000481,-0.00469,0.039853
3476,0.000481,-0.00469,-0.032611
3477,-0.037962,-0.00469,0.057969
3478,0.019703,-0.00469,-0.014495
3479,0.000481,-0.021435,-0.032611
3480,-0.01874,-0.00469,-0.050727
3481,0.000481,0.012055,-0.032611
3482,0.000481,-0.038179,-0.014495
3483,0.000481,-0.021435,0.003621
3484,-0.01874,-0.071669,0.039853
3485,0.019703,-0.021435,-0.014495
3486,0.019703,-0.00469,0.057969
3487,0.000481,-0.00469,-0.014495
3488,0.000481,0.0288,-0.050727
3489,-0.01874,0.012055,-0.014495
3490,-0.01874,0.012055,-0.032611
3491,0.019703,-0.021435,-0.050727
3492,0.019703,-0.00469,-0.014495
3493,0.019703,0.0288,0.021737
3494,0.019703,-0.038179,0.021737
3495,0.019703,0.0288,0.039853
3496,0.019703,0.0288,0.057969
3497,0.019703,0.045545,0.021737
3498,0.019703,0.06229,0.021737
3499,0.019703,0.06229,0.057969
3500,-0.01874,0.045545,-0.014495
3501,-0.01874,0.079034,0.021737
3502,-0.01874,0.012055,0.039853
3503,0.000481,-0.021435,0.021737
3504,-0.01874,-0.021435,0.003621
3505,-0.01874,0.012055,0.021737
3506,-0.01874,-0.038179,-0.014495
3507,-0.01874,-0.00469,-0.050727
3508,-0.01874,-0.00469,-0.014495
3509,0.000481,-0.00469,-0.032611
3510,0.000481,0.012055,-0.032611
3511,0.000481,-0.038179,0.003621
3512,-0.01874,-0.054924,-0.050727
3513,-0.01874,-0.054924,0.003621
3514,0.000481,-0.054924,0.021737
3515,-0.037962,-0.00469,-0.032611
3516,-0.01874,-0.038179,-0.014495
3517,0.000481,0.0288,0.039853
3518,0.019703,0.045545,0.003621
3519,0.000481,0.06229,-0.014495
3520,0.000481,0.045545,0.003621
3521,0.019703,0.0288,-0.050727
3522,0.019703,0.012055,-0.014495
3523,0.000481,0.0288,0.003621
3524,0.019703,0.012055,0.021737
3525,-0.01874,-0.00469,-0.032611
3526,0.019703,-0.021435,-0.050727
3527,-0.01874,-0.021435,-0.014495
3528,-0.01874,-0.021435,-0.014495
3529,-0.01874,-0.021435,0.003621
3530,-0.01874,-0.038179,-0.050727
3531,-0.01874,-0.021435,-0.014495
3532,-0.057183,-0.00469,0.021737
3533,-0.037962,-0.00469,0.021737
3534,-0.01874,0.045545,0.003621
3535,0.000481,-0.00469,0.057969
3536,0.000481,-0.021435,0.003621
3537,0.019703,-0.021435,0.003621
3538,0.000481,-0.038179,-0.014495
3539,0.000481,-0.00469,-0.014495
3540,0.000481,0.012055,-0.014495
3541,-0.01874,0.045545,-0.032611
3542,0.000481,0.0288,0.021737
3543,0.019703,0.012055,0.003621
3544,0.000481,0.045545,0.039853
3545,0.019703,0.079034,0.021737
3546,0.000481,0.012055,-0.032611
3547,0.000481,0.012055,0.003621
3548,0.000481,-0.00469,-0.014495
3549,0.038924,-0.021435,-0.032611
3550,0.019703,-0.021435,0.003621
3551,0.019703,-0.021435,0.021737
3552,0.038924,-0.071669,-0.014495
3553,-0.01874,-0.021435,0.003621
3554,-0.01874,-0.021435,0.039853
3555,0.000481,-0.021435,0.003621
3556,-0.037962,0.0288,0.076085
3557,-0.01874,0.045545,0.021737
3558,0.000481,0.06229,0.003621
3559,-0.01874,0.045545,0.021737
3560,0.000481,0.0288,0.021737
3561,0.019703,0.0288,-0.032611
3562,0.000481,0.012055,-0.014495
3563,0.000481,-0.00469,-0.014495
3564,0.038924,-0.00469,-0.032611
3565,0.019703,0.045545,0.021737
3566,0.000481,0.012055,0.003621
3567,-0.01874,-0.00469,0.003621
3568,-0.01874,-0.00469,-0.032611
3569,0.019703,0.012055,0.003621
3570,0.019703,0.012055,-0.014495
3571,0.038924,-0.021435,0.003621
3572,0.000481,-0.00469,0.003621
3573,-0.01874,-0.021435,0.021737
3574,0.000481,-0.021435,0.003621
3575,-0.01874,0.012055,0.039853
3576,-0.01874,0.012055,-0.014495
3577,0.000481,-0.021435,-0.032611
3578,-0.037962,-0.00469,0.003621
3579,-0.037962,-0.00469,0.003621
3580,0.019703,-0.00469,-0.032611
3581,0.019703,-0.00469,-0.014495
3582,-0.01874,-0.021435,0.039853
3583,-0.037962,-0.00469,-0.014495
3584,0.000481,-0.00469,0.003621
3585,-0.01874,-0.021435,0.021737
3586,0.000481,-0.021435,0.003621
3587,-0.01874,-0.054924,0.021737
3588,0.019703,-0.021435,0.003621
3589,0.019703,-0.021435,0.003621
3590,0.019703,0.012055,0.021737
3591,-0.01874,0.0288,-0.032611
3592,0.019703,0.0288,0.003621
3593,0.019703,0.0288,0.003621
3594,0.019703,-0.021435,0.039853
3595,0.000481,0.012055,0.003621
3596,-0.01874,0.012055,0.039853
3597,-0.01874,0.012055,-0.014495
3598,0.000481,0.012055,-0.050727
3599,-0.01874,-0.00469,-0.068843
3600,-0.01874,-0.00469,-0.032611
3601,0.000481,-0.021435,-0.050727
3602,0.000481,-0.021435,0.003621
3603,0.019703,0.012055,0.039853
3604,-0.01874,-0.021435,0.003621
3605,0.000481,-0.00469,0.003621
3606,0.000481,-0.021435,-0.014495
3607,-0.01874,-0.021435,-0.014495
3608,0.000481,-0.00469,-0.032611
3609,0.000481,0.012055,-0.014495
3610,-0.01874,-0.00469,-0.014495
3611,-0.01874,0.012055,0.039853
3612,0.019703,0.045545,0.076085
3613,0.000481,0.045545,0.057969
3614,-0.01874,0.045545,0.039853
3615,0.000481,0.012055,0.003621
3616,0.000481,0.012055,0.003621
3617,0.000481,0.012055,-0.050727
3618,0.000481,-0.00469,-0.014495
3619,-0.01874,-0.00469,-0.014495
3620,-0.01874,-0.00469,0.021737
3621,-0.01874,0.012055,0.021737
3622,0.000481,0.012055,-0.014495
3623,0.000481,0.0288,-0.014495
3624,-0.01874,0.0288,0.021737
3625,-0.01874,0.045545,0.003621
3626,0.000481,0.0288,-0.014495
3627,-0.01874,0.012055,-0.014495
3628,0.000481,-0.021435,-0.014495
3629,0.000481,-0.00469,-0.050727
3630,-0.01874,-0.00469,0.003621
3631,0.000481,-0.00469,-0.032611
3632,0.000481,-0.054924,0.003621
3633,-0.01874,-0.054924,0.021737
3634,0.000481,-0.105159,0.003621
3635,0.000481,-0.088414,0.021737
3636,-0.01874,-0.054924,0.003621
3637,0.000481,-0.00469,-0.050727
3638,0.000481,0.0288,-0.050727
3639,0.000481,0.06229,-0.014495
3640,0.000481,0.112524,-0.050727
3641,0.000481,0.095779,-0.014495
3642,0.019703,0.079034,-0.014495
3643,0.000481,0.0288,-0.032611
3644,-0.01874,0.0288,0.003621
3645,-0.01874,0.012055,0.003621
3646,0.000481,-0.00469,-0.014495
3647,-0.01874,-0.021435,-0.050727
3648,-0.037962,-0.021435,-0.014495
3649,0.000481,-0.00469,-0.050727
3650,0.000481,-0.021435,0.039853
3651,0.000481,0.012055,0.076085
3652,0.019703,0.012055,0.057969
3653,0.000481,0.012055,0.057969
3654,0.019703,-0.00469,0.021737
3655,0.000481,-0.00469,-0.014495
3656,-0.01874,0.012055,-0.032611
3657,0.000481,0.012055,-0.032611
3658,0.000481,-0.021435,-0.032611
3659,0.000481,-0.00469,-0.014495
3660,0.000481,-0.00469,0.021737
3661,0.000481,-0.00469,0.094201
3662,-0.01874,-0.021435,0.003621
3663,0.000481,0.012055,0.021737
3664,-0.01874,0.012055,0.003621
3665,-0.01874,-0.00469,0.003621
3666,0.000481,0.012055,0.021737
3667,0.000481,0.012055,0.021737
3668,0.000481,-0.00469,-0.032611
3669,0.000481,-0.021435,0.021737
3670,-0.01874,-0.021435,0.039853
3671,-0.01874,-0.00469,-0.032611
3672,-0.01874,0.012055,0.039853
3673,0.000481,-0.00469,0.003621
3674,0.000481,0.012055,-0.032611
3675,0.000481,0.012055,-0.014495
3676,0.019703,-0.038179,-0.032611
3677,0.000481,-0.054924,-0.032611
3678,0.000481,-0.021435,0.003621
3679,0.019703,-0.054924,-0.032611
3680,-0.01874,-0.00469,-0.014495
3681,-0.01874,-0.00469,0.039853
3682,-0.01874,-0.021435,0.003621
3683,0.000481,-0.021435,0.003621
3684,0.000481,0.012055,0.003621
3685,-0.01874,-0.00469,-0.014495
3686,-0.01874,-0.00469,-0.032611
3687,0.000481,-0.00469,-0.014495
3688,0.000481,0.012055,-0.032611
3689,-0.01874,0.045545,0.003621
3690,0.000481,0.0288,0.021737
3691,0.000481,0.06229,0.021737
3692,0.019703,0.0288,0.003621
3693,0.019703,0.045545,0.039853
3694,-0.01874,0.0288,0.039853
3695,0.019703,0.0288,0.003621
3696,0.019703,0.012055,0.021737
3697,0.000481,0.012055,-0.014495
3698,-0.01874,-0.00469,0.003621
3699,0.000481,-0.00469,0.039853
3700,0.000481,-0.021435,0.021737
