# Requested Sampling Rate (Hz):,1000
# Actual Sampling Rate (Hz):,998.444
# Requested Duration (s):,5.0
# Actual Duration (s):,5.046
# REST Calibration:,831.9749657534268,832.2800684931498,831.8001369863033
# MAX Calibration:,884.0000,892.0000,887.0000
# Normalization: MVC-based  (x_norm = (x - REST) / (MAX - REST))
sample_idx,EMG1,EMG2,EMG3
0,-0.01874,0.012055,0.021737
1,0.000481,-0.00469,0.057969
2,0.000481,0.0288,0.039853
3,0.000481,0.012055,0.039853
4,-0.01874,0.0288,-0.014495
5,0.000481,0.0288,0.021737
6,0.000481,-0.00469,0.021737
7,0.000481,-0.00469,-0.014495
8,0.000481,-0.021435,-0.032611
9,0.019703,-0.00469,-0.032611
10,0.000481,-0.00469,-0.032611
11,-0.01874,0.012055,0.039853
12,0.000481,0.0288,0.039853
13,-0.01874,-0.00469,-0.014495
14,0.000481,0.0288,0.003621
15,-0.01874,-0.00469,-0.014495
16,0.000481,0.012055,-0.032611
17,-0.01874,-0.00469,-0.032611
18,0.000481,0.012055,-0.014495
19,0.000481,-0.00469,0.021737
20,0.000481,-0.00469,0.003621
21,0.019703,0.012055,0.021737
22,0.019703,0.012055,0.003621
23,0.000481,0.012055,-0.014495
24,-0.01874,0.0288,-0.014495
25,0.000481,0.0288,-0.032611
26,-0.037962,-0.038179,-0.032611
27,0.000481,-0.038179,-0.050727
28,-0.037962,-0.021435,0.003621
29,-0.01874,-0.00469,0.003621
30,0.000481,0.012055,0.003621
31,0.000481,0.012055,0.076085
32,0.000481,-0.00469,0.021737
33,0.000481,-0.00469,0.021737
34,0.000481,-0.00469,0.003621
35,0.000481,-0.021435,0.021737
36,0.019703,0.012055,-0.014495
37,0.000481,-0.021435,0.003621
38,0.000481,0.012055,0.003621
39,0.019703,-0.021435,0.003621
40,0.000481,-0.021435,0.003621
41,-0.01874,-0.00469,-0.032611
42,0.000481,-0.021435,-0.032611
43,0.000481,-0.00469,-0.014495
44,-0.01874,0.012055,0.021737
45,0.000481,-0.00469,0.021737
46,-0.01874,-0.00469,-0.014495
47,-0.01874,0.012055,0.057969
48,0.000481,-0.021435,0.057969
49,0.000481,-0.054924,0.057969
50,0.000481,-0.021435,0.003621
51,-0.01874,-0.021435,-0.014495
52,-0.01874,-0.054924,-0.014495
53,-0.037962,-0.00469,-0.014495
54,0.000481,-0.021435,0.021737
55,-0.01874,-0.00469,0.003621
56,-0.01874,0.012055,-0.014495
57,0.019703,-0.00469,0.003621
58,0.000481,-0.00469,-0.032611
59,0.000481,0.012055,-0.032611
60,0.000481,0.0288,0.003621
61,-0.01874,0.012055,-0.068843
62,-0.037962,0.012055,-0.032611
63,-0.01874,0.045545,-0.014495
64,-0.01874,0.079034,0.003621
65,0.019703,0.095779,0.057969
66,0.019703,0.0288,0.021737
67,0.019703,-0.021435,0.003621
68,-0.01874,-0.038179,-0.014495
69,-0.01874,-0.021435,-0.014495
70,0.000481,-0.038179,-0.050727
71,0.000481,-0.00469,0.003621
72,0.000481,-0.021435,0.003621
73,-0.01874,-0.00469,0.003621
74,-0.01874,0.045545,0.021737
75,-0.01874,0.0288,0.003621
76,0.000481,0.0288,-0.032611
77,0.000481,0.0288,-0.014495
78,0.000481,0.012055,-0.014495
79,0.000481,0.012055,-0.032611
80,0.019703,0.012055,0.003621
81,-0.01874,-0.021435,-0.032611
82,0.000481,0.012055,0.003621
83,-0.01874,0.0288,0.021737
84,0.019703,0.012055,0.021737
85,0.038924,0.0288,-0.032611
86,0.000481,-0.038179,0.003621
87,0.000481,-0.038179,-0.032611
88,0.000481,-0.054924,-0.068843
89,-0.037962,-0.071669,0.003621
90,-0.01874,-0.021435,-0.032611
91,-0.01874,-0.021435,0.021737
92,0.000481,0.045545,0.021737
93,0.019703,0.0288,0.003621
94,0.000481,0.012055,0.003621
95,-0.01874,0.0288,-0.014495
96,-0.01874,-0.021435,-0.014495
97,-0.01874,0.045545,-0.032611
98,-0.01874,0.045545,-0.032611
99,-0.037962,-0.00469,-0.032611
100,0.000481,-0.00469,0.003621
101,0.000481,-0.021435,0.039853
102,-0.01874,0.012055,0.003621
103,0.019703,0.012055,0.003621
104,0.019703,-0.021435,-0.068843
105,0.019703,-0.021435,-0.032611
106,-0.01874,-0.00469,-0.032611
107,-0.01874,-0.00469,0.039853
108,-0.01874,0.045545,0.003621
109,0.000481,0.045545,0.039853
110,0.000481,-0.00469,0.021737
111,0.000481,0.0288,0.003621
112,0.019703,0.0288,0.021737
113,0.019703,0.0288,0.003621
114,0.019703,0.0288,0.003621
115,0.019703,0.0288,-0.014495
116,0.000481,-0.021435,0.021737
117,-0.01874,-0.021435,-0.032611
118,-0.01874,-0.021435,0.003621
119,0.000481,-0.00469,0.021737
120,0.000481,-0.00469,0.003621
121,-0.01874,0.012055,0.003621
122,-0.01874,-0.021435,-0.014495
123,-0.01874,-0.054924,-0.050727
124,-0.01874,-0.021435,-0.032611
125,0.019703,-0.021435,-0.068843
126,-0.01874,-0.00469,0.003621
127,-0.01874,0.012055,0.021737
128,-0.037962,-0.00469,0.021737
129,-0.01874,-0.00469,-0.014495
130,0.000481,-0.00469,0.021737
131,0.019703,0.0288,0.039853
132,0.019703,0.012055,0.057969
133,0.000481,0.0288,0.057969
134,0.000481,0.045545,0.021737
135,0.000481,0.012055,0.057969
136,-0.01874,0.0288,0.076085
137,-0.01874,0.0288,0.021737
138,0.000481,0.012055,0.003621
139,0.000481,0.012055,0.021737
140,0.000481,-0.00469,-0.032611
141,0.000481,0.012055,-0.086959
142,0.000481,-0.00469,-0.050727
143,-0.037962,-0.021435,-0.068843
144,-0.01874,-0.021435,-0.032611
145,0.000481,-0.00469,0.003621
146,0.019703,0.012055,0.021737
147,-0.01874,-0.00469,0.057969
148,-0.01874,-0.038179,0.021737
149,-0.01874,0.0288,0.003621
150,0.000481,-0.00469,-0.032611
151,0.000481,0.012055,-0.014495
152,0.000481,-0.00469,-0.050727
153,-0.01874,-0.00469,-0.014495
154,0.000481,-0.00469,-0.014495
155,0.000481,-0.021435,0.003621
156,0.000481,-0.00469,0.039853
157,0.019703,-0.021435,-0.014495
158,0.000481,-0.021435,-0.032611
159,-0.01874,-0.00469,-0.032611
160,-0.01874,0.012055,-0.014495
161,-0.037962,0.0288,-0.032611
162,-0.01874,-0.00469,0.003621
163,0.000481,0.012055,0.076085
164,0.000481,-0.00469,0.003621
165,0.000481,-0.038179,0.021737
166,-0.037962,-0.071669,0.003621
167,0.019703,-0.021435,0.003621
168,-0.01874,-0.021435,-0.014495
169,0.000481,-0.00469,0.003621
170,0.000481,0.0288,0.021737
171,0.000481,0.06229,0.057969
172,0.000481,0.045545,0.021737
173,0.000481,0.045545,-0.014495
174,0.000481,0.012055,0.021737
175,0.000481,0.012055,0.003621
176,-0.037962,0.012055,-0.014495
177,-0.037962,0.012055,0.003621
178,0.000481,0.0288,-0.014495
179,0.000481,-0.00469,0.021737
180,0.000481,0.0288,0.021737
181,0.000481,-0.00469,0.003621
182,0.000481,0.012055,-0.014495
183,0.000481,0.012055,-0.014495
184,0.000481,-0.00469,-0.032611
185,0.000481,-0.00469,-0.050727
186,0.000481,-0.021435,0.021737
187,-0.01874,-0.088414,-0.050727
188,-0.037962,-0.121903,-0.032611
189,-0.01874,-0.155393,0.003621
190,-0.037962,-0.172138,-0.032611
191,-0.01874,-0.155393,0.003621
192,-0.01874,-0.071669,-0.032611
193,0.000481,-0.00469,-0.032611
194,0.000481,0.06229,-0.014495
195,0.000481,0.095779,0.003621
196,0.000481,0.146014,-0.050727
197,0.019703,0.212993,0.039853
198,0.019703,0.146014,0.039853
199,0.019703,0.095779,0.003621
200,0.019703,0.06229,0.057969
201,0.000481,0.0288,0.057969
202,-0.01874,0.012055,-0.014495
203,0.000481,0.0288,0.039853
204,-0.01874,0.045545,0.039853
205,0.000481,0.06229,0.003621
206,0.019703,0.012055,0.021737
207,-0.037962,-0.00469,0.021737
208,0.000481,0.012055,-0.050727
209,-0.037962,-0.00469,0.003621
210,-0.01874,-0.038179,-0.032611
211,-0.037962,-0.021435,-0.032611
212,0.000481,-0.021435,0.039853
213,0.000481,-0.021435,-0.032611
214,-0.01874,-0.038179,0.021737
215,-0.037962,-0.021435,0.021737
216,-0.01874,-0.00469,0.021737
217,0.019703,-0.00469,-0.068843
218,-0.01874,-0.021435,-0.032611
219,-0.01874,-0.00469,-0.050727
220,-0.01874,0.012055,-0.068843
221,-0.01874,0.012055,-0.032611
222,0.000481,0.012055,-0.014495
223,0.000481,0.012055,0.003621
224,0.000481,-0.038179,0.039853
225,0.000481,0.012055,0.021737
226,0.000481,-0.021435,0.003621
227,0.000481,-0.00469,0.039853
228,0.000481,0.0288,-0.014495
229,-0.01874,-0.038179,-0.050727
230,-0.01874,0.012055,0.003621
231,-0.01874,-0.00469,-0.032611
232,-0.01874,-0.00469,-0.032611
233,0.000481,-0.00469,0.039853
234,0.019703,-0.021435,0.003621
235,0.000481,-0.00469,0.021737
236,0.019703,-0.00469,0.003621
237,0.019703,-0.00469,0.003621
238,0.000481,-0.00469,0.021737
239,0.000481,-0.021435,0.021737
240,0.000481,0.0288,0.003621
241,-0.01874,-0.00469,0.039853
242,0.000481,0.079034,0.057969
243,-0.01874,-0.021435,0.003621
244,0.000481,-0.00469,0.021737
245,0.000481,-0.021435,-0.014495
246,0.019703,-0.038179,0.003621
247,0.000481,-0.038179,0.021737
248,0.000481,-0.00469,0.021737
249,0.000481,0.012055,0.003621
250,0.000481,0.012055,0.021737
251,-0.01874,0.012055,0.003621
252,0.000481,0.045545,-0.032611
253,0.019703,0.012055,0.003621
254,0.000481,0.0288,-0.014495
255,0.000481,0.0288,-0.050727
256,0.000481,0.012055,-0.014495
257,-0.01874,0.012055,-0.032611
258,-0.01874,-0.00469,-0.014495
259,0.000481,-0.021435,-0.014495
260,-0.01874,-0.071669,-0.068843
261,-0.01874,-0.105159,-0.050727
262,-0.01874,-0.155393,-0.014495
263,-0.01874,-0.172138,-0.050727
264,-0.037962,-0.138648,-0.032611
265,-0.01874,-0.038179,0.021737
266,0.000481,0.0288,0.003621
267,0.000481,0.079034,0.021737
268,-0.01874,0.045545,0.076085
269,0.000481,0.079034,0.057969
270,0.000481,0.146014,0.021737
271,0.000481,0.129269,0.039853
272,0.019703,0.112524,0.021737
273,0.000481,0.079034,-0.032611
274,-0.01874,0.079034,-0.032611
275,-0.01874,0.045545,-0.014495
276,0.000481,0.06229,0.021737
277,0.038924,0.045545,0.076085
278,-0.01874,0.012055,0.021737
279,0.000481,0.012055,0.021737
280,0.000481,-0.00469,0.021737
281,0.019703,-0.021435,-0.032611
282,0.019703,0.012055,0.021737
283,0.000481,-0.00469,0.003621
284,-0.01874,0.0288,0.003621
285,0.019703,-0.00469,0.021737
286,-0.01874,-0.054924,0.003621
287,-0.01874,-0.021435,-0.014495
288,0.000481,-0.054924,-0.014495
289,-0.01874,-0.038179,-0.014495
290,0.000481,-0.021435,-0.032611
291,-0.01874,0.012055,-0.032611
292,-0.01874,0.012055,0.021737
293,-0.037962,0.012055,-0.014495
294,0.000481,0.0288,0.021737
295,0.019703,0.0288,-0.014495
296,0.000481,0.012055,-0.050727
297,0.000481,-0.00469,0.003621
298,0.019703,-0.00469,-0.014495
299,-0.01874,-0.021435,-0.014495
300,0.000481,0.012055,0.003621
301,0.000481,0.012055,0.003621
302,0.000481,-0.00469,0.057969
303,-0.01874,0.0288,0.057969
304,0.019703,-0.00469,-0.014495
305,0.019703,0.045545,0.003621
306,0.000481,0.012055,-0.050727
307,-0.01874,-0.00469,-0.032611
308,-0.01874,-0.021435,0.003621
309,-0.01874,0.012055,0.003621
310,0.000481,-0.054924,-0.014495
311,0.000481,0.012055,0.039853
312,-0.01874,-0.021435,0.039853
313,0.000481,-0.021435,-0.032611
314,-0.037962,-0.038179,-0.050727
315,0.000481,-0.054924,0.003621
316,-0.01874,-0.021435,-0.032611
317,-0.01874,-0.021435,0.003621
318,-0.01874,-0.054924,0.039853
319,0.000481,-0.021435,-0.014495
320,0.000481,0.012055,0.003621
321,0.000481,0.045545,-0.014495
322,0.000481,0.0288,-0.014495
323,0.000481,0.06229,-0.014495
324,0.038924,0.045545,0.003621
325,0.000481,0.06229,0.003621
326,-0.01874,0.045545,0.021737
327,-0.01874,-0.021435,0.021737
328,0.000481,0.012055,0.003621
329,0.038924,-0.021435,0.057969
330,0.019703,-0.00469,0.039853
331,-0.01874,0.0288,0.003621
332,0.019703,-0.00469,0.021737
333,-0.01874,-0.00469,0.003621
334,0.000481,0.012055,0.003621
335,0.019703,-0.00469,0.021737
336,0.000481,0.012055,0.003621
337,0.000481,-0.00469,0.021737
338,0.000481,0.012055,0.039853
339,0.019703,-0.00469,0.003621
340,0.000481,-0.00469,-0.032611
341,-0.037962,-0.021435,0.003621
342,0.000481,-0.038179,-0.014495
343,0.000481,-0.054924,0.021737
344,0.000481,-0.071669,0.057969
345,0.038924,-0.021435,0.021737
346,-0.01874,-0.00469,0.039853
347,-0.01874,-0.021435,-0.068843
348,-0.01874,-0.021435,-0.032611
349,-0.037962,-0.021435,-0.032611
350,0.000481,0.06229,-0.050727
351,0.019703,0.045545,-0.032611
352,0.019703,0.0288,-0.014495
353,0.019703,0.06229,-0.014495
354,0.019703,0.0288,0.021737
355,0.000481,0.06229,0.039853
356,-0.037962,0.0288,0.021737
357,0.000481,0.045545,-0.050727
358,-0.01874,-0.00469,0.003621
359,0.000481,-0.00469,-0.014495
360,0.019703,-0.021435,0.021737
361,-0.01874,-0.021435,-0.014495
362,0.000481,-0.038179,0.057969
363,-0.01874,-0.021435,0.039853
364,0.000481,-0.021435,0.021737
365,0.000481,0.012055,0.003621
366,-0.01874,-0.00469,-0.032611
367,0.000481,0.012055,-0.014495
368,0.019703,0.0288,-0.014495
369,0.038924,-0.00469,0.021737
370,-0.01874,-0.00469,0.021737
371,-0.037962,0.0288,0.021737
372,-0.01874,0.0288,0.057969
373,0.000481,0.012055,0.021737
374,-0.01874,-0.021435,0.021737
375,0.000481,0.012055,-0.014495
376,-0.01874,0.012055,0.003621
377,-0.01874,0.012055,-0.050727
378,-0.037962,-0.00469,-0.032611
379,-0.01874,-0.054924,0.021737
380,0.000481,-0.088414,0.021737
381,0.000481,-0.121903,0.021737
382,0.000481,-0.105159,0.039853
383,0.000481,-0.071669,0.039853
384,-0.01874,-0.071669,0.021737
385,-0.01874,-0.00469,0.003621
386,0.019703,0.0288,0.021737
387,0.019703,0.112524,0.021737
388,0.038924,0.162759,0.057969
389,0.058146,0.162759,0.076085
390,0.019703,0.162759,0.094201
391,0.000481,0.079034,0.094201
392,0.000481,0.0288,0.021737
393,0.019703,0.045545,-0.032611
394,0.000481,-0.00469,-0.032611
395,0.000481,0.012055,-0.014495
396,0.000481,0.0288,0.130433
397,-0.01874,0.012055,0.184781
398,0.019703,0.0288,0.184781
399,0.000481,0.045545,0.221013
400,0.019703,0.045545,0.239129
401,0.038924,0.0288,0.184781
402,0.038924,-0.00469,0.057969
403,0.019703,-0.00469,-0.068843
404,0.019703,-0.021435,-0.177539
405,-0.01874,-0.054924,-0.177539
406,-0.01874,-0.155393,-0.250003
407,-0.037962,-0.205628,-0.304351
408,-0.076405,-0.172138,-0.231887
409,-0.095626,-0.138648,-0.177539
410,-0.057183,-0.105159,-0.159423
411,-0.057183,-0.071669,-0.050727
412,-0.01874,-0.088414,-0.068843
413,-0.01874,-0.105159,-0.068843
414,-0.01874,-0.121903,-0.014495
415,0.000481,-0.054924,0.021737
416,0.000481,0.012055,0.003621
417,-0.037962,-0.021435,0.039853
418,0.000481,0.0288,0.003621
419,0.019703,0.079034,-0.014495
420,0.000481,0.129269,-0.014495
421,-0.01874,0.079034,-0.068843
422,0.000481,0.06229,-0.068843
423,-0.037962,0.112524,0.003621
424,0.000481,0.162759,0.021737
425,0.038924,0.212993,0.021737
426,0.038924,0.162759,0.076085
427,0.019703,0.112524,0.021737
428,0.038924,0.06229,0.021737
429,-0.01874,0.012055,-0.014495
430,-0.01874,-0.038179,-0.032611
431,0.000481,-0.038179,-0.014495
432,0.000481,-0.038179,0.039853
433,0.000481,-0.038179,-0.014495
434,0.000481,0.012055,0.039853
435,-0.01874,-0.00469,0.057969
436,0.000481,0.06229,0.039853
437,0.000481,0.045545,0.003621
438,0.019703,0.012055,0.057969
439,0.019703,0.045545,0.021737
440,0.000481,-0.038179,0.003621
441,0.019703,-0.105159,0.003621
442,0.000481,-0.155393,-0.014495
443,-0.01874,-0.105159,0.021737
444,0.000481,-0.054924,0.057969
445,-0.01874,-0.00469,0.003621
446,0.000481,0.079034,0.003621
447,0.019703,0.095779,0.039853
448,0.019703,0.112524,0.003621
449,0.000481,0.06229,-0.014495
450,-0.01874,0.079034,0.039853
451,0.019703,0.095779,0.039853
452,0.038924,0.06229,0.057969
453,0.019703,0.012055,0.130433
454,0.019703,0.012055,0.094201
455,0.038924,0.0288,0.130433
456,0.019703,0.0288,0.130433
457,0.000481,0.012055,0.112317
458,0.000481,-0.00469,0.076085
459,0.000481,-0.021435,0.003621
460,0.019703,0.012055,-0.032611
461,0.000481,-0.00469,-0.086959
462,-0.01874,-0.021435,-0.050727
463,0.019703,-0.021435,-0.068843
464,-0.01874,-0.00469,-0.050727
465,0.000481,-0.021435,-0.086959
466,0.038924,0.012055,-0.105075
467,0.019703,-0.021435,-0.159423
468,-0.037962,-0.054924,-0.177539
469,-0.037962,-0.054924,-0.195655
470,-0.037962,-0.021435,-0.068843
471,0.000481,-0.038179,-0.050727
472,0.000481,-0.038179,-0.050727
473,-0.01874,-0.038179,0.003621
474,-0.037962,-0.021435,-0.032611
475,-0.037962,-0.021435,-0.068843
476,0.000481,-0.021435,-0.032611
477,0.019703,-0.071669,0.003621
478,0.000481,-0.054924,0.003621
479,0.000481,-0.071669,0.021737
480,-0.01874,-0.054924,-0.014495
481,0.019703,-0.021435,-0.014495
482,0.000481,0.0288,0.039853
483,0.000481,0.0288,0.039853
484,0.019703,0.095779,0.057969
485,0.077367,0.129269,0.148549
486,0.038924,0.112524,0.112317
487,0.000481,-0.00469,0.148549
488,-0.01874,0.045545,0.239129
489,0.019703,0.045545,0.202897
490,0.038924,0.045545,0.130433
491,0.019703,0.045545,0.094201
492,-0.01874,-0.00469,0.039853
493,-0.037962,-0.038179,-0.086959
494,-0.057183,-0.088414,-0.159423
495,-0.01874,-0.054924,-0.159423
496,-0.037962,-0.021435,-0.177539
497,0.000481,-0.054924,-0.086959
498,-0.01874,-0.00469,-0.068843
499,0.000481,-0.00469,0.021737
500,0.000481,-0.00469,-0.014495
501,-0.01874,-0.00469,-0.068843
502,-0.01874,-0.071669,-0.086959
503,-0.01874,-0.038179,-0.032611
504,0.019703,-0.00469,0.003621
505,0.000481,0.012055,0.076085
506,0.038924,0.0288,0.184781
507,0.058146,0.012055,0.202897
508,0.038924,0.045545,0.311592
509,0.019703,0.079034,0.311592
510,0.000481,0.0288,0.293477
511,-0.01874,0.0288,0.148549
512,-0.01874,-0.00469,0.112317
513,0.038924,0.045545,0.094201
514,0.038924,0.0288,0.057969
515,0.019703,0.045545,-0.068843
516,0.000481,0.0288,-0.086959
517,0.000481,-0.038179,-0.177539
518,-0.057183,-0.054924,-0.250003
519,-0.01874,-0.038179,-0.213771
520,-0.037962,-0.054924,-0.159423
521,-0.037962,-0.021435,-0.086959
522,-0.01874,-0.054924,-0.159423
523,-0.037962,-0.054924,-0.141307
524,-0.057183,-0.054924,-0.105075
525,-0.037962,0.012055,0.021737
526,0.000481,0.045545,0.166665
527,0.000481,0.0288,0.094201
528,0.019703,0.06229,0.148549
529,0.077367,0.079034,0.293477
530,0.096589,0.095779,0.329708
531,0.077367,0.079034,0.239129
532,0.038924,0.045545,0.202897
533,0.019703,0.06229,0.112317
534,0.000481,0.045545,0.003621
535,-0.057183,-0.00469,-0.141307
536,-0.095626,-0.071669,-0.322467
537,-0.114848,-0.105159,-0.394931
538,-0.114848,-0.121903,-0.286235
539,-0.095626,-0.071669,-0.250003
540,-0.037962,-0.071669,-0.213771
541,0.019703,-0.00469,0.003621
542,0.058146,0.045545,0.202897
543,0.096589,0.06229,0.239129
544,0.077367,0.095779,0.347824
545,0.077367,0.079034,0.221013
546,0.000481,-0.00469,0.076085
547,-0.057183,-0.038179,-0.086959
548,-0.114848,-0.071669,-0.250003
549,-0.114848,-0.088414,-0.286235
550,-0.037962,-0.071669,-0.195655
551,0.019703,-0.054924,-0.123191
552,0.019703,-0.00469,-0.068843
553,0.038924,0.012055,0.039853
554,0.077367,0.045545,0.166665
555,0.096589,0.095779,0.202897
556,0.077367,0.079034,0.257245
557,0.077367,0.079034,0.257245
558,0.038924,0.079034,0.275361
559,0.000481,0.0288,0.130433
560,-0.037962,-0.021435,-0.050727
561,-0.057183,-0.021435,-0.050727
562,-0.076405,0.012055,-0.032611
563,-0.037962,-0.021435,-0.068843
564,-0.076405,-0.071669,-0.231887
565,-0.114848,-0.088414,-0.286235
566,-0.037962,-0.071669,-0.177539
567,0.077367,0.0288,0.094201
568,0.173475,0.129269,0.402172
569,0.211918,0.179503,0.510868
570,0.231139,0.162759,0.45652
571,0.096589,0.06229,0.221013
572,-0.057183,0.06229,0.148549
573,-0.153291,-0.088414,-0.286235
574,-0.210955,-0.155393,-0.503627
575,-0.114848,-0.054924,-0.376815
576,-0.057183,-0.038179,-0.322467
577,-0.114848,-0.138648,-0.340583
578,-0.037962,-0.071669,-0.213771
579,0.000481,0.012055,0.021737
580,0.019703,0.045545,0.076085
581,-0.01874,-0.00469,0.003621
582,-0.114848,-0.054924,0.003621
583,-0.037962,-0.088414,0.021737
584,0.038924,0.0288,0.166665
585,0.135032,0.06229,0.257245
586,0.192696,0.146014,0.45652
587,0.135032,0.112524,0.420288
588,0.019703,0.06229,0.402172
589,-0.076405,0.045545,0.384056
590,-0.01874,0.079034,0.329708
591,-0.01874,-0.021435,0.057969
592,0.000481,-0.038179,-0.177539
593,0.000481,-0.054924,-0.431163
594,-0.114848,-0.105159,-0.648555
595,-0.037962,-0.088414,-0.521743
596,-0.076405,-0.071669,-0.250003
597,-0.057183,-0.054924,-0.141307
598,-0.057183,0.012055,-0.159423
599,0.000481,-0.00469,-0.123191
600,0.058146,0.012055,-0.086959
601,-0.037962,-0.00469,-0.050727
602,-0.01874,0.045545,0.202897
603,-0.01874,0.0288,0.221013
604,-0.057183,0.012055,0.130433
605,0.077367,0.012055,0.130433
606,0.154253,0.045545,0.166665
607,0.019703,-0.021435,0.021737
608,-0.057183,-0.054924,-0.032611
609,-0.037962,-0.038179,0.003621
610,-0.095626,-0.038179,-0.068843
611,-0.114848,-0.121903,-0.068843
612,-0.01874,-0.071669,0.130433
613,0.019703,-0.038179,0.184781
614,0.019703,0.012055,0.148549
615,0.096589,0.045545,0.112317
616,0.096589,0.095779,0.076085
617,-0.037962,0.0288,-0.086959
618,-0.153291,-0.021435,-0.268119
619,-0.114848,0.045545,-0.304351
620,-0.057183,0.012055,-0.068843
621,-0.01874,-0.038179,0.057969
622,-0.037962,-0.054924,0.003621
623,-0.01874,-0.038179,0.003621
624,0.096589,0.095779,0.094201
625,0.173475,0.162759,0.184781
626,0.096589,0.112524,0.184781
627,-0.076405,-0.071669,-0.141307
628,-0.172512,-0.155393,-0.159423
629,-0.153291,-0.105159,-0.086959
630,-0.095626,-0.121903,-0.286235
631,-0.01874,-0.071669,-0.032611
632,0.038924,0.06229,0.36594
633,0.038924,0.129269,0.601448
634,0.000481,0.079034,0.5471
635,0.019703,0.045545,0.63768
636,0.000481,0.012055,0.003621
637,-0.114848,-0.071669,-0.503627
638,-0.095626,-0.105159,-0.648555
639,-0.114848,-0.105159,-0.612323
640,-0.037962,-0.071669,-0.576091
641,0.000481,-0.021435,-0.413047
642,0.038924,0.012055,-0.177539
643,-0.057183,0.012055,0.039853
644,0.019703,0.112524,0.112317
645,0.058146,0.112524,0.148549
646,0.077367,0.095779,0.166665
647,0.077367,0.06229,0.130433
648,-0.037962,-0.038179,0.130433
649,-0.057183,-0.105159,0.094201
650,-0.057183,-0.105159,0.112317
651,-0.153291,-0.071669,0.076085
652,-0.114848,-0.021435,-0.068843
653,-0.01874,0.045545,-0.159423
654,0.077367,0.146014,-0.141307
655,0.096589,0.146014,0.076085
656,0.077367,0.112524,0.221013
657,0.058146,0.0288,0.094201
658,0.038924,-0.00469,0.112317
659,0.135032,0.079034,0.184781
660,0.11581,0.079034,0.184781
661,-0.134069,-0.138648,-0.123191
662,-0.230177,-0.205628,-0.304351
663,-0.153291,-0.138648,-0.394931
664,-0.076405,-0.071669,-0.177539
665,-0.057183,-0.021435,-0.141307
666,0.000481,0.06229,-0.105075
667,0.058146,0.06229,-0.014495
668,0.038924,0.06229,0.003621
669,0.058146,0.045545,0.076085
670,0.11581,0.129269,0.36594
671,0.288804,0.246483,0.692028
672,0.36569,0.263228,0.927536
673,0.231139,0.179503,0.63768
674,-0.037962,-0.088414,0.003621
675,-0.345506,-0.356331,-0.612323
676,-0.480057,-0.389821,-0.902179
677,-0.210955,-0.155393,-0.684787
678,-0.134069,-0.038179,-0.431163
679,-0.095626,-0.038179,-0.213771
680,-0.01874,0.012055,-0.068843
681,0.019703,0.045545,0.112317
682,0.077367,0.06229,0.184781
683,0.077367,0.079034,0.166665
684,0.038924,0.012055,0.057969
685,-0.01874,-0.021435,0.021737
686,0.019703,0.06229,0.076085
687,0.096589,0.079034,0.221013
688,0.038924,0.012055,0.130433
689,0.000481,-0.038179,-0.086959
690,-0.037962,-0.071669,-0.086959
691,0.038924,0.012055,0.039853
692,0.019703,0.012055,0.021737
693,0.019703,0.0288,0.130433
694,0.019703,-0.021435,-0.014495
695,-0.172512,-0.088414,-0.195655
696,-0.095626,-0.054924,-0.123191
697,-0.01874,0.012055,0.003621
698,-0.01874,0.095779,0.148549
699,0.019703,0.045545,0.130433
700,-0.076405,-0.021435,-0.032611
701,-0.037962,-0.038179,-0.250003
702,0.038924,0.012055,-0.195655
703,0.11581,-0.00469,0.003621
704,0.077367,0.0288,0.057969
705,-0.01874,-0.00469,-0.050727
706,-0.114848,-0.121903,-0.286235
707,-0.076405,-0.071669,-0.141307
708,-0.01874,-0.00469,-0.032611
709,-0.037962,0.012055,-0.032611
710,0.077367,0.045545,0.039853
711,0.173475,0.129269,0.311592
712,0.135032,0.146014,0.45652
713,0.058146,0.129269,0.275361
714,0.000481,-0.00469,-0.086959
715,-0.230177,-0.155393,-0.394931
716,-0.134069,-0.155393,-0.268119
717,-0.095626,-0.088414,-0.213771
718,-0.037962,-0.038179,-0.123191
719,0.000481,-0.00469,0.057969
720,0.058146,0.012055,0.021737
721,0.038924,-0.021435,0.003621
722,0.058146,0.0288,0.094201
723,0.000481,0.0288,0.130433
724,-0.01874,0.0288,0.076085
725,-0.037962,0.045545,0.112317
726,-0.057183,-0.00469,0.003621
727,-0.037962,-0.105159,-0.177539
728,0.000481,-0.071669,-0.141307
729,0.019703,-0.021435,-0.014495
730,0.000481,-0.00469,0.003621
731,0.038924,0.0288,0.057969
732,0.058146,0.045545,0.148549
733,0.077367,0.095779,0.148549
734,0.077367,-0.00469,0.039853
735,0.000481,-0.00469,0.003621
736,-0.076405,-0.054924,-0.068843
737,-0.076405,-0.021435,-0.050727
738,-0.057183,0.012055,-0.014495
739,-0.01874,-0.021435,-0.123191
740,-0.01874,-0.021435,-0.141307
741,0.038924,-0.00469,-0.032611
742,0.000481,0.012055,0.021737
743,0.000481,0.012055,0.076085
744,0.058146,0.0288,0.112317
745,0.096589,0.012055,0.148549
746,0.154253,0.06229,0.221013
747,0.135032,0.095779,0.221013
748,0.135032,0.079034,0.202897
749,0.077367,-0.038179,-0.014495
750,-0.037962,-0.105159,-0.213771
751,-0.095626,-0.088414,-0.213771
752,-0.114848,-0.038179,-0.086959
753,-0.057183,-0.038179,-0.105075
754,-0.114848,-0.088414,-0.195655
755,-0.076405,-0.038179,0.021737
756,-0.057183,0.012055,0.039853
757,-0.01874,0.045545,0.076085
758,0.019703,0.095779,0.112317
759,0.000481,0.012055,-0.014495
760,0.000481,-0.038179,-0.105075
761,-0.037962,-0.054924,-0.050727
762,-0.037962,-0.038179,-0.086959
763,0.000481,-0.00469,0.039853
764,0.038924,0.06229,0.094201
765,0.000481,0.0288,-0.014495
766,-0.037962,-0.00469,-0.068843
767,-0.095626,-0.021435,-0.105075
768,-0.057183,-0.00469,-0.032611
769,0.000481,0.0288,-0.032611
770,-0.01874,0.012055,0.039853
771,0.000481,-0.021435,0.039853
772,0.000481,-0.021435,0.021737
773,0.038924,0.0288,0.094201
774,0.000481,-0.00469,0.039853
775,0.019703,-0.021435,0.021737
776,0.019703,-0.038179,0.003621
777,0.000481,-0.00469,0.003621
778,-0.076405,-0.038179,0.003621
779,-0.134069,-0.021435,-0.014495
780,-0.057183,-0.00469,0.003621
781,-0.057183,0.045545,0.039853
782,-0.01874,0.045545,0.057969
783,0.000481,0.0288,-0.032611
784,0.038924,0.045545,0.003621
785,0.019703,0.045545,0.039853
786,0.058146,0.06229,0.130433
787,0.077367,0.0288,0.148549
788,0.058146,-0.054924,-0.032611
789,0.019703,-0.121903,-0.105075
790,0.058146,-0.121903,-0.105075
791,0.077367,-0.121903,-0.068843
792,0.058146,-0.071669,0.021737
793,0.019703,-0.038179,0.021737
794,-0.057183,0.012055,0.076085
795,-0.134069,0.012055,-0.050727
796,-0.191734,0.06229,-0.014495
797,-0.134069,0.079034,-0.014495
798,-0.057183,0.129269,0.039853
799,0.058146,0.112524,0.021737
800,0.077367,0.045545,0.021737
801,0.173475,0.06229,-0.032611
802,0.211918,0.06229,-0.032611
803,0.211918,0.012055,0.003621
804,0.135032,0.012055,-0.032611
805,0.096589,0.0288,0.003621
806,0.019703,0.0288,0.039853
807,-0.057183,0.012055,0.003621
808,-0.114848,-0.038179,-0.014495
809,-0.114848,-0.00469,-0.050727
810,-0.172512,0.012055,-0.050727
811,-0.191734,0.012055,-0.068843
812,-0.134069,-0.088414,0.021737
813,-0.114848,-0.121903,0.003621
814,0.000481,-0.054924,0.057969
815,0.000481,-0.021435,0.076085
816,-0.01874,0.012055,0.057969
817,-0.01874,0.012055,0.039853
818,0.019703,0.012055,0.094201
819,0.11581,0.045545,0.057969
820,0.154253,0.06229,0.076085
821,0.135032,0.095779,-0.032611
822,0.11581,0.0288,-0.159423
823,0.077367,-0.054924,-0.159423
824,-0.037962,-0.105159,-0.050727
825,-0.057183,-0.138648,-0.032611
826,0.077367,-0.105159,0.021737
827,0.000481,-0.121903,-0.032611
828,-0.076405,-0.088414,-0.068843
829,-0.095626,-0.038179,0.021737
830,-0.01874,-0.038179,0.057969
831,0.019703,-0.088414,0.039853
832,-0.095626,-0.138648,0.057969
833,-0.134069,-0.172138,0.094201
834,-0.153291,-0.121903,0.039853
835,-0.191734,-0.054924,0.076085
836,-0.153291,-0.00469,0.039853
837,-0.249399,0.0288,-0.014495
838,-0.172512,0.045545,0.003621
839,-0.057183,0.0288,-0.032611
840,0.038924,0.112524,-0.032611
841,0.11581,0.146014,-0.032611
842,0.231139,0.229738,-0.014495
843,0.231139,0.279972,-0.050727
844,0.231139,0.229738,0.021737
845,0.192696,0.162759,-0.032611
846,0.154253,0.146014,-0.032611
847,0.135032,0.112524,0.039853
848,0.019703,0.095779,-0.032611
849,-0.076405,0.0288,0.039853
850,-0.01874,-0.021435,0.039853
851,-0.01874,-0.105159,0.039853
852,-0.01874,-0.138648,0.057969
853,-0.037962,-0.272607,0.021737
854,-0.01874,-0.373076,-0.014495
855,-0.037962,-0.255862,-0.032611
856,-0.01874,-0.205628,0.003621
857,-0.037962,-0.121903,-0.014495
858,-0.01874,-0.038179,0.021737
859,-0.037962,0.012055,0.039853
860,-0.037962,0.129269,-0.014495
861,-0.057183,0.179503,0.039853
862,-0.057183,0.196248,0.039853
863,-0.057183,0.246483,-0.050727
864,-0.037962,0.263228,-0.032611
865,-0.01874,0.212993,-0.014495
866,-0.01874,0.179503,-0.032611
867,0.038924,0.162759,-0.014495
868,0.058146,0.179503,0.057969
869,0.058146,0.129269,0.039853
870,0.058146,0.146014,0.039853
871,0.058146,0.129269,0.003621
872,0.058146,0.079034,-0.068843
873,0.038924,-0.021435,-0.032611
874,0.019703,0.012055,0.003621
875,0.000481,-0.00469,0.021737
876,0.019703,-0.054924,0.003621
877,-0.01874,-0.121903,-0.014495
878,-0.01874,-0.088414,0.003621
879,0.019703,-0.088414,0.003621
880,0.000481,-0.071669,0.021737
881,-0.037962,-0.071669,-0.014495
882,-0.076405,-0.155393,0.003621
883,-0.057183,-0.205628,-0.032611
884,-0.057183,-0.306097,0.021737
885,0.019703,-0.272607,-0.014495
886,0.019703,-0.272607,0.021737
887,0.000481,-0.188883,0.003621
888,-0.01874,-0.038179,0.003621
889,-0.01874,0.045545,-0.050727
890,-0.01874,0.06229,-0.032611
891,-0.134069,0.095779,-0.014495
892,-0.114848,0.162759,-0.032611
893,-0.114848,0.196248,0.021737
894,-0.057183,0.212993,0.039853
895,0.000481,0.229738,-0.014495
896,0.038924,0.212993,0.003621
897,0.038924,0.179503,0.003621
898,0.019703,0.179503,-0.014495
899,0.038924,0.146014,-0.014495
900,0.038924,0.06229,-0.032611
901,0.077367,0.0288,-0.014495
902,0.096589,0.045545,0.039853
903,0.038924,0.0288,0.021737
904,0.077367,0.0288,0.057969
905,0.000481,-0.00469,0.076085
906,-0.01874,-0.071669,0.003621
907,-0.01874,-0.138648,-0.068843
908,-0.037962,-0.306097,-0.014495
909,-0.037962,-0.373076,-0.050727
910,-0.037962,-0.272607,-0.050727
911,-0.037962,-0.205628,-0.014495
912,-0.037962,-0.155393,0.003621
913,-0.037962,-0.021435,0.039853
914,-0.01874,0.06229,0.057969
915,-0.01874,0.06229,0.003621
916,-0.01874,0.095779,-0.032611
917,0.038924,0.179503,-0.032611
918,0.038924,0.179503,-0.050727
919,0.058146,0.129269,-0.050727
920,0.019703,0.129269,-0.014495
921,0.058146,0.162759,0.094201
922,0.077367,0.179503,0.039853
923,0.038924,0.079034,0.021737
924,-0.057183,0.045545,-0.032611
925,-0.076405,0.06229,0.003621
926,-0.076405,0.06229,0.003621
927,-0.037962,0.0288,0.057969
928,0.000481,-0.021435,0.039853
929,0.019703,-0.00469,0.057969
930,0.019703,-0.021435,0.003621
931,0.000481,-0.071669,0.021737
932,0.019703,-0.088414,0.003621
933,-0.01874,-0.105159,-0.032611
934,-0.01874,-0.155393,0.021737
935,-0.01874,-0.222372,0.003621
936,-0.01874,-0.188883,0.021737
937,0.000481,-0.121903,0.039853
938,-0.01874,-0.088414,0.057969
939,-0.037962,-0.021435,0.057969
940,-0.057183,0.0288,0.021737
941,-0.057183,0.06229,0.003621
942,-0.057183,0.095779,-0.032611
943,-0.037962,0.045545,-0.014495
944,0.000481,0.0288,-0.050727
945,0.019703,0.06229,-0.014495
946,0.019703,0.06229,0.003621
947,0.038924,0.129269,0.057969
948,0.038924,0.129269,0.057969
949,0.000481,0.112524,0.039853
950,0.038924,0.079034,0.003621
951,0.038924,0.112524,-0.032611
952,0.038924,0.079034,-0.050727
953,0.038924,0.012055,-0.086959
954,0.000481,0.012055,-0.050727
955,0.019703,-0.038179,0.003621
956,0.000481,-0.038179,-0.068843
957,0.000481,-0.038179,-0.032611
958,0.000481,-0.021435,-0.068843
959,0.000481,-0.021435,0.003621
960,-0.01874,-0.054924,0.003621
961,-0.01874,-0.088414,0.003621
962,0.000481,-0.121903,0.039853
963,-0.01874,-0.071669,0.039853
964,-0.037962,-0.054924,0.039853
965,-0.037962,-0.021435,0.003621
966,-0.037962,-0.088414,0.039853
967,0.000481,-0.155393,-0.014495
968,0.038924,-0.172138,-0.014495
969,0.038924,-0.121903,0.003621
970,0.019703,-0.054924,-0.068843
971,0.019703,-0.00469,-0.032611
972,0.000481,0.045545,-0.014495
973,-0.057183,0.146014,-0.014495
974,-0.191734,0.162759,-0.014495
975,-0.095626,0.229738,0.057969
976,0.019703,0.279972,0.076085
977,0.038924,0.179503,0.076085
978,0.096589,0.095779,0.112317
979,0.077367,0.06229,0.076085
980,0.077367,0.095779,0.112317
981,0.058146,0.06229,0.094201
982,0.038924,0.045545,0.003621
983,0.000481,-0.038179,-0.050727
984,-0.057183,-0.071669,-0.141307
985,0.000481,-0.071669,-0.105075
986,0.038924,-0.021435,-0.068843
987,-0.01874,-0.088414,-0.086959
988,-0.01874,-0.038179,-0.068843
989,-0.057183,-0.071669,-0.014495
990,-0.057183,-0.138648,0.003621
991,-0.057183,-0.222372,0.021737
992,-0.076405,-0.239117,0.021737
993,-0.076405,-0.205628,0.003621
994,-0.076405,-0.138648,0.039853
995,-0.057183,-0.105159,0.003621
996,-0.037962,-0.021435,0.003621
997,-0.01874,0.095779,-0.032611
998,0.019703,0.196248,0.003621
999,0.038924,0.296717,-0.032611
1000,0.077367,0.246483,0.021737
1001,0.077367,0.246483,0.057969
1002,0.038924,0.129269,0.021737
1003,-0.01874,0.095779,0.003621
1004,-0.037962,0.0288,-0.032611
1005,0.000481,0.0288,0.003621
1006,0.019703,-0.00469,0.003621
1007,-0.01874,-0.021435,0.003621
1008,0.000481,-0.054924,0.003621
1009,-0.01874,-0.138648,0.003621
1010,-0.01874,-0.105159,0.039853
1011,0.000481,-0.121903,0.003621
1012,-0.01874,-0.121903,0.003621
1013,-0.01874,-0.105159,0.021737
1014,0.000481,-0.038179,-0.014495
1015,0.000481,0.045545,-0.032611
1016,-0.01874,0.095779,0.003621
1017,-0.037962,0.162759,0.021737
1018,0.000481,0.162759,-0.032611
1019,0.019703,0.06229,0.003621
1020,0.019703,0.06229,0.003621
1021,0.000481,0.0288,-0.050727
1022,-0.01874,-0.00469,-0.032611
1023,0.000481,-0.00469,-0.032611
1024,0.019703,-0.038179,0.021737
1025,0.000481,-0.138648,0.021737
1026,0.000481,-0.172138,0.021737
1027,0.019703,-0.138648,0.021737
1028,0.019703,-0.054924,-0.014495
1029,0.000481,-0.038179,0.039853
1030,0.000481,0.0288,-0.068843
1031,0.000481,0.06229,-0.014495
1032,0.000481,0.06229,-0.050727
1033,-0.037962,0.0288,0.021737
1034,0.000481,0.06229,0.039853
1035,-0.01874,0.079034,0.039853
1036,-0.01874,0.0288,0.039853
1037,-0.037962,0.012055,0.021737
1038,-0.037962,-0.054924,-0.050727
1039,-0.01874,-0.054924,-0.050727
1040,-0.01874,-0.054924,0.021737
1041,0.000481,-0.088414,-0.014495
1042,0.038924,-0.054924,0.003621
1043,0.019703,-0.038179,0.021737
1044,0.000481,-0.021435,0.021737
1045,0.000481,0.0288,0.057969
1046,0.019703,0.06229,0.039853
1047,0.019703,0.112524,0.021737
1048,0.000481,0.079034,-0.014495
1049,-0.01874,0.079034,-0.050727
1050,0.019703,0.079034,-0.032611
1051,0.019703,0.079034,0.003621
1052,-0.01874,0.012055,0.039853
1053,0.000481,0.012055,0.003621
1054,0.000481,-0.021435,0.021737
1055,0.000481,-0.021435,0.039853
1056,0.019703,0.012055,0.021737
1057,-0.01874,0.012055,0.021737
1058,-0.01874,0.045545,0.003621
1059,0.000481,0.0288,-0.014495
1060,0.000481,-0.00469,-0.032611
1061,0.000481,-0.00469,0.003621
1062,0.000481,-0.021435,-0.014495
1063,0.000481,-0.00469,-0.032611
1064,0.000481,-0.038179,-0.050727
1065,0.000481,-0.00469,-0.014495
1066,0.000481,-0.00469,0.039853
1067,-0.01874,-0.00469,-0.014495
1068,-0.037962,-0.038179,0.021737
1069,0.000481,-0.021435,0.039853
1070,-0.01874,-0.071669,0.021737
1071,-0.037962,-0.071669,0.003621
1072,-0.037962,-0.054924,-0.014495
1073,-0.037962,-0.021435,-0.014495
1074,-0.01874,-0.00469,-0.050727
1075,-0.01874,0.06229,-0.068843
1076,0.000481,-0.00469,-0.105075
1077,0.000481,0.0288,-0.032611
1078,-0.01874,0.012055,0.003621
1079,0.019703,-0.00469,0.021737
1080,0.019703,0.012055,0.039853
1081,0.000481,0.012055,0.057969
1082,0.019703,-0.00469,0.021737
1083,0.000481,-0.038179,0.003621
1084,-0.037962,-0.038179,-0.050727
1085,-0.01874,-0.021435,-0.050727
1086,-0.01874,-0.021435,0.003621
1087,-0.037962,0.0288,0.039853
1088,0.000481,0.045545,0.003621
1089,0.000481,0.045545,0.057969
1090,-0.01874,0.0288,0.021737
1091,0.019703,0.012055,0.003621
1092,0.000481,0.06229,0.021737
1093,0.019703,0.012055,0.039853
1094,-0.01874,0.012055,-0.032611
1095,0.000481,-0.038179,-0.032611
1096,-0.01874,-0.038179,-0.014495
1097,0.000481,-0.071669,-0.032611
1098,0.000481,-0.105159,0.039853
1099,0.019703,-0.155393,0.003621
1100,0.019703,-0.088414,-0.032611
1101,-0.01874,-0.088414,-0.050727
1102,-0.037962,-0.038179,-0.032611
1103,-0.01874,-0.021435,-0.014495
1104,-0.037962,0.045545,-0.014495
1105,0.000481,-0.021435,0.021737
1106,-0.01874,-0.054924,-0.032611
1107,0.000481,0.012055,0.057969
1108,0.000481,0.012055,0.039853
1109,-0.01874,-0.00469,0.003621
1110,0.000481,-0.00469,0.021737
1111,0.038924,0.0288,0.021737
1112,0.038924,0.079034,0.021737
1113,0.019703,0.045545,0.021737
1114,0.000481,0.079034,0.021737
1115,0.019703,0.129269,0.039853
1116,0.019703,0.162759,0.039853
1117,0.000481,0.196248,0.003621
1118,0.019703,0.179503,-0.050727
1119,0.019703,0.112524,0.021737
1120,0.000481,0.06229,-0.050727
1121,-0.01874,0.06229,0.003621
1122,-0.01874,0.0288,0.039853
1123,0.000481,-0.00469,0.003621
1124,-0.037962,-0.00469,0.039853
1125,0.000481,-0.021435,0.021737
1126,-0.01874,-0.00469,-0.032611
1127,0.019703,0.012055,-0.032611
1128,0.000481,-0.021435,0.003621
1129,0.019703,-0.071669,-0.032611
1130,0.019703,-0.105159,0.003621
1131,-0.01874,-0.054924,0.021737
1132,0.019703,-0.021435,0.003621
1133,0.019703,-0.00469,0.021737
1134,-0.01874,0.045545,-0.014495
1135,0.000481,0.045545,-0.014495
1136,-0.01874,0.079034,-0.014495
1137,0.000481,0.012055,-0.032611
1138,0.000481,-0.00469,0.003621
1139,0.000481,-0.00469,0.003621
1140,0.019703,-0.00469,0.076085
1141,0.000481,-0.00469,0.021737
1142,-0.01874,0.0288,0.057969
1143,0.000481,0.012055,0.021737
1144,-0.01874,0.0288,0.021737
1145,0.000481,-0.00469,0.003621
1146,-0.01874,-0.00469,-0.050727
1147,0.000481,-0.021435,0.003621
1148,0.019703,-0.00469,0.021737
1149,0.019703,-0.021435,0.021737
1150,-0.037962,-0.038179,0.003621
1151,-0.037962,-0.038179,0.094201
1152,-0.037962,-0.021435,-0.032611
1153,-0.01874,-0.00469,0.003621
1154,0.000481,-0.038179,-0.032611
1155,-0.037962,-0.00469,-0.105075
1156,-0.037962,-0.00469,-0.032611
1157,-0.076405,0.0288,-0.050727
1158,-0.057183,-0.00469,0.003621
1159,-0.037962,-0.00469,0.039853
1160,-0.01874,0.012055,0.021737
1161,0.019703,0.012055,0.021737
1162,0.000481,-0.021435,-0.014495
1163,0.000481,-0.021435,0.021737
1164,0.019703,0.045545,0.021737
1165,0.000481,0.012055,0.039853
1166,-0.01874,0.0288,0.039853
1167,-0.01874,0.012055,0.057969
1168,-0.01874,-0.00469,0.039853
1169,0.000481,-0.00469,0.039853
1170,-0.01874,0.012055,0.039853
1171,0.000481,-0.00469,-0.014495
1172,-0.01874,-0.021435,0.039853
1173,0.000481,0.012055,0.003621
1174,-0.01874,-0.021435,-0.014495
1175,-0.01874,-0.054924,0.003621
1176,-0.01874,0.012055,-0.014495
1177,-0.01874,-0.00469,0.039853
1178,-0.01874,-0.00469,-0.068843
1179,0.000481,-0.00469,-0.105075
1180,0.000481,-0.038179,-0.141307
1181,0.019703,-0.021435,-0.068843
1182,0.019703,-0.038179,-0.105075
1183,-0.01874,-0.021435,-0.032611
1184,0.019703,-0.071669,0.021737
1185,0.000481,-0.105159,0.021737
1186,0.000481,-0.038179,0.039853
1187,-0.01874,-0.038179,0.021737
1188,0.000481,-0.054924,-0.014495
1189,-0.01874,-0.00469,-0.014495
1190,-0.01874,0.045545,0.003621
1191,0.000481,0.045545,-0.014495
1192,0.019703,0.079034,0.003621
1193,0.019703,0.079034,0.057969
1194,0.038924,0.045545,0.039853
1195,0.000481,0.012055,0.076085
1196,0.019703,0.045545,0.057969
1197,0.038924,0.045545,0.057969
1198,0.038924,-0.021435,0.039853
1199,0.000481,-0.155393,0.021737
1200,0.000481,-0.088414,0.039853
1201,0.019703,-0.088414,0.003621
1202,0.000481,-0.054924,-0.014495
1203,0.019703,0.0288,-0.050727
1204,0.019703,0.129269,-0.032611
1205,-0.037962,0.129269,-0.032611
1206,0.000481,0.129269,-0.032611
1207,0.038924,0.146014,-0.032611
1208,0.019703,0.095779,0.021737
1209,-0.01874,0.0288,0.021737
1210,0.000481,-0.00469,0.021737
1211,-0.01874,-0.038179,0.039853
1212,0.000481,-0.021435,0.039853
1213,0.019703,0.012055,0.076085
1214,0.000481,0.012055,-0.014495
1215,-0.01874,-0.00469,-0.014495
1216,0.000481,-0.038179,0.003621
1217,0.000481,-0.038179,-0.068843
1218,0.000481,0.0288,-0.014495
1219,0.000481,0.045545,0.003621
1220,-0.01874,0.012055,0.003621
1221,-0.037962,0.012055,0.003621
1222,-0.037962,0.045545,-0.014495
1223,0.000481,0.06229,0.003621
1224,0.019703,0.0288,-0.014495
1225,0.019703,0.045545,-0.050727
1226,-0.01874,0.012055,-0.050727
1227,0.000481,0.012055,0.003621
1228,-0.01874,-0.00469,0.039853
1229,-0.01874,0.012055,0.057969
1230,-0.01874,0.06229,0.076085
1231,0.000481,0.0288,0.057969
1232,0.000481,-0.00469,0.003621
1233,0.000481,-0.00469,0.003621
1234,0.000481,-0.00469,0.003621
1235,-0.01874,0.012055,-0.014495
1236,0.019703,0.0288,0.057969
1237,0.000481,-0.00469,0.039853
1238,0.019703,-0.00469,0.021737
1239,0.000481,-0.021435,0.039853
1240,-0.01874,-0.00469,0.003621
1241,-0.037962,-0.021435,-0.014495
1242,-0.01874,-0.021435,-0.032611
1243,-0.01874,-0.021435,-0.050727
1244,0.000481,-0.00469,0.003621
1245,0.000481,-0.00469,0.021737
1246,-0.01874,-0.00469,0.021737
1247,0.000481,0.012055,0.021737
1248,0.000481,-0.00469,0.039853
1249,0.019703,-0.105159,0.003621
1250,-0.01874,-0.054924,-0.032611
1251,0.000481,-0.054924,0.021737
1252,-0.01874,-0.054924,-0.050727
1253,-0.037962,-0.071669,0.003621
1254,-0.01874,-0.021435,0.039853
1255,0.000481,0.045545,0.021737
1256,-0.037962,0.045545,0.003621
1257,-0.01874,0.129269,0.021737
1258,0.019703,0.162759,-0.014495
1259,0.019703,0.06229,-0.032611
1260,0.019703,0.012055,0.021737
1261,0.019703,-0.021435,-0.014495
1262,0.019703,-0.021435,-0.014495
1263,0.000481,-0.00469,0.003621
1264,0.000481,0.012055,-0.014495
1265,-0.01874,-0.00469,0.003621
1266,-0.01874,0.012055,0.021737
1267,0.019703,0.045545,-0.032611
1268,0.000481,0.06229,-0.050727
1269,0.000481,0.0288,-0.050727
1270,0.000481,0.0288,-0.032611
1271,0.019703,0.0288,-0.032611
1272,0.000481,0.045545,0.003621
1273,0.000481,0.0288,0.021737
1274,0.000481,0.0288,0.039853
1275,0.019703,-0.00469,0.003621
1276,0.000481,-0.021435,0.021737
1277,-0.01874,-0.021435,-0.032611
1278,-0.01874,-0.021435,-0.050727
1279,0.000481,-0.00469,-0.014495
1280,0.019703,0.012055,0.003621
1281,0.019703,-0.00469,0.021737
1282,0.019703,0.0288,0.039853
1283,0.000481,0.045545,0.076085
1284,0.019703,0.012055,0.039853
1285,0.019703,0.012055,0.057969
1286,0.019703,-0.00469,0.057969
1287,0.019703,-0.038179,0.094201
1288,0.000481,-0.038179,0.021737
1289,-0.037962,-0.038179,-0.014495
1290,-0.037962,-0.054924,-0.068843
1291,-0.01874,-0.054924,-0.123191
1292,-0.01874,-0.038179,-0.086959
1293,-0.01874,-0.00469,-0.068843
1294,0.000481,-0.00469,-0.068843
1295,-0.01874,0.0288,-0.050727
1296,0.000481,-0.038179,-0.050727
1297,-0.01874,-0.054924,0.021737
1298,-0.037962,-0.088414,0.021737
1299,0.000481,-0.088414,0.021737
1300,-0.01874,-0.054924,-0.014495
1301,-0.01874,-0.038179,0.003621
1302,-0.01874,0.0288,0.003621
1303,0.000481,0.06229,-0.032611
1304,0.000481,0.045545,0.021737
1305,-0.01874,0.045545,-0.050727
1306,0.019703,0.06229,0.003621
1307,0.000481,0.06229,0.003621
1308,0.019703,0.0288,0.021737
1309,-0.01874,0.06229,0.021737
1310,0.000481,0.045545,0.021737
1311,-0.01874,0.0288,0.003621
1312,-0.01874,0.012055,-0.032611
1313,-0.01874,-0.00469,-0.014495
1314,0.000481,-0.054924,-0.032611
1315,-0.01874,-0.071669,0.021737
1316,0.019703,-0.054924,0.057969
1317,0.000481,-0.038179,0.003621
1318,-0.01874,-0.054924,0.039853
1319,-0.037962,-0.021435,0.003621
1320,-0.01874,0.0288,0.021737
1321,0.019703,0.079034,0.003621
1322,0.000481,0.112524,0.021737
1323,0.000481,0.012055,-0.014495
1324,0.000481,-0.038179,0.021737
1325,-0.01874,-0.071669,0.039853
1326,-0.037962,-0.054924,0.039853
1327,-0.037962,-0.021435,0.003621
1328,-0.037962,0.012055,-0.032611
1329,0.000481,0.079034,-0.032611
1330,-0.01874,0.079034,-0.032611
1331,0.000481,0.0288,-0.032611
1332,0.000481,-0.00469,0.021737
1333,0.000481,-0.054924,0.021737
1334,-0.01874,-0.071669,0.057969
1335,0.019703,-0.038179,0.039853
1336,-0.01874,-0.038179,0.003621
1337,-0.01874,0.06229,0.003621
1338,-0.01874,0.112524,-0.014495
1339,0.019703,0.095779,0.003621
1340,-0.01874,0.0288,-0.050727
1341,0.000481,0.06229,-0.014495
1342,0.000481,0.0288,0.021737
1343,0.000481,0.0288,0.003621
1344,-0.01874,0.012055,0.039853
1345,0.000481,-0.00469,0.021737
1346,0.000481,0.012055,0.021737
1347,-0.01874,0.0288,-0.032611
1348,0.000481,-0.00469,0.021737
1349,0.000481,0.012055,-0.032611
1350,0.019703,-0.038179,0.003621
1351,-0.01874,-0.00469,0.003621
1352,0.019703,-0.00469,0.021737
1353,0.000481,-0.00469,0.039853
1354,0.000481,-0.00469,0.003621
1355,0.000481,-0.038179,-0.032611
1356,0.000481,-0.021435,0.003621
1357,0.000481,0.012055,0.021737
1358,0.000481,0.012055,0.021737
1359,0.019703,0.012055,0.039853
1360,0.000481,-0.00469,0.057969
1361,-0.01874,-0.021435,0.021737
1362,0.000481,-0.021435,0.039853
1363,0.000481,-0.021435,-0.032611
1364,-0.01874,-0.038179,-0.068843
1365,-0.01874,-0.038179,-0.050727
1366,-0.01874,-0.00469,-0.032611
1367,0.019703,-0.00469,0.021737
1368,-0.01874,0.0288,0.057969
1369,-0.037962,0.012055,0.039853
1370,0.000481,-0.00469,-0.014495
1371,-0.01874,0.012055,0.003621
1372,-0.037962,-0.00469,-0.014495
1373,0.000481,0.012055,-0.050727
1374,0.019703,0.012055,-0.014495
1375,-0.01874,-0.021435,-0.014495
1376,-0.01874,-0.00469,0.003621
1377,0.019703,-0.00469,0.021737
1378,0.000481,0.012055,-0.014495
1379,0.000481,-0.021435,0.039853
1380,-0.01874,-0.00469,0.021737
1381,0.019703,0.012055,-0.014495
1382,0.000481,-0.00469,-0.014495
1383,-0.01874,-0.038179,-0.014495
1384,-0.037962,-0.038179,-0.032611
1385,-0.037962,-0.054924,0.039853
1386,0.000481,-0.021435,0.076085
1387,-0.01874,-0.021435,0.021737
1388,0.000481,-0.021435,0.057969
1389,0.000481,0.012055,0.003621
1390,0.019703,0.0288,-0.050727
1391,-0.01874,0.012055,-0.068843
1392,0.000481,-0.021435,-0.050727
1393,0.000481,-0.00469,-0.050727
1394,0.000481,-0.00469,-0.032611
1395,0.019703,-0.00469,0.003621
1396,0.038924,0.012055,-0.032611
1397,0.019703,0.012055,0.021737
1398,0.000481,0.045545,0.039853
1399,0.000481,0.012055,-0.032611
1400,0.000481,-0.038179,0.021737
1401,0.000481,-0.038179,-0.014495
1402,0.000481,-0.038179,0.039853
1403,0.000481,-0.021435,0.057969
1404,-0.01874,-0.021435,0.003621
1405,0.000481,0.012055,-0.014495
1406,0.019703,0.045545,0.003621
1407,0.000481,0.045545,0.003621
1408,-0.037962,0.079034,-0.050727
1409,0.019703,0.095779,0.003621
1410,0.000481,0.06229,-0.014495
1411,0.019703,0.045545,0.003621
1412,0.019703,0.0288,0.039853
1413,-0.01874,-0.00469,0.003621
1414,-0.01874,-0.00469,-0.014495
1415,0.000481,-0.105159,-0.014495
1416,0.000481,-0.138648,-0.014495
1417,0.000481,-0.121903,-0.050727
1418,-0.01874,-0.105159,-0.014495
1419,-0.01874,-0.038179,-0.050727
1420,-0.037962,0.012055,-0.014495
1421,-0.01874,0.0288,0.021737
1422,-0.01874,0.045545,0.003621
1423,0.000481,0.079034,0.039853
1424,0.019703,0.095779,-0.014495
1425,0.000481,0.045545,-0.014495
1426,-0.01874,-0.00469,-0.014495
1427,0.000481,-0.00469,0.094201
1428,0.019703,0.0288,0.021737
1429,0.000481,0.0288,0.039853
1430,0.000481,0.045545,0.057969
1431,0.019703,0.079034,0.003621
1432,0.000481,0.045545,0.021737
1433,0.000481,0.06229,0.003621
1434,0.000481,0.012055,-0.014495
1435,0.000481,-0.021435,0.021737
1436,-0.01874,-0.021435,0.039853
1437,-0.01874,-0.021435,0.021737
1438,-0.01874,-0.021435,0.003621
1439,-0.01874,-0.021435,0.021737
1440,-0.01874,0.012055,0.003621
1441,0.000481,-0.00469,0.021737
1442,0.000481,0.012055,0.021737
1443,0.000481,-0.00469,-0.032611
1444,0.000481,0.012055,0.003621
1445,0.000481,-0.00469,-0.014495
1446,0.019703,0.012055,0.003621
1447,0.000481,-0.021435,0.039853
1448,0.000481,0.012055,-0.014495
1449,-0.01874,-0.00469,-0.014495
1450,-0.01874,-0.00469,0.003621
1451,-0.01874,-0.00469,-0.014495
1452,0.000481,0.012055,-0.032611
1453,0.000481,-0.00469,0.021737
1454,-0.037962,-0.00469,0.021737
1455,-0.01874,0.012055,0.057969
1456,0.000481,-0.00469,0.057969
1457,0.019703,-0.038179,-0.014495
1458,-0.01874,-0.00469,0.003621
1459,0.000481,-0.021435,0.003621
1460,-0.01874,-0.00469,-0.032611
1461,-0.037962,-0.00469,-0.050727
1462,-0.01874,0.012055,-0.032611
1463,-0.01874,-0.00469,-0.068843
1464,0.000481,-0.021435,-0.050727
1465,0.000481,-0.00469,0.039853
1466,-0.01874,-0.00469,-0.032611
1467,0.019703,0.012055,0.003621
1468,0.000481,-0.00469,-0.050727
1469,0.000481,-0.00469,0.003621
1470,0.000481,0.0288,0.003621
1471,0.019703,0.012055,0.039853
1472,0.000481,-0.00469,0.057969
1473,0.000481,-0.00469,0.057969
1474,0.000481,-0.021435,0.094201
1475,0.000481,-0.00469,0.076085
1476,0.000481,0.0288,0.076085
1477,-0.01874,0.012055,0.021737
1478,-0.01874,-0.021435,-0.050727
1479,-0.01874,-0.021435,-0.068843
1480,-0.01874,-0.054924,-0.086959
1481,0.019703,-0.054924,-0.086959
1482,-0.01874,-0.038179,-0.050727
1483,0.000481,-0.00469,-0.014495
1484,0.019703,-0.00469,-0.014495
1485,-0.01874,-0.00469,-0.032611
1486,0.000481,-0.00469,-0.014495
1487,0.000481,-0.021435,-0.050727
1488,0.000481,0.012055,0.003621
1489,0.000481,0.045545,-0.014495
1490,0.019703,0.012055,0.021737
1491,0.000481,-0.038179,0.021737
1492,0.000481,-0.00469,-0.032611
1493,-0.01874,-0.00469,-0.014495
1494,0.019703,0.012055,0.021737
1495,-0.01874,-0.00469,0.039853
1496,0.019703,0.012055,0.003621
1497,0.019703,0.012055,0.021737
1498,-0.01874,-0.00469,-0.032611
1499,0.000481,-0.00469,0.021737
1500,0.000481,0.0288,0.039853
1501,0.000481,-0.038179,-0.032611
1502,-0.01874,-0.00469,-0.050727
1503,0.000481,-0.00469,0.003621
1504,0.019703,-0.00469,-0.014495
1505,0.000481,0.0288,0.003621
1506,-0.037962,0.0288,0.021737
1507,-0.01874,-0.021435,0.021737
1508,-0.01874,0.0288,0.039853
1509,0.000481,0.0288,0.039853
1510,0.000481,0.012055,0.003621
1511,-0.01874,-0.021435,0.039853
1512,0.000481,-0.00469,0.021737
1513,-0.01874,-0.038179,-0.014495
1514,-0.01874,-0.00469,-0.014495
1515,0.000481,-0.00469,0.021737
1516,-0.01874,0.0288,0.021737
1517,0.000481,-0.00469,0.021737
1518,-0.01874,-0.021435,0.039853
1519,-0.01874,0.012055,0.003621
1520,0.000481,-0.00469,0.039853
1521,-0.01874,-0.021435,0.021737
1522,0.000481,-0.00469,-0.050727
1523,-0.01874,-0.038179,-0.050727
1524,0.000481,-0.021435,-0.032611
1525,-0.01874,0.012055,-0.032611
1526,-0.037962,-0.00469,0.021737
1527,0.019703,-0.00469,0.057969
1528,0.000481,-0.00469,0.021737
1529,0.019703,0.012055,0.039853
1530,0.019703,0.0288,0.039853
1531,0.000481,0.012055,0.021737
1532,0.000481,0.012055,0.039853
1533,-0.01874,0.0288,-0.032611
1534,0.000481,0.012055,0.039853
1535,0.000481,0.012055,0.039853
1536,-0.01874,-0.021435,0.003621
1537,-0.01874,0.0288,-0.014495
1538,-0.037962,-0.00469,0.021737
1539,0.000481,0.045545,-0.014495
1540,-0.037962,-0.00469,-0.032611
1541,0.000481,-0.021435,-0.032611
1542,0.000481,-0.00469,-0.032611
1543,0.000481,0.0288,0.021737
1544,0.000481,0.012055,0.057969
1545,0.000481,0.012055,-0.050727
1546,0.000481,-0.021435,-0.014495
1547,-0.01874,-0.00469,0.003621
1548,0.000481,-0.00469,-0.014495
1549,-0.01874,-0.00469,-0.032611
1550,-0.037962,0.012055,0.057969
1551,-0.01874,-0.00469,-0.014495
1552,0.000481,-0.021435,0.003621
1553,0.019703,0.012055,0.021737
1554,0.019703,0.0288,0.021737
1555,0.000481,-0.021435,-0.014495
1556,0.000481,-0.00469,-0.032611
1557,-0.01874,-0.021435,0.003621
1558,-0.01874,0.0288,0.021737
1559,-0.037962,0.012055,0.094201
1560,-0.01874,-0.021435,0.003621
1561,0.019703,-0.00469,0.003621
1562,0.019703,0.012055,-0.014495
1563,0.019703,-0.00469,-0.086959
1564,0.038924,0.045545,-0.014495
1565,0.019703,-0.00469,-0.050727
1566,-0.01874,-0.00469,-0.050727
1567,0.000481,0.012055,0.003621
1568,-0.01874,0.0288,0.021737
1569,0.019703,0.045545,0.021737
1570,0.000481,0.045545,0.094201
1571,-0.01874,0.0288,0.021737
1572,-0.01874,0.012055,0.003621
1573,0.000481,0.012055,-0.032611
1574,0.000481,0.012055,-0.032611
1575,0.038924,-0.00469,-0.068843
1576,-0.01874,-0.00469,-0.050727
1577,-0.037962,0.012055,-0.014495
1578,-0.01874,-0.00469,0.057969
1579,-0.01874,-0.00469,0.057969
1580,-0.037962,-0.021435,0.021737
1581,-0.01874,-0.021435,-0.032611
1582,0.019703,0.012055,-0.014495
1583,-0.01874,-0.021435,-0.032611
1584,-0.01874,0.0288,0.003621
1585,0.000481,-0.00469,0.021737
1586,0.000481,-0.00469,0.021737
1587,0.000481,-0.021435,0.003621
1588,-0.01874,0.012055,0.003621
1589,0.000481,0.012055,0.003621
1590,0.000481,0.0288,-0.014495
1591,-0.01874,-0.00469,0.003621
1592,0.000481,0.012055,-0.014495
1593,0.019703,0.012055,0.039853
1594,0.000481,0.012055,0.039853
1595,0.000481,0.045545,-0.014495
1596,-0.01874,0.0288,0.039853
1597,-0.01874,0.012055,-0.014495
1598,-0.01874,0.012055,-0.032611
1599,0.000481,0.012055,0.003621
1600,0.058146,0.012055,-0.014495
1601,0.019703,-0.00469,-0.032611
1602,0.019703,-0.00469,0.003621
1603,0.019703,-0.00469,0.057969
1604,0.019703,-0.021435,0.039853
1605,0.019703,-0.00469,0.039853
1606,0.019703,0.012055,-0.014495
1607,-0.01874,-0.021435,-0.050727
1608,0.000481,0.012055,-0.014495
1609,0.019703,-0.021435,-0.014495
1610,0.019703,0.012055,0.021737
1611,0.019703,0.0288,0.021737
1612,-0.01874,0.012055,-0.032611
1613,-0.037962,0.0288,0.021737
1614,-0.057183,-0.00469,0.021737
1615,-0.037962,-0.038179,0.003621
1616,0.000481,-0.00469,-0.032611
1617,-0.01874,-0.00469,-0.014495
1618,-0.01874,0.012055,-0.050727
1619,-0.037962,-0.00469,-0.014495
1620,-0.01874,0.0288,0.003621
1621,-0.057183,-0.021435,-0.014495
1622,-0.01874,-0.00469,0.003621
1623,-0.037962,-0.00469,0.003621
1624,0.000481,-0.00469,-0.050727
1625,-0.01874,-0.021435,-0.050727
1626,0.000481,0.012055,-0.014495
1627,-0.01874,0.012055,-0.032611
1628,-0.01874,0.012055,0.021737
1629,0.000481,0.012055,0.057969
1630,0.019703,0.0288,0.039853
1631,0.019703,0.0288,0.057969
1632,-0.01874,0.0288,-0.014495
1633,-0.01874,0.012055,-0.014495
1634,0.000481,0.012055,-0.014495
1635,-0.01874,0.012055,0.003621
1636,-0.037962,-0.00469,0.003621
1637,-0.01874,0.012055,0.003621
1638,-0.037962,-0.021435,0.003621
1639,-0.01874,-0.00469,0.003621
1640,0.000481,-0.00469,0.039853
1641,-0.01874,0.012055,0.003621
1642,-0.01874,0.012055,-0.014495
1643,-0.037962,0.0288,0.021737
1644,-0.01874,0.0288,0.003621
1645,-0.037962,0.0288,0.021737
1646,-0.037962,0.012055,0.076085
1647,-0.037962,-0.00469,0.039853
1648,-0.01874,-0.00469,0.039853
1649,0.000481,0.012055,0.021737
1650,0.000481,0.0288,0.003621
1651,0.019703,0.012055,-0.032611
1652,0.019703,0.012055,-0.014495
1653,0.000481,-0.021435,0.003621
1654,0.000481,-0.00469,0.003621
1655,0.000481,0.045545,-0.014495
1656,0.038924,0.012055,0.003621
1657,0.019703,-0.00469,0.021737
1658,0.038924,-0.00469,0.021737
1659,0.000481,-0.00469,-0.032611
1660,0.000481,0.0288,-0.014495
1661,0.019703,0.012055,-0.014495
1662,0.019703,-0.00469,-0.050727
1663,0.019703,0.012055,-0.014495
1664,0.000481,-0.00469,0.021737
1665,0.019703,-0.00469,-0.032611
1666,0.000481,-0.00469,0.003621
1667,0.019703,0.012055,-0.014495
1668,0.000481,-0.00469,-0.050727
1669,-0.01874,-0.00469,-0.032611
1670,-0.01874,-0.00469,-0.014495
1671,0.000481,-0.021435,-0.032611
1672,-0.01874,0.012055,0.003621
1673,-0.01874,0.012055,0.021737
1674,-0.037962,-0.021435,0.003621
1675,-0.037962,-0.00469,0.021737
1676,-0.037962,-0.00469,0.021737
1677,-0.01874,0.012055,-0.014495
1678,0.000481,0.012055,0.003621
1679,-0.037962,0.012055,0.003621
1680,-0.01874,0.012055,0.003621
1681,-0.01874,-0.00469,-0.014495
1682,0.000481,0.012055,0.057969
1683,0.019703,0.0288,0.021737
1684,0.000481,0.0288,0.039853
1685,-0.01874,-0.00469,0.003621
1686,-0.01874,-0.00469,-0.050727
1687,-0.037962,0.012055,0.039853
1688,0.000481,-0.021435,-0.014495
1689,-0.01874,-0.038179,0.021737
1690,-0.01874,0.0288,-0.050727
1691,-0.01874,0.012055,0.021737
1692,-0.01874,-0.00469,-0.014495
1693,-0.01874,-0.00469,-0.032611
1694,-0.01874,0.012055,-0.068843
1695,0.000481,-0.00469,-0.068843
1696,0.019703,0.012055,0.003621
1697,0.019703,0.012055,-0.014495
1698,0.000481,-0.00469,-0.032611
1699,0.000481,0.012055,0.021737
1700,0.000481,0.012055,0.021737
1701,0.019703,-0.00469,0.021737
1702,0.000481,0.012055,0.003621
1703,-0.01874,0.012055,-0.032611
1704,-0.01874,-0.00469,-0.014495
1705,0.000481,0.012055,0.021737
1706,-0.01874,-0.00469,-0.032611
1707,-0.01874,0.012055,0.021737
1708,-0.01874,-0.00469,0.094201
1709,-0.037962,-0.00469,0.021737
1710,-0.01874,-0.00469,0.021737
1711,-0.01874,-0.00469,0.039853
1712,0.000481,-0.00469,0.003621
1713,0.000481,0.0288,-0.014495
1714,0.019703,-0.021435,-0.014495
1715,-0.01874,0.0288,-0.014495
1716,-0.057183,0.012055,0.003621
1717,-0.057183,-0.00469,0.021737
1718,-0.037962,0.012055,0.003621
1719,-0.037962,0.012055,0.021737
1720,-0.057183,-0.00469,-0.032611
1721,-0.057183,-0.00469,-0.050727
1722,-0.01874,0.012055,0.021737
1723,0.019703,-0.021435,0.003621
1724,0.000481,0.012055,-0.014495
1725,0.038924,0.012055,0.057969
1726,0.038924,0.012055,0.057969
1727,0.038924,0.0288,0.039853
1728,0.038924,-0.00469,0.057969
1729,0.096589,-0.00469,0.021737
1730,0.058146,0.012055,0.021737
1731,0.019703,0.012055,-0.014495
1732,0.019703,0.0288,-0.014495
1733,0.000481,0.012055,-0.014495
1734,0.000481,-0.021435,0.021737
1735,0.019703,0.0288,0.003621
1736,-0.01874,-0.00469,0.039853
1737,-0.01874,-0.00469,0.021737
1738,-0.01874,0.012055,0.021737
1739,-0.01874,-0.021435,-0.032611
1740,-0.01874,-0.00469,0.021737
1741,-0.01874,-0.00469,-0.014495
1742,-0.037962,-0.00469,0.003621
1743,-0.01874,-0.00469,0.094201
1744,-0.01874,-0.021435,0.057969
1745,0.000481,-0.00469,0.076085
1746,-0.01874,0.045545,0.076085
1747,0.019703,0.012055,0.039853
1748,0.019703,0.012055,-0.032611
1749,0.019703,0.0288,-0.014495
1750,0.019703,0.0288,-0.050727
1751,-0.01874,0.012055,0.003621
1752,-0.01874,0.0288,0.003621
1753,0.000481,-0.00469,0.003621
1754,-0.01874,-0.00469,0.003621
1755,0.000481,-0.00469,0.003621
1756,-0.01874,-0.00469,-0.032611
1757,0.000481,-0.038179,-0.014495
1758,-0.01874,-0.038179,-0.014495
1759,0.000481,-0.00469,0.003621
1760,0.000481,0.079034,0.039853
1761,-0.037962,-0.00469,0.076085
1762,-0.076405,-0.00469,0.021737
1763,-0.01874,-0.00469,0.039853
1764,-0.01874,0.012055,-0.014495
1765,0.019703,0.012055,0.003621
1766,0.000481,-0.00469,0.039853
1767,-0.01874,-0.00469,-0.032611
1768,-0.01874,0.012055,0.039853
1769,-0.01874,0.012055,0.039853
1770,-0.01874,-0.021435,0.039853
1771,-0.037962,0.012055,0.021737
1772,-0.037962,-0.00469,0.039853
1773,-0.057183,-0.021435,-0.050727
1774,-0.057183,-0.021435,-0.068843
1775,-0.037962,-0.00469,-0.050727
1776,-0.01874,-0.00469,-0.086959
1777,-0.01874,-0.00469,-0.050727
1778,-0.01874,-0.00469,0.021737
1779,-0.01874,-0.021435,-0.014495
1780,-0.01874,-0.021435,-0.014495
1781,-0.037962,-0.00469,0.003621
1782,-0.01874,-0.021435,-0.032611
1783,0.000481,-0.021435,-0.032611
1784,-0.037962,-0.00469,-0.014495
1785,-0.057183,-0.00469,0.003621
1786,0.000481,0.012055,0.076085
1787,0.000481,0.012055,0.057969
1788,0.000481,-0.00469,0.039853
1789,-0.01874,-0.00469,0.057969
1790,0.000481,-0.021435,0.057969
1791,0.000481,0.012055,0.003621
1792,-0.01874,-0.00469,0.003621
1793,0.000481,0.012055,-0.014495
1794,0.019703,0.012055,0.003621
1795,0.019703,0.012055,0.021737
1796,0.000481,0.012055,0.039853
1797,-0.01874,0.0288,0.021737
1798,0.000481,0.012055,0.021737
1799,0.000481,0.0288,-0.032611
1800,0.000481,-0.00469,0.003621
1801,-0.01874,-0.00469,0.021737
1802,-0.01874,-0.00469,-0.014495
1803,-0.01874,0.012055,-0.014495
1804,-0.01874,-0.00469,0.021737
1805,-0.01874,0.012055,0.003621
1806,-0.01874,0.012055,0.021737
1807,-0.037962,-0.00469,0.039853
1808,-0.01874,-0.00469,0.003621
1809,0.019703,-0.00469,-0.032611
1810,-0.01874,-0.00469,-0.014495
1811,0.000481,0.012055,-0.032611
1812,0.000481,-0.00469,-0.014495
1813,0.000481,-0.00469,0.003621
1814,0.019703,0.012055,0.039853
1815,0.019703,-0.00469,0.021737
1816,0.000481,-0.00469,0.003621
1817,0.000481,-0.00469,-0.032611
1818,-0.01874,-0.00469,-0.050727
1819,-0.01874,-0.021435,0.003621
1820,-0.037962,-0.021435,-0.032611
1821,0.000481,-0.00469,0.021737
1822,0.000481,-0.021435,0.039853
1823,0.019703,-0.038179,-0.014495
1824,-0.01874,-0.021435,0.021737
1825,0.000481,0.012055,0.003621
1826,0.000481,-0.00469,0.003621
1827,-0.01874,-0.00469,-0.014495
1828,-0.01874,-0.00469,-0.014495
1829,-0.01874,0.012055,-0.014495
1830,0.000481,-0.00469,0.003621
1831,-0.01874,-0.00469,0.021737
1832,-0.01874,-0.00469,0.003621
1833,-0.01874,0.012055,0.021737
1834,0.000481,-0.00469,-0.014495
1835,-0.01874,-0.00469,0.003621
1836,-0.037962,0.012055,-0.032611
1837,-0.01874,-0.00469,-0.050727
1838,-0.057183,-0.021435,-0.050727
1839,-0.037962,-0.00469,-0.032611
1840,-0.01874,-0.021435,0.003621
1841,-0.01874,0.0288,-0.014495
1842,-0.01874,-0.021435,0.057969
1843,-0.01874,0.012055,0.003621
1844,-0.01874,-0.00469,-0.032611
1845,-0.037962,-0.00469,-0.014495
1846,-0.057183,-0.00469,-0.014495
1847,0.000481,-0.00469,0.003621
1848,-0.01874,0.0288,0.021737
1849,-0.01874,0.012055,0.039853
1850,0.000481,0.012055,-0.032611
1851,-0.01874,0.012055,0.003621
1852,-0.01874,-0.00469,0.003621
1853,-0.01874,-0.00469,-0.014495
1854,-0.01874,-0.00469,0.003621
1855,-0.01874,-0.00469,-0.050727
1856,-0.037962,-0.00469,0.021737
1857,-0.037962,-0.00469,0.039853
1858,-0.01874,-0.021435,0.021737
1859,-0.01874,0.012055,0.021737
1860,-0.01874,0.012055,-0.014495
1861,0.000481,-0.00469,0.003621
1862,-0.01874,-0.00469,-0.032611
1863,-0.01874,0.012055,0.021737
1864,-0.01874,-0.021435,-0.014495
1865,0.019703,0.012055,0.021737
1866,0.019703,0.012055,0.039853
1867,0.000481,-0.021435,0.039853
1868,-0.01874,-0.00469,0.003621
1869,-0.01874,-0.00469,-0.014495
1870,0.000481,0.012055,0.003621
1871,0.000481,0.012055,-0.050727
1872,0.000481,0.012055,-0.050727
1873,-0.01874,0.0288,-0.068843
1874,0.000481,-0.00469,0.021737
1875,-0.01874,0.012055,0.003621
1876,-0.01874,-0.00469,0.003621
1877,0.000481,-0.00469,0.039853
1878,-0.037962,0.012055,-0.014495
1879,-0.01874,0.012055,-0.014495
1880,-0.01874,-0.00469,-0.032611
1881,-0.01874,-0.021435,-0.014495
1882,-0.01874,-0.00469,-0.032611
1883,0.000481,0.012055,0.003621
1884,0.019703,0.012055,0.021737
1885,0.019703,-0.021435,0.003621
1886,0.019703,-0.00469,0.039853
1887,0.000481,-0.00469,-0.014495
1888,0.000481,0.012055,-0.014495
1889,-0.037962,-0.00469,0.003621
1890,-0.01874,0.012055,-0.032611
1891,-0.01874,0.012055,0.003621
1892,-0.01874,-0.00469,0.039853
1893,0.000481,0.012055,0.039853
1894,0.019703,0.012055,0.021737
1895,-0.01874,0.012055,0.021737
1896,-0.01874,0.012055,0.003621
1897,0.019703,0.012055,0.003621
1898,-0.01874,0.012055,0.021737
1899,0.000481,0.012055,-0.014495
1900,-0.01874,0.012055,0.003621
1901,0.000481,0.012055,0.039853
1902,0.096589,0.012055,0.057969
1903,0.000481,0.012055,0.039853
1904,-0.01874,0.0288,0.039853
1905,-0.01874,-0.00469,0.003621
1906,0.000481,-0.00469,-0.032611
1907,0.019703,0.012055,0.039853
1908,0.000481,0.012055,-0.014495
1909,0.000481,-0.021435,0.057969
1910,-0.01874,0.012055,0.057969
1911,0.019703,-0.00469,0.021737
1912,0.000481,-0.00469,0.039853
1913,0.019703,-0.00469,0.003621
1914,0.038924,-0.00469,0.021737
1915,0.038924,0.0288,0.003621
1916,0.019703,0.012055,0.021737
1917,0.019703,-0.00469,-0.014495
1918,0.000481,-0.00469,0.021737
1919,0.000481,-0.021435,0.021737
1920,0.000481,-0.038179,0.021737
1921,0.019703,-0.00469,0.039853
1922,0.019703,-0.00469,0.021737
1923,0.000481,-0.00469,0.003621
1924,0.000481,-0.021435,-0.014495
1925,0.019703,-0.021435,-0.014495
1926,0.000481,-0.021435,0.003621
1927,0.038924,0.012055,0.021737
1928,0.000481,0.012055,0.039853
1929,0.000481,0.012055,0.021737
1930,0.038924,-0.038179,0.021737
1931,0.000481,-0.021435,-0.014495
1932,0.019703,-0.00469,-0.032611
1933,0.019703,0.012055,0.021737
1934,0.000481,0.012055,-0.014495
1935,0.000481,0.045545,0.003621
1936,0.000481,0.0288,0.003621
1937,-0.037962,0.012055,0.021737
1938,-0.01874,-0.00469,0.021737
1939,-0.01874,-0.00469,0.003621
1940,-0.01874,-0.00469,-0.014495
1941,0.019703,-0.00469,-0.032611
1942,0.000481,-0.054924,-0.032611
1943,0.000481,0.045545,-0.032611
1944,0.000481,0.012055,-0.014495
1945,-0.01874,0.012055,0.003621
1946,-0.01874,-0.00469,0.003621
1947,-0.01874,0.0288,0.003621
1948,-0.01874,0.012055,0.021737
1949,-0.01874,0.079034,-0.014495
1950,0.000481,0.0288,-0.050727
1951,0.000481,0.012055,-0.032611
1952,-0.01874,0.0288,-0.032611
1953,0.000481,-0.021435,-0.014495
1954,-0.01874,-0.00469,0.021737
1955,-0.01874,0.06229,-0.014495
1956,-0.01874,-0.00469,0.003621
1957,0.000481,0.012055,-0.014495
1958,-0.037962,-0.00469,-0.050727
1959,-0.01874,0.0288,-0.014495
1960,0.000481,0.012055,-0.032611
1961,-0.01874,0.0288,-0.032611
1962,-0.01874,0.012055,-0.014495
1963,0.019703,0.012055,0.021737
1964,0.000481,-0.00469,-0.032611
1965,-0.037962,-0.00469,-0.032611
1966,-0.01874,-0.00469,-0.032611
1967,-0.01874,0.012055,-0.068843
1968,0.000481,-0.00469,-0.032611
1969,0.000481,0.012055,-0.050727
1970,-0.037962,0.012055,-0.014495
1971,0.000481,0.012055,0.039853
1972,0.000481,0.012055,-0.014495
1973,-0.01874,-0.021435,-0.032611
1974,0.000481,0.0288,-0.032611
1975,0.000481,0.012055,-0.050727
1976,-0.01874,-0.00469,-0.032611
1977,0.000481,0.012055,-0.014495
1978,-0.01874,-0.00469,-0.050727
1979,0.000481,-0.00469,-0.050727
1980,-0.01874,0.012055,0.021737
1981,-0.037962,-0.021435,-0.032611
1982,-0.01874,-0.00469,0.003621
1983,0.000481,-0.00469,-0.032611
1984,0.000481,0.012055,-0.050727
1985,0.019703,0.012055,0.003621
1986,0.000481,-0.021435,0.003621
1987,0.019703,-0.021435,-0.014495
1988,0.019703,-0.00469,-0.032611
1989,0.000481,-0.00469,-0.014495
1990,0.000481,-0.021435,-0.032611
1991,0.019703,0.012055,-0.014495
1992,-0.037962,0.012055,-0.050727
1993,-0.01874,-0.00469,-0.068843
1994,-0.01874,-0.00469,0.021737
1995,-0.01874,-0.00469,-0.032611
1996,0.000481,0.012055,0.003621
1997,-0.01874,-0.00469,0.021737
1998,0.038924,0.012055,-0.014495
1999,0.000481,0.012055,-0.032611
2000,0.019703,-0.021435,-0.050727
2001,0.000481,-0.00469,-0.032611
2002,0.000481,0.012055,-0.050727
2003,-0.037962,-0.00469,0.003621
2004,-0.01874,-0.00469,-0.032611
2005,0.000481,0.012055,-0.032611
2006,-0.01874,-0.021435,0.003621
2007,0.000481,0.012055,-0.032611
2008,-0.01874,-0.021435,-0.014495
2009,0.000481,0.0288,-0.032611
2010,0.019703,0.012055,-0.032611
2011,0.038924,0.012055,-0.014495
2012,0.019703,-0.00469,0.039853
2013,0.019703,0.012055,-0.032611
2014,0.019703,0.012055,0.021737
2015,-0.01874,-0.021435,0.021737
2016,-0.01874,0.012055,-0.014495
2017,-0.01874,-0.00469,-0.014495
2018,0.000481,0.012055,-0.032611
2019,0.000481,0.0288,-0.014495
2020,0.000481,-0.00469,-0.014495
2021,0.000481,0.0288,-0.014495
2022,0.019703,-0.021435,-0.014495
2023,0.019703,0.0288,0.003621
2024,0.019703,0.012055,-0.014495
2025,0.019703,-0.00469,-0.032611
2026,0.019703,0.0288,0.021737
2027,0.000481,0.0288,-0.032611
2028,0.000481,0.0288,-0.050727
2029,-0.037962,0.0288,0.003621
2030,0.000481,-0.00469,0.039853
2031,-0.01874,0.012055,-0.050727
2032,0.000481,0.012055,0.003621
2033,0.038924,0.012055,0.003621
2034,0.000481,0.0288,0.003621
2035,0.000481,-0.038179,0.003621
2036,-0.01874,0.012055,-0.014495
2037,0.000481,-0.00469,-0.032611
2038,-0.037962,-0.00469,0.021737
2039,0.000481,-0.00469,-0.032611
2040,-0.01874,0.012055,0.021737
2041,-0.01874,-0.021435,-0.014495
2042,0.000481,-0.00469,0.003621
2043,0.000481,-0.00469,-0.032611
2044,0.000481,-0.00469,0.039853
2045,0.000481,0.012055,0.003621
2046,0.019703,0.045545,-0.014495
2047,0.019703,-0.00469,-0.014495
2048,0.019703,0.012055,0.003621
2049,0.019703,0.0288,0.003621
2050,0.019703,-0.00469,0.021737
2051,0.019703,-0.021435,-0.014495
2052,0.000481,-0.021435,-0.032611
2053,0.019703,-0.00469,-0.014495
2054,0.000481,0.012055,-0.050727
2055,0.000481,-0.021435,-0.050727
2056,0.019703,0.012055,0.039853
2057,0.019703,-0.00469,-0.032611
2058,0.000481,0.012055,0.003621
2059,0.019703,0.012055,0.003621
2060,0.000481,-0.00469,0.003621
2061,-0.01874,-0.00469,0.039853
2062,-0.01874,0.012055,0.021737
2063,-0.01874,0.012055,-0.014495
2064,0.019703,0.012055,0.021737
2065,0.000481,-0.00469,0.021737
2066,0.000481,-0.00469,0.003621
2067,0.000481,-0.038179,0.021737
2068,0.000481,-0.00469,0.003621
2069,-0.01874,0.012055,-0.050727
2070,0.000481,-0.00469,0.003621
2071,-0.01874,-0.00469,-0.014495
2072,0.000481,-0.00469,-0.014495
2073,0.000481,0.012055,-0.032611
2074,0.000481,-0.00469,0.021737
2075,0.019703,0.012055,-0.014495
2076,-0.01874,0.012055,0.021737
2077,-0.01874,-0.00469,-0.014495
2078,0.000481,-0.00469,-0.032611
2079,0.000481,0.012055,0.003621
2080,0.000481,-0.00469,-0.014495
2081,0.019703,-0.021435,-0.050727
2082,0.019703,-0.00469,-0.014495
2083,-0.01874,0.012055,-0.032611
2084,0.000481,-0.00469,0.021737
2085,0.019703,0.012055,0.021737
2086,0.000481,0.012055,0.003621
2087,0.000481,0.012055,-0.050727
2088,-0.037962,0.012055,-0.032611
2089,-0.01874,-0.021435,-0.032611
2090,0.000481,-0.00469,-0.014495
2091,-0.01874,0.0288,0.021737
2092,-0.01874,-0.021435,-0.014495
2093,0.000481,0.0288,0.003621
2094,0.019703,-0.00469,0.003621
2095,-0.01874,0.012055,0.021737
2096,0.019703,-0.00469,-0.050727
2097,0.019703,0.012055,-0.014495
2098,0.000481,0.012055,-0.050727
2099,0.000481,0.012055,-0.014495
2100,0.019703,-0.00469,0.021737
2101,-0.01874,-0.00469,-0.014495
2102,-0.01874,-0.00469,0.021737
2103,0.019703,0.0288,0.003621
2104,0.000481,0.012055,-0.050727
2105,0.000481,0.012055,-0.050727
2106,-0.01874,0.012055,-0.014495
2107,-0.037962,-0.00469,-0.032611
2108,-0.01874,0.012055,-0.014495
2109,-0.01874,0.0288,0.003621
2110,-0.01874,-0.00469,0.003621
2111,0.038924,-0.00469,0.021737
2112,0.058146,-0.00469,0.021737
2113,0.019703,0.0288,-0.014495
2114,-0.057183,0.0288,-0.014495
2115,-0.076405,0.0288,-0.032611
2116,-0.057183,0.012055,-0.014495
2117,-0.114848,-0.00469,0.003621
2118,-0.057183,-0.00469,0.003621
2119,0.019703,-0.038179,0.003621
2120,0.038924,-0.021435,0.003621
2121,0.077367,0.0288,-0.014495
2122,0.077367,0.0288,-0.050727
2123,0.058146,0.012055,0.003621
2124,0.058146,-0.00469,-0.032611
2125,0.019703,0.012055,0.021737
2126,0.038924,0.012055,0.021737
2127,0.019703,0.0288,-0.032611
2128,-0.01874,0.045545,0.003621
2129,0.058146,-0.021435,0.021737
2130,0.096589,-0.00469,-0.014495
2131,0.154253,-0.00469,-0.032611
2132,0.173475,0.0288,-0.014495
2133,0.096589,0.0288,-0.068843
2134,0.038924,0.0288,0.003621
2135,-0.134069,-0.021435,-0.032611
2136,-0.249399,-0.038179,-0.032611
2137,-0.153291,-0.021435,0.021737
2138,-0.01874,-0.00469,-0.014495
2139,-0.01874,-0.00469,-0.032611
2140,-0.037962,0.045545,-0.032611
2141,-0.01874,0.012055,0.003621
2142,-0.01874,0.0288,-0.032611
2143,-0.01874,0.012055,0.003621
2144,-0.01874,0.0288,0.003621
2145,0.000481,0.012055,0.003621
2146,-0.01874,-0.021435,0.039853
2147,-0.01874,-0.00469,-0.014495
2148,-0.037962,0.012055,-0.032611
2149,-0.037962,-0.00469,0.003621
2150,-0.037962,0.0288,-0.068843
2151,-0.01874,0.012055,-0.050727
2152,-0.01874,0.0288,0.003621
2153,-0.01874,0.012055,0.003621
2154,0.000481,0.012055,-0.014495
2155,0.000481,-0.00469,-0.014495
2156,-0.01874,-0.00469,-0.014495
2157,-0.01874,-0.00469,-0.032611
2158,-0.01874,-0.021435,-0.032611
2159,0.000481,-0.00469,-0.032611
2160,0.000481,0.012055,-0.032611
2161,0.000481,-0.00469,0.021737
2162,0.000481,0.0288,0.021737
2163,0.000481,-0.00469,0.003621
2164,0.019703,0.012055,0.021737
2165,0.000481,-0.00469,0.003621
2166,0.019703,-0.00469,-0.014495
2167,0.000481,0.012055,-0.050727
2168,-0.01874,-0.021435,-0.068843
2169,0.000481,-0.021435,-0.014495
2170,-0.01874,0.0288,0.021737
2171,0.000481,-0.00469,-0.014495
2172,0.000481,0.012055,0.003621
2173,-0.01874,-0.00469,-0.014495
2174,0.019703,0.012055,0.003621
2175,-0.01874,0.0288,-0.032611
2176,0.000481,-0.00469,-0.050727
2177,0.000481,0.012055,-0.050727
2178,-0.037962,0.012055,0.003621
2179,0.000481,0.012055,0.003621
2180,-0.037962,0.012055,0.003621
2181,0.000481,-0.021435,0.021737
2182,0.000481,-0.00469,0.003621
2183,0.000481,0.012055,-0.032611
2184,0.019703,-0.00469,-0.050727
2185,-0.037962,-0.00469,-0.014495
2186,0.000481,-0.00469,-0.014495
2187,0.000481,0.012055,-0.014495
2188,-0.01874,-0.00469,0.021737
2189,0.000481,0.012055,-0.032611
2190,-0.01874,-0.00469,0.003621
2191,-0.01874,-0.00469,-0.014495
2192,0.000481,-0.00469,-0.014495
2193,-0.037962,0.012055,0.003621
2194,-0.01874,-0.021435,-0.032611
2195,0.000481,0.012055,0.003621
2196,-0.01874,-0.00469,-0.014495
2197,0.000481,0.012055,0.039853
2198,0.019703,0.012055,0.003621
2199,0.000481,0.012055,0.021737
2200,0.000481,-0.021435,-0.032611
2201,0.000481,-0.00469,-0.050727
2202,-0.01874,-0.00469,-0.014495
2203,0.000481,-0.00469,-0.032611
2204,0.000481,-0.021435,-0.032611
2205,-0.01874,-0.00469,0.003621
2206,-0.01874,-0.00469,-0.014495
2207,0.000481,-0.00469,-0.014495
2208,-0.01874,-0.00469,0.003621
2209,0.019703,-0.00469,-0.032611
2210,0.019703,-0.00469,-0.050727
2211,0.000481,0.012055,-0.032611
2212,0.000481,0.045545,-0.032611
2213,0.019703,-0.00469,0.021737
2214,-0.01874,-0.00469,0.003621
2215,0.038924,0.012055,-0.050727
2216,-0.01874,-0.00469,-0.014495
2217,0.019703,-0.00469,0.003621
2218,-0.037962,0.012055,-0.032611
2219,0.000481,-0.00469,-0.032611
2220,-0.01874,-0.00469,-0.032611
2221,0.000481,0.012055,-0.050727
2222,-0.01874,-0.00469,-0.014495
2223,0.000481,0.012055,0.003621
2224,-0.01874,-0.00469,0.021737
2225,-0.01874,-0.00469,0.003621
2226,0.000481,0.012055,-0.032611
2227,0.000481,-0.00469,-0.014495
2228,0.019703,-0.00469,0.003621
2229,0.000481,0.012055,-0.032611
2230,0.000481,-0.021435,0.003621
2231,0.000481,0.0288,0.021737
2232,-0.01874,0.012055,0.021737
2233,-0.01874,-0.00469,0.021737
2234,-0.01874,-0.00469,0.003621
2235,-0.037962,-0.00469,-0.032611
2236,-0.057183,-0.00469,-0.050727
2237,-0.037962,-0.00469,-0.014495
2238,-0.01874,0.012055,-0.050727
2239,-0.01874,-0.021435,-0.014495
2240,-0.01874,-0.00469,0.003621
2241,0.000481,0.012055,-0.014495
2242,0.077367,-0.00469,-0.032611
2243,0.058146,-0.00469,0.003621
2244,0.058146,0.012055,-0.014495
2245,0.058146,0.012055,-0.050727
2246,0.000481,0.012055,-0.032611
2247,-0.01874,-0.021435,-0.068843
2248,-0.076405,0.0288,-0.014495
2249,-0.037962,-0.00469,-0.014495
2250,0.019703,-0.00469,0.003621
2251,0.019703,0.012055,0.021737
2252,-0.01874,0.0288,-0.014495
2253,-0.01874,0.012055,-0.032611
2254,-0.01874,0.045545,-0.050727
2255,0.019703,-0.00469,0.003621
2256,-0.01874,0.012055,-0.050727
2257,0.019703,0.012055,-0.032611
2258,0.019703,-0.00469,-0.032611
2259,0.019703,0.012055,-0.014495
2260,0.000481,0.012055,0.003621
2261,0.000481,0.012055,0.003621
2262,0.000481,-0.00469,-0.032611
2263,0.019703,-0.00469,-0.014495
2264,-0.01874,0.012055,-0.032611
2265,0.019703,-0.00469,0.003621
2266,0.000481,0.012055,0.021737
2267,-0.037962,0.012055,0.039853
2268,0.000481,0.012055,0.003621
2269,0.000481,0.012055,0.003621
2270,-0.01874,-0.00469,-0.014495
2271,0.000481,-0.00469,-0.032611
2272,0.000481,0.012055,0.003621
2273,0.019703,-0.00469,-0.032611
2274,0.000481,-0.00469,-0.068843
2275,0.000481,-0.00469,0.021737
2276,0.000481,-0.00469,0.021737
2277,0.000481,-0.021435,0.057969
2278,0.000481,-0.00469,0.003621
2279,0.000481,0.012055,-0.032611
2280,0.019703,0.012055,-0.050727
2281,0.000481,-0.00469,0.021737
2282,0.019703,0.012055,-0.032611
2283,0.038924,-0.00469,0.003621
2284,-0.01874,-0.021435,0.003621
2285,-0.01874,-0.021435,-0.014495
2286,0.000481,0.012055,-0.014495
2287,0.000481,-0.00469,-0.014495
2288,0.019703,-0.00469,-0.014495
2289,0.019703,-0.00469,-0.068843
2290,0.019703,-0.00469,-0.014495
2291,0.000481,0.012055,-0.014495
2292,-0.01874,-0.021435,-0.014495
2293,-0.01874,-0.00469,0.039853
2294,-0.057183,-0.00469,-0.032611
2295,-0.037962,0.0288,0.094201
2296,-0.057183,0.012055,-0.014495
2297,-0.01874,-0.021435,-0.068843
2298,0.000481,0.012055,-0.032611
2299,0.019703,-0.00469,-0.032611
2300,0.000481,0.045545,-0.050727
2301,0.019703,0.045545,-0.032611
2302,0.000481,0.012055,0.021737
2303,0.000481,-0.00469,0.003621
2304,-0.01874,-0.021435,0.003621
2305,-0.057183,0.012055,-0.014495
2306,-0.076405,-0.021435,-0.014495
2307,-0.037962,0.0288,0.094201
2308,-0.01874,-0.00469,-0.032611
2309,-0.037962,-0.021435,0.021737
2310,0.000481,-0.00469,0.021737
2311,0.038924,0.012055,0.021737
2312,0.077367,-0.00469,0.003621
2313,0.058146,-0.00469,0.021737
2314,0.038924,0.012055,-0.014495
2315,0.000481,0.012055,-0.032611
2316,0.000481,0.012055,-0.032611
2317,0.000481,0.0288,-0.050727
2318,0.000481,-0.021435,-0.014495
2319,0.019703,0.012055,0.003621
2320,-0.01874,-0.00469,0.003621
2321,0.000481,-0.00469,0.003621
2322,-0.01874,-0.00469,-0.014495
2323,0.000481,0.0288,-0.014495
2324,-0.037962,0.012055,-0.086959
2325,0.000481,-0.00469,-0.014495
2326,0.000481,-0.00469,-0.050727
2327,-0.037962,-0.00469,-0.050727
2328,0.000481,-0.00469,0.039853
2329,0.000481,0.012055,-0.014495
2330,0.000481,-0.00469,0.003621
2331,-0.01874,0.012055,0.003621
2332,0.000481,-0.00469,-0.032611
2333,-0.01874,0.012055,-0.032611
2334,-0.01874,0.0288,-0.014495
2335,0.000481,0.012055,-0.050727
2336,0.019703,0.0288,-0.014495
2337,0.000481,-0.00469,0.021737
2338,-0.037962,-0.00469,0.003621
2339,-0.037962,-0.00469,0.021737
2340,0.000481,0.012055,0.003621
2341,0.058146,0.0288,-0.014495
2342,0.058146,0.06229,0.021737
2343,0.019703,0.012055,-0.014495
2344,-0.076405,-0.00469,0.003621
2345,-0.076405,0.012055,0.003621
2346,-0.076405,0.012055,0.039853
2347,0.019703,-0.021435,0.021737
2348,0.019703,-0.00469,0.021737
2349,0.000481,-0.00469,-0.014495
2350,-0.01874,0.012055,-0.032611
2351,0.000481,0.012055,0.003621
2352,-0.01874,-0.00469,-0.050727
2353,0.019703,0.012055,-0.032611
2354,0.000481,-0.021435,0.003621
2355,-0.01874,-0.00469,-0.014495
2356,-0.01874,0.012055,0.003621
2357,0.019703,-0.00469,0.003621
2358,0.000481,0.0288,-0.014495
2359,0.000481,0.012055,0.003621
2360,-0.01874,0.0288,-0.014495
2361,0.000481,-0.00469,-0.050727
2362,0.019703,0.012055,-0.014495
2363,-0.01874,0.0288,0.039853
2364,-0.01874,0.012055,0.021737
2365,-0.01874,-0.021435,-0.014495
2366,0.019703,-0.00469,0.003621
2367,0.019703,-0.00469,-0.032611
2368,0.000481,0.012055,-0.050727
2369,0.000481,-0.00469,-0.014495
2370,0.000481,0.0288,-0.032611
2371,0.000481,0.0288,-0.014495
2372,0.019703,-0.00469,-0.014495
2373,-0.037962,0.012055,-0.032611
2374,-0.01874,-0.00469,0.039853
2375,-0.037962,0.045545,0.003621
2376,0.000481,0.0288,-0.050727
2377,0.000481,0.0288,-0.032611
2378,0.000481,-0.00469,-0.014495
2379,-0.01874,0.012055,-0.032611
2380,-0.01874,0.012055,-0.014495
2381,-0.01874,0.06229,0.021737
2382,-0.01874,-0.038179,-0.014495
2383,0.019703,-0.00469,-0.014495
2384,0.019703,-0.00469,-0.014495
2385,0.000481,-0.00469,-0.068843
2386,-0.01874,-0.00469,-0.014495
2387,0.000481,0.0288,-0.032611
2388,0.000481,0.012055,0.003621
2389,-0.01874,-0.038179,-0.014495
2390,0.000481,-0.00469,-0.014495
2391,-0.037962,-0.00469,0.003621
2392,-0.037962,0.012055,0.003621
2393,0.000481,0.012055,0.003621
2394,0.000481,-0.021435,-0.050727
2395,0.000481,-0.038179,0.003621
2396,0.000481,-0.021435,-0.014495
2397,-0.037962,-0.00469,0.003621
2398,-0.037962,-0.00469,0.021737
2399,-0.037962,-0.00469,0.003621
2400,0.000481,-0.021435,0.003621
2401,0.019703,-0.021435,-0.014495
2402,0.019703,-0.021435,-0.032611
2403,0.000481,0.012055,-0.050727
2404,0.038924,0.012055,-0.032611
2405,-0.01874,-0.00469,-0.068843
2406,-0.01874,-0.021435,0.003621
2407,0.000481,0.0288,0.021737
2408,0.019703,0.012055,0.003621
2409,0.038924,0.012055,0.039853
2410,0.019703,-0.021435,-0.014495
2411,0.000481,-0.00469,-0.050727
2412,0.019703,-0.021435,-0.068843
2413,0.038924,0.0288,-0.014495
2414,0.000481,0.012055,-0.032611
2415,-0.01874,0.012055,0.021737
2416,-0.01874,-0.00469,0.003621
2417,0.019703,-0.00469,0.057969
2418,0.000481,0.012055,0.057969
2419,-0.01874,-0.021435,0.003621
2420,-0.076405,-0.00469,-0.014495
2421,-0.01874,0.012055,-0.032611
2422,-0.01874,0.0288,-0.014495
2423,0.000481,-0.00469,-0.014495
2424,-0.01874,0.012055,-0.032611
2425,0.019703,0.012055,0.021737
2426,0.019703,-0.00469,-0.032611
2427,0.000481,0.012055,0.039853
2428,0.019703,-0.00469,-0.050727
2429,0.000481,-0.021435,-0.050727
2430,-0.01874,-0.00469,0.003621
2431,0.000481,0.012055,-0.032611
2432,0.058146,-0.00469,-0.014495
2433,0.000481,0.0288,0.021737
2434,0.000481,-0.038179,0.003621
2435,0.000481,-0.00469,0.003621
2436,0.000481,-0.021435,0.003621
2437,0.000481,0.012055,-0.014495
2438,0.000481,0.012055,-0.050727
2439,-0.01874,-0.00469,-0.014495
2440,0.000481,-0.00469,-0.014495
2441,-0.01874,-0.00469,-0.032611
2442,0.000481,-0.00469,0.039853
2443,0.000481,0.012055,0.003621
2444,0.019703,0.012055,0.021737
2445,0.000481,-0.00469,-0.014495
2446,0.038924,-0.00469,-0.014495
2447,0.019703,-0.00469,-0.050727
2448,0.000481,-0.00469,-0.014495
2449,0.019703,0.012055,-0.050727
2450,0.019703,-0.00469,-0.032611
2451,0.000481,-0.021435,-0.014495
2452,-0.037962,0.012055,0.003621
2453,0.000481,0.012055,0.039853
2454,0.019703,0.012055,0.003621
2455,0.019703,-0.00469,-0.050727
2456,0.000481,0.012055,0.003621
2457,-0.01874,0.012055,0.003621
2458,-0.037962,-0.00469,-0.014495
2459,-0.01874,-0.00469,0.003621
2460,0.000481,-0.00469,0.039853
2461,0.000481,-0.00469,-0.014495
2462,-0.01874,-0.00469,-0.014495
2463,0.000481,-0.00469,-0.014495
2464,0.000481,0.079034,-0.032611
2465,0.019703,-0.00469,-0.014495
2466,0.000481,0.012055,-0.032611
2467,0.000481,0.012055,0.003621
2468,-0.01874,-0.00469,0.021737
2469,0.000481,-0.021435,-0.014495
2470,0.000481,-0.021435,-0.050727
2471,0.019703,-0.00469,0.003621
2472,0.019703,-0.00469,-0.032611
2473,-0.01874,-0.00469,-0.032611
2474,0.000481,0.012055,-0.014495
2475,-0.037962,-0.00469,-0.050727
2476,-0.037962,-0.00469,-0.050727
2477,0.000481,0.012055,0.039853
2478,0.000481,-0.00469,0.003621
2479,0.019703,0.012055,0.076085
2480,-0.01874,-0.00469,-0.032611
2481,-0.01874,-0.038179,-0.032611
2482,-0.01874,0.012055,-0.032611
2483,-0.037962,-0.021435,0.021737
2484,-0.01874,0.0288,-0.032611
2485,0.000481,-0.00469,-0.032611
2486,0.000481,0.012055,-0.014495
2487,0.000481,0.012055,-0.050727
2488,0.000481,-0.00469,0.021737
2489,0.000481,0.012055,-0.050727
2490,-0.01874,-0.00469,-0.068843
2491,0.000481,0.0288,-0.050727
2492,0.000481,0.0288,0.021737
2493,-0.037962,-0.00469,0.003621
2494,-0.01874,0.012055,0.003621
2495,0.000481,-0.00469,0.057969
2496,0.000481,0.0288,0.003621
2497,0.000481,0.012055,0.003621
2498,0.058146,0.012055,-0.014495
2499,0.096589,0.0288,-0.032611
2500,0.038924,-0.00469,-0.032611
2501,-0.057183,-0.00469,-0.050727
2502,-0.095626,-0.021435,-0.032611
2503,-0.134069,0.0288,0.021737
2504,-0.114848,0.012055,0.039853
2505,-0.01874,-0.021435,-0.032611
2506,0.000481,-0.00469,0.021737
2507,0.019703,-0.00469,0.021737
2508,0.019703,0.0288,0.003621
2509,0.019703,-0.00469,-0.014495
2510,0.019703,0.012055,-0.068843
2511,0.000481,0.0288,-0.032611
2512,0.038924,0.012055,-0.014495
2513,0.038924,0.012055,-0.014495
2514,0.038924,0.012055,-0.032611
2515,-0.01874,-0.00469,-0.014495
2516,0.000481,-0.021435,-0.032611
2517,0.000481,-0.00469,-0.032611
2518,0.019703,-0.021435,-0.014495
2519,0.000481,-0.00469,-0.050727
2520,0.000481,-0.00469,-0.014495
2521,0.019703,0.012055,0.021737
2522,0.019703,0.012055,0.003621
2523,0.000481,0.0288,0.021737
2524,0.000481,-0.00469,-0.014495
2525,0.000481,-0.00469,-0.014495
2526,0.000481,0.012055,-0.050727
2527,-0.01874,0.045545,0.021737
2528,-0.01874,0.0288,-0.014495
2529,-0.01874,0.012055,0.057969
2530,-0.01874,-0.021435,0.021737
2531,-0.01874,-0.00469,-0.032611
2532,-0.01874,-0.00469,0.057969
2533,0.000481,0.0288,0.003621
2534,0.019703,0.012055,0.003621
2535,0.000481,-0.00469,-0.032611
2536,-0.01874,0.012055,0.003621
2537,-0.01874,-0.00469,0.003621
2538,-0.01874,-0.00469,-0.014495
2539,0.000481,-0.00469,0.021737
2540,0.000481,0.0288,0.003621
2541,-0.01874,0.012055,0.039853
2542,-0.037962,-0.021435,0.021737
2543,0.000481,0.012055,-0.032611
2544,-0.01874,0.012055,-0.014495
2545,-0.01874,0.045545,-0.032611
2546,0.000481,0.012055,-0.014495
2547,0.000481,0.045545,0.021737
2548,0.000481,-0.00469,-0.032611
2549,-0.01874,0.012055,-0.032611
2550,-0.01874,-0.00469,-0.014495
2551,-0.01874,-0.00469,-0.032611
2552,-0.01874,0.012055,-0.068843
2553,-0.01874,-0.00469,-0.014495
2554,0.000481,-0.00469,-0.032611
2555,-0.01874,0.012055,-0.050727
2556,-0.01874,-0.00469,-0.014495
2557,0.019703,0.012055,-0.014495
2558,-0.01874,-0.021435,-0.032611
2559,0.000481,0.012055,-0.014495
2560,-0.01874,0.012055,-0.068843
2561,0.019703,0.012055,-0.014495
2562,0.019703,-0.00469,0.003621
2563,-0.01874,0.0288,-0.032611
2564,0.019703,-0.021435,-0.014495
2565,0.000481,-0.00469,0.021737
2566,0.000481,-0.00469,-0.032611
2567,0.000481,-0.021435,0.021737
2568,-0.01874,-0.00469,0.003621
2569,-0.01874,-0.021435,-0.032611
2570,-0.01874,-0.00469,0.021737
2571,-0.037962,-0.021435,0.021737
2572,-0.057183,-0.00469,-0.014495
2573,-0.057183,-0.00469,0.021737
2574,-0.01874,0.012055,0.003621
2575,-0.01874,0.012055,-0.032611
2576,-0.037962,0.012055,0.021737
2577,-0.01874,0.012055,0.003621
2578,-0.01874,0.012055,-0.014495
2579,0.000481,-0.00469,0.021737
2580,-0.01874,-0.00469,0.039853
2581,0.000481,-0.00469,-0.014495
2582,0.038924,0.0288,0.021737
2583,0.058146,-0.00469,-0.014495
2584,0.019703,0.012055,-0.014495
2585,0.058146,0.012055,-0.032611
2586,0.000481,0.012055,-0.050727
2587,0.019703,0.012055,-0.050727
2588,0.038924,0.012055,0.003621
2589,0.019703,-0.00469,-0.032611
2590,0.019703,0.012055,0.003621
2591,0.019703,-0.00469,0.021737
2592,0.000481,0.012055,0.003621
2593,-0.01874,0.0288,0.003621
2594,-0.01874,0.012055,0.003621
2595,-0.037962,0.012055,0.003621
2596,0.000481,-0.00469,0.003621
2597,-0.01874,-0.00469,0.039853
2598,-0.01874,0.012055,-0.014495
2599,-0.01874,-0.00469,0.021737
2600,0.000481,-0.00469,0.021737
2601,0.019703,-0.00469,-0.032611
2602,0.000481,-0.00469,-0.068843
2603,0.000481,0.012055,-0.032611
2604,0.000481,-0.00469,-0.050727
2605,-0.01874,0.0288,-0.014495
2606,-0.037962,0.012055,0.021737
2607,0.000481,0.0288,-0.032611
2608,0.000481,-0.00469,0.003621
2609,0.000481,-0.021435,0.003621
2610,0.000481,0.0288,-0.032611
2611,0.000481,0.012055,-0.032611
2612,0.058146,0.012055,-0.014495
2613,0.096589,0.012055,-0.050727
2614,0.077367,0.0288,0.003621
2615,0.000481,0.0288,0.021737
2616,-0.037962,-0.00469,-0.014495
2617,-0.095626,0.012055,0.021737
2618,-0.114848,-0.00469,-0.032611
2619,-0.057183,-0.021435,-0.068843
2620,-0.076405,-0.00469,-0.014495
2621,-0.076405,0.012055,-0.032611
2622,-0.037962,-0.00469,0.003621
2623,0.000481,-0.021435,0.003621
2624,0.000481,-0.021435,0.039853
2625,0.058146,0.012055,0.021737
2626,0.038924,0.012055,0.021737
2627,0.019703,0.045545,-0.014495
2628,0.000481,0.012055,-0.032611
2629,0.019703,-0.00469,-0.014495
2630,-0.01874,0.012055,-0.050727
2631,0.000481,-0.00469,0.003621
2632,0.019703,0.012055,0.003621
2633,0.000481,-0.00469,-0.032611
2634,-0.01874,0.0288,0.003621
2635,-0.01874,0.012055,-0.032611
2636,0.038924,-0.00469,-0.032611
2637,0.000481,0.012055,-0.050727
2638,0.019703,-0.00469,-0.014495
2639,0.000481,-0.00469,-0.068843
2640,0.000481,0.012055,0.003621
2641,0.000481,-0.00469,-0.014495
2642,0.000481,-0.00469,-0.014495
2643,0.000481,-0.00469,0.021737
2644,-0.037962,-0.00469,-0.014495
2645,-0.037962,-0.021435,-0.032611
2646,-0.01874,-0.00469,-0.050727
2647,0.000481,0.012055,-0.032611
2648,-0.076405,-0.00469,-0.032611
2649,-0.01874,0.012055,0.021737
2650,0.000481,0.012055,0.021737
2651,0.038924,0.0288,0.003621
2652,0.038924,0.06229,0.039853
2653,0.019703,0.012055,-0.032611
2654,0.000481,0.0288,-0.050727
2655,-0.01874,-0.00469,-0.014495
2656,0.000481,0.012055,-0.050727
2657,-0.01874,0.012055,0.021737
2658,0.019703,0.012055,0.003621
2659,0.000481,-0.00469,0.021737
2660,0.019703,0.012055,0.021737
2661,0.038924,0.0288,0.021737
2662,0.000481,0.0288,-0.014495
2663,-0.01874,0.012055,-0.050727
2664,-0.01874,0.0288,-0.068843
2665,-0.057183,0.0288,-0.050727
2666,-0.076405,0.012055,-0.014495
2667,-0.037962,0.0288,0.003621
2668,-0.076405,-0.054924,-0.032611
2669,-0.057183,-0.071669,0.003621
2670,0.058146,0.012055,-0.014495
2671,0.058146,0.0288,-0.068843
2672,0.038924,0.0288,-0.032611
2673,0.000481,0.012055,-0.050727
2674,-0.037962,-0.021435,-0.050727
2675,0.000481,-0.00469,0.003621
2676,-0.01874,-0.00469,0.003621
2677,-0.01874,-0.00469,0.003621
2678,0.019703,-0.00469,0.003621
2679,-0.01874,0.012055,-0.014495
2680,0.019703,0.012055,0.003621
2681,0.000481,0.012055,0.094201
2682,0.038924,0.012055,-0.050727
2683,0.038924,-0.00469,-0.032611
2684,0.038924,0.012055,-0.032611
2685,-0.01874,0.012055,0.039853
2686,0.000481,0.012055,-0.014495
2687,0.000481,-0.00469,-0.014495
2688,-0.037962,-0.00469,-0.014495
2689,-0.01874,-0.00469,-0.050727
2690,-0.01874,0.012055,0.003621
2691,-0.01874,0.0288,-0.050727
2692,-0.037962,-0.021435,-0.014495
2693,-0.01874,0.0288,0.057969
2694,-0.01874,0.012055,-0.014495
2695,0.000481,-0.00469,0.003621
2696,0.000481,0.012055,-0.014495
2697,0.000481,0.012055,-0.032611
2698,-0.01874,-0.021435,-0.050727
2699,-0.01874,-0.00469,-0.032611
2700,0.019703,-0.021435,-0.032611
2701,0.019703,0.012055,-0.050727
2702,0.000481,-0.00469,0.003621
2703,0.000481,-0.00469,-0.032611
2704,0.019703,0.012055,0.039853
2705,-0.01874,-0.021435,0.003621
2706,0.000481,-0.00469,-0.086959
2707,-0.01874,0.012055,-0.032611
2708,0.000481,0.012055,-0.032611
2709,-0.01874,0.012055,0.021737
2710,-0.01874,0.012055,0.003621
2711,-0.01874,-0.021435,-0.032611
2712,0.019703,0.012055,-0.014495
2713,-0.01874,-0.00469,0.003621
2714,0.019703,-0.00469,-0.032611
2715,0.000481,-0.00469,-0.050727
2716,0.019703,-0.00469,-0.050727
2717,0.000481,-0.00469,-0.050727
2718,-0.01874,-0.00469,0.021737
2719,0.000481,-0.038179,0.003621
2720,0.000481,-0.038179,-0.032611
2721,-0.01874,-0.00469,0.039853
2722,-0.037962,-0.021435,0.003621
2723,0.019703,-0.021435,-0.050727
2724,0.000481,-0.038179,-0.014495
2725,0.019703,-0.00469,-0.032611
2726,0.000481,-0.00469,-0.014495
2727,0.000481,-0.021435,0.021737
2728,-0.076405,0.0288,0.021737
2729,-0.057183,-0.021435,-0.014495
2730,-0.01874,0.0288,0.003621
2731,0.000481,0.0288,-0.014495
2732,0.000481,0.012055,-0.050727
2733,0.000481,0.012055,0.003621
2734,0.000481,0.012055,0.021737
2735,0.019703,0.0288,-0.032611
2736,0.019703,-0.038179,0.003621
2737,0.019703,-0.00469,-0.014495
2738,0.000481,0.012055,-0.050727
2739,0.000481,-0.00469,-0.032611
2740,-0.01874,-0.021435,-0.032611
2741,0.019703,-0.00469,-0.032611
2742,0.019703,-0.021435,0.003621
2743,0.000481,-0.021435,0.003621
2744,0.000481,0.012055,0.003621
2745,0.000481,-0.00469,0.021737
2746,0.019703,0.012055,0.003621
2747,-0.01874,-0.00469,-0.068843
2748,0.000481,-0.021435,0.003621
2749,0.019703,-0.021435,-0.032611
2750,0.058146,0.012055,-0.032611
2751,0.058146,0.012055,0.003621
2752,0.077367,-0.00469,0.021737
2753,0.000481,-0.00469,0.003621
2754,-0.057183,-0.00469,0.003621
2755,-0.134069,-0.021435,-0.014495
2756,-0.114848,-0.00469,-0.050727
2757,-0.01874,-0.021435,-0.032611
2758,0.000481,-0.021435,-0.050727
2759,0.019703,0.012055,-0.032611
2760,0.019703,-0.00469,0.003621
2761,0.000481,0.012055,-0.032611
2762,0.058146,0.012055,0.039853
2763,0.058146,0.012055,-0.014495
2764,0.000481,-0.038179,-0.050727
2765,0.019703,-0.00469,-0.032611
2766,0.000481,-0.021435,-0.032611
2767,-0.01874,-0.00469,-0.032611
2768,0.019703,-0.00469,-0.014495
2769,0.000481,-0.00469,0.021737
2770,0.000481,0.012055,-0.032611
2771,0.019703,0.0288,0.003621
2772,-0.01874,0.012055,-0.050727
2773,-0.037962,0.0288,-0.032611
2774,0.000481,0.012055,-0.014495
2775,0.000481,-0.00469,-0.032611
2776,0.000481,-0.021435,-0.014495
2777,0.038924,-0.021435,0.021737
2778,-0.057183,-0.00469,0.003621
2779,-0.037962,-0.00469,-0.014495
2780,0.000481,0.012055,0.021737
2781,0.038924,0.012055,-0.032611
2782,0.019703,0.0288,-0.032611
2783,0.019703,0.012055,-0.014495
2784,0.000481,0.012055,-0.032611
2785,0.019703,-0.00469,0.003621
2786,0.019703,-0.021435,0.039853
2787,-0.037962,-0.00469,0.003621
2788,-0.057183,-0.00469,-0.014495
2789,-0.037962,-0.021435,0.003621
2790,-0.01874,0.045545,-0.032611
2791,0.000481,-0.038179,0.003621
2792,0.058146,0.012055,-0.050727
2793,0.019703,0.0288,-0.032611
2794,0.038924,0.012055,0.003621
2795,0.000481,0.012055,0.039853
2796,0.000481,0.012055,0.003621
2797,0.019703,0.0288,0.021737
2798,0.000481,0.012055,-0.014495
2799,0.000481,0.012055,-0.050727
2800,0.038924,0.012055,-0.014495
2801,0.038924,-0.021435,-0.014495
2802,0.019703,0.012055,-0.050727
2803,0.000481,-0.00469,0.003621
2804,0.019703,0.012055,0.021737
2805,-0.01874,0.012055,0.003621
2806,-0.01874,-0.00469,0.021737
2807,0.000481,-0.00469,0.003621
2808,0.000481,0.012055,-0.050727
2809,0.019703,0.012055,0.003621
2810,0.019703,0.012055,-0.014495
2811,0.019703,0.012055,0.003621
2812,0.000481,0.045545,-0.014495
2813,0.000481,0.0288,0.003621
2814,0.019703,0.012055,0.039853
2815,0.019703,0.012055,-0.014495
2816,0.000481,-0.00469,0.003621
2817,0.000481,0.012055,-0.050727
2818,-0.01874,-0.021435,-0.032611
2819,0.000481,0.012055,-0.032611
2820,0.000481,0.012055,-0.032611
2821,-0.01874,-0.00469,-0.014495
2822,-0.037962,0.012055,0.021737
2823,-0.01874,0.012055,0.003621
2824,0.019703,0.0288,0.003621
2825,-0.01874,-0.00469,-0.014495
2826,0.000481,0.012055,-0.032611
2827,0.000481,0.012055,0.003621
2828,-0.01874,0.012055,-0.014495
2829,0.000481,0.012055,-0.032611
2830,0.019703,0.012055,0.003621
2831,0.000481,-0.00469,0.003621
2832,0.000481,0.012055,0.021737
2833,0.000481,-0.00469,-0.014495
2834,0.038924,-0.00469,-0.014495
2835,0.019703,0.045545,-0.032611
2836,0.000481,0.012055,-0.014495
2837,0.000481,0.012055,-0.068843
2838,0.000481,-0.021435,0.003621
2839,-0.037962,-0.021435,0.021737
2840,0.038924,0.012055,-0.032611
2841,-0.037962,0.012055,-0.014495
2842,0.000481,0.0288,0.003621
2843,0.000481,-0.00469,-0.014495
2844,0.000481,-0.00469,-0.014495
2845,-0.01874,-0.00469,-0.032611
2846,-0.01874,-0.00469,-0.050727
2847,-0.01874,-0.00469,-0.032611
2848,0.019703,-0.00469,0.057969
2849,0.019703,-0.00469,0.003621
2850,0.019703,-0.00469,0.021737
2851,0.000481,-0.00469,0.003621
2852,-0.01874,0.012055,-0.032611
2853,-0.01874,-0.00469,-0.050727
2854,0.019703,0.012055,-0.050727
2855,0.019703,-0.00469,-0.032611
2856,0.000481,0.012055,0.003621
2857,-0.01874,0.012055,0.021737
2858,0.019703,-0.00469,-0.032611
2859,-0.037962,0.0288,0.057969
2860,-0.01874,0.0288,-0.014495
2861,0.000481,0.012055,-0.032611
2862,0.038924,-0.021435,-0.032611
2863,0.019703,-0.00469,0.003621
2864,-0.01874,0.012055,-0.014495
2865,-0.01874,0.012055,-0.014495
2866,-0.01874,0.0288,0.057969
2867,0.000481,-0.021435,0.021737
2868,0.000481,0.012055,-0.014495
2869,0.019703,-0.00469,-0.032611
2870,0.019703,-0.00469,-0.050727
2871,0.038924,0.012055,-0.032611
2872,0.096589,0.0288,-0.032611
2873,0.077367,0.012055,0.003621
2874,-0.01874,0.012055,0.057969
2875,-0.076405,-0.038179,0.003621
2876,-0.095626,0.012055,0.003621
2877,-0.095626,0.012055,0.003621
2878,-0.057183,-0.00469,-0.014495
2879,0.000481,-0.00469,0.003621
2880,0.019703,0.0288,-0.014495
2881,0.000481,0.0288,-0.068843
2882,0.019703,-0.00469,-0.014495
2883,0.038924,-0.00469,0.003621
2884,-0.01874,-0.021435,0.003621
2885,-0.057183,0.012055,0.003621
2886,0.000481,0.012055,0.021737
2887,0.019703,0.012055,-0.032611
2888,0.000481,-0.00469,-0.068843
2889,0.038924,0.012055,-0.032611
2890,0.019703,0.012055,-0.032611
2891,0.019703,-0.021435,0.003621
2892,0.000481,0.012055,0.021737
2893,-0.01874,0.0288,-0.014495
2894,-0.01874,0.0288,0.021737
2895,0.000481,0.012055,0.003621
2896,-0.01874,0.012055,-0.014495
2897,0.000481,0.012055,-0.014495
2898,-0.037962,0.012055,-0.032611
2899,-0.01874,-0.00469,-0.014495
2900,0.019703,-0.00469,0.021737
2901,0.019703,-0.00469,0.003621
2902,0.019703,-0.00469,0.003621
2903,0.019703,0.012055,0.021737
2904,0.019703,0.0288,0.003621
2905,0.000481,0.0288,-0.014495
2906,-0.01874,0.012055,-0.014495
2907,-0.01874,0.012055,-0.014495
2908,0.019703,0.012055,-0.014495
2909,0.000481,0.012055,0.021737
2910,0.019703,-0.00469,0.057969
2911,0.019703,-0.00469,0.003621
2912,-0.01874,-0.00469,0.057969
2913,0.000481,0.012055,-0.014495
2914,-0.01874,-0.00469,-0.032611
2915,0.000481,0.0288,0.003621
2916,0.000481,-0.021435,-0.050727
2917,-0.01874,-0.00469,0.021737
2918,-0.01874,-0.00469,0.003621
2919,-0.037962,0.012055,-0.032611
2920,0.000481,0.012055,0.021737
2921,-0.01874,0.012055,-0.014495
2922,0.000481,-0.021435,-0.014495
2923,0.038924,0.012055,-0.014495
2924,0.038924,0.012055,0.003621
2925,0.019703,0.012055,-0.050727
2926,0.000481,-0.00469,0.021737
2927,0.000481,-0.00469,0.003621
2928,-0.01874,0.012055,-0.032611
2929,0.019703,0.012055,0.021737
2930,0.038924,0.0288,-0.014495
2931,-0.01874,0.0288,0.003621
2932,0.019703,0.0288,-0.014495
2933,0.000481,-0.00469,-0.014495
2934,-0.01874,-0.00469,-0.032611
2935,0.019703,-0.00469,-0.032611
2936,-0.01874,-0.00469,-0.014495
2937,0.000481,-0.00469,0.003621
2938,-0.01874,0.012055,0.021737
2939,-0.037962,-0.00469,0.003621
2940,0.000481,-0.00469,-0.032611
2941,0.019703,-0.00469,-0.050727
2942,0.058146,-0.00469,-0.032611
2943,0.019703,0.012055,-0.032611
2944,0.000481,0.012055,-0.032611
2945,0.000481,-0.00469,0.057969
2946,-0.01874,-0.00469,0.021737
2947,-0.01874,0.012055,0.021737
2948,0.019703,-0.00469,-0.032611
2949,0.019703,-0.021435,-0.014495
2950,0.038924,0.012055,-0.014495
2951,0.019703,-0.021435,-0.032611
2952,-0.01874,0.012055,-0.050727
2953,-0.01874,-0.021435,-0.014495
2954,0.019703,-0.00469,0.021737
2955,0.000481,-0.00469,0.003621
2956,-0.01874,0.0288,0.003621
2957,-0.01874,-0.00469,-0.014495
2958,0.000481,0.0288,-0.050727
2959,0.019703,0.012055,-0.032611
2960,0.019703,0.0288,-0.032611
2961,0.000481,-0.021435,0.039853
2962,0.038924,0.012055,0.057969
2963,0.096589,-0.021435,0.003621
2964,0.058146,0.012055,0.021737
2965,0.000481,0.012055,0.003621
2966,-0.076405,0.012055,-0.014495
2967,-0.153291,-0.00469,-0.050727
2968,-0.172512,-0.00469,-0.014495
2969,-0.114848,-0.021435,-0.032611
2970,-0.037962,-0.00469,0.003621
2971,-0.01874,0.012055,0.021737
2972,-0.037962,0.012055,0.003621
2973,0.038924,0.012055,0.021737
2974,0.058146,0.012055,-0.032611
2975,0.11581,0.012055,-0.032611
2976,0.096589,0.012055,-0.014495
2977,0.096589,0.0288,-0.014495
2978,0.077367,0.012055,-0.014495
2979,0.038924,-0.021435,0.003621
2980,0.038924,-0.021435,0.003621
2981,0.019703,0.012055,0.003621
2982,0.019703,-0.00469,0.021737
2983,0.019703,-0.00469,-0.014495
2984,0.000481,0.0288,-0.014495
2985,-0.01874,-0.00469,-0.014495
2986,0.000481,-0.00469,-0.050727
2987,0.000481,-0.00469,-0.014495
2988,0.000481,0.012055,0.021737
2989,-0.01874,-0.00469,0.003621
2990,-0.01874,-0.00469,0.021737
2991,-0.037962,-0.00469,-0.014495
2992,-0.01874,0.0288,-0.014495
2993,0.000481,-0.00469,-0.014495
2994,0.000481,0.012055,-0.050727
2995,-0.037962,-0.00469,-0.032611
2996,0.000481,0.012055,-0.032611
2997,0.000481,-0.00469,0.003621
2998,0.000481,-0.021435,-0.014495
2999,0.000481,0.012055,0.057969
3000,0.000481,0.012055,0.003621
3001,0.000481,0.012055,-0.050727
3002,-0.01874,0.012055,-0.050727
3003,-0.01874,-0.021435,0.003621
3004,-0.037962,-0.00469,-0.014495
3005,-0.037962,0.012055,0.003621
3006,-0.01874,-0.00469,0.003621
3007,-0.01874,-0.00469,-0.014495
3008,-0.01874,-0.021435,0.003621
3009,0.000481,0.012055,0.003621
3010,0.000481,-0.00469,-0.032611
3011,0.000481,-0.00469,0.003621
3012,0.000481,0.012055,-0.050727
3013,0.000481,-0.00469,0.003621
3014,-0.01874,-0.00469,-0.014495
3015,-0.01874,-0.00469,-0.014495
3016,0.000481,-0.00469,0.003621
3017,0.000481,-0.00469,0.021737
3018,-0.037962,-0.021435,-0.014495
3019,0.000481,-0.021435,-0.050727
3020,0.000481,-0.00469,-0.014495
3021,-0.037962,-0.00469,-0.050727
3022,-0.037962,0.012055,-0.050727
3023,-0.01874,0.012055,0.021737
3024,-0.037962,0.012055,0.003621
3025,0.000481,-0.021435,0.021737
3026,0.019703,0.012055,0.003621
3027,0.019703,0.0288,-0.032611
3028,0.000481,0.012055,-0.032611
3029,-0.01874,-0.00469,-0.014495
3030,-0.037962,-0.00469,-0.014495
3031,-0.01874,0.012055,-0.014495
3032,0.000481,0.012055,0.039853
3033,-0.01874,-0.00469,-0.014495
3034,-0.01874,-0.00469,0.039853
3035,0.000481,-0.021435,-0.032611
3036,-0.01874,0.012055,-0.014495
3037,0.000481,-0.00469,-0.032611
3038,0.000481,-0.021435,-0.032611
3039,-0.01874,0.012055,-0.050727
3040,0.019703,0.012055,0.003621
3041,0.019703,-0.00469,0.039853
3042,0.019703,-0.00469,-0.050727
3043,0.019703,0.012055,0.021737
3044,0.000481,0.012055,0.003621
3045,-0.01874,-0.00469,-0.014495
3046,0.019703,0.012055,-0.032611
3047,0.000481,0.012055,-0.014495
3048,-0.01874,-0.021435,-0.032611
3049,0.000481,-0.00469,-0.032611
3050,-0.01874,-0.00469,0.021737
3051,0.000481,-0.021435,-0.032611
3052,-0.01874,0.012055,0.039853
3053,-0.037962,-0.021435,-0.032611
3054,-0.01874,0.012055,-0.014495
3055,-0.01874,0.012055,-0.032611
3056,-0.01874,-0.021435,-0.032611
3057,0.000481,-0.00469,0.003621
3058,0.000481,0.012055,-0.014495
3059,0.058146,0.012055,0.057969
3060,0.11581,0.0288,0.039853
3061,0.038924,0.012055,0.021737
3062,-0.01874,0.0288,-0.014495
3063,-0.057183,0.012055,-0.050727
3064,-0.095626,0.012055,-0.014495
3065,-0.076405,-0.00469,-0.050727
3066,0.000481,-0.00469,-0.014495
3067,0.000481,-0.021435,-0.014495
3068,-0.037962,-0.021435,-0.014495
3069,0.000481,0.012055,0.021737
3070,0.038924,-0.00469,0.021737
3071,0.019703,-0.00469,-0.050727
3072,-0.01874,-0.00469,-0.032611
3073,-0.01874,-0.00469,-0.014495
3074,0.000481,0.012055,-0.032611
3075,0.000481,0.0288,0.003621
3076,0.000481,0.012055,0.021737
3077,-0.01874,0.012055,0.003621
3078,-0.01874,0.012055,0.003621
3079,-0.01874,-0.00469,-0.032611
3080,0.000481,0.012055,-0.032611
3081,-0.01874,-0.00469,-0.050727
3082,0.000481,-0.00469,-0.050727
3083,-0.01874,0.012055,-0.014495
3084,0.000481,-0.00469,0.039853
3085,-0.01874,-0.00469,0.021737
3086,-0.01874,0.012055,-0.032611
3087,0.000481,-0.038179,0.021737
3088,-0.037962,-0.00469,-0.014495
3089,-0.01874,-0.021435,-0.032611
3090,-0.01874,-0.00469,-0.014495
3091,-0.01874,-0.00469,-0.032611
3092,0.000481,-0.00469,-0.014495
3093,0.000481,0.012055,0.003621
3094,-0.01874,-0.021435,0.003621
3095,0.000481,0.012055,-0.050727
3096,-0.01874,0.012055,0.021737
3097,0.019703,-0.00469,-0.014495
3098,0.019703,0.012055,-0.068843
3099,0.000481,0.012055,-0.014495
3100,-0.01874,-0.00469,-0.050727
3101,-0.037962,-0.021435,-0.014495
3102,0.000481,0.012055,0.003621
3103,0.019703,0.012055,0.021737
3104,-0.01874,-0.00469,0.039853
3105,0.000481,0.012055,0.021737
3106,-0.01874,0.0288,0.003621
3107,-0.01874,-0.021435,-0.014495
3108,0.019703,0.012055,-0.014495
3109,0.000481,-0.00469,-0.032611
3110,0.000481,0.012055,-0.014495
3111,0.000481,-0.00469,0.021737
3112,-0.01874,-0.021435,0.003621
3113,-0.01874,-0.00469,0.039853
3114,0.019703,-0.00469,-0.014495
3115,0.000481,0.012055,-0.032611
3116,0.019703,0.012055,-0.050727
3117,-0.01874,-0.00469,0.003621
3118,0.000481,-0.00469,-0.068843
3119,0.000481,-0.021435,0.003621
3120,0.000481,-0.00469,0.039853
3121,0.000481,-0.021435,0.021737
3122,0.000481,-0.00469,-0.014495
3123,-0.01874,-0.00469,0.021737
3124,0.000481,-0.021435,-0.014495
3125,-0.01874,0.045545,-0.032611
3126,0.000481,-0.00469,-0.032611
3127,-0.01874,0.012055,-0.014495
3128,0.000481,0.0288,0.021737
3129,0.000481,-0.00469,0.003621
3130,-0.01874,-0.00469,-0.014495
3131,0.000481,0.0288,0.003621
3132,0.000481,0.012055,-0.014495
3133,0.000481,0.012055,-0.086959
3134,-0.01874,-0.00469,-0.032611
3135,-0.037962,-0.021435,-0.068843
3136,0.000481,-0.021435,0.021737
3137,-0.01874,-0.00469,0.039853
3138,-0.01874,0.012055,0.021737
3139,-0.037962,-0.00469,0.003621
3140,0.000481,0.012055,0.021737
3141,-0.01874,-0.021435,-0.032611
3142,0.000481,-0.00469,-0.032611
3143,0.038924,-0.021435,0.003621
3144,0.038924,0.012055,-0.032611
3145,0.038924,0.012055,-0.014495
3146,0.019703,0.012055,0.021737
3147,0.019703,-0.00469,0.039853
3148,0.000481,-0.038179,-0.014495
3149,0.019703,-0.021435,0.021737
3150,0.019703,-0.021435,-0.014495
3151,0.019703,-0.00469,-0.050727
3152,-0.01874,-0.00469,0.003621
3153,-0.01874,-0.00469,-0.050727
3154,-0.01874,0.0288,0.021737
3155,-0.037962,-0.00469,0.021737
3156,-0.01874,0.0288,-0.032611
3157,0.000481,0.012055,0.039853
3158,0.019703,-0.00469,0.003621
3159,0.038924,0.012055,-0.014495
3160,-0.01874,0.0288,-0.014495
3161,0.019703,-0.00469,0.003621
3162,0.019703,0.045545,-0.032611
3163,0.000481,-0.00469,0.003621
3164,0.019703,-0.00469,0.021737
3165,0.000481,0.012055,0.003621
3166,0.038924,-0.00469,0.039853
3167,0.096589,-0.021435,-0.014495
3168,0.096589,-0.038179,-0.014495
3169,0.058146,-0.00469,-0.050727
3170,-0.01874,-0.00469,-0.032611
3171,-0.095626,-0.021435,-0.050727
3172,-0.114848,0.012055,0.021737
3173,-0.076405,-0.00469,0.021737
3174,0.000481,0.012055,-0.014495
3175,-0.01874,-0.00469,0.039853
3176,-0.057183,-0.00469,-0.014495
3177,0.000481,0.012055,-0.068843
3178,0.000481,-0.021435,0.003621
3179,0.019703,-0.00469,-0.014495
3180,-0.057183,-0.00469,0.003621
3181,-0.01874,-0.00469,0.021737
3182,-0.01874,0.012055,0.003621
3183,0.019703,0.0288,-0.032611
3184,0.038924,0.0288,0.003621
3185,0.096589,-0.021435,-0.032611
3186,0.077367,-0.021435,-0.050727
3187,0.038924,0.0288,-0.014495
3188,-0.01874,-0.00469,-0.050727
3189,-0.037962,-0.00469,0.003621
3190,-0.076405,-0.021435,-0.014495
3191,-0.037962,-0.00469,0.021737
3192,-0.037962,0.012055,0.021737
3193,0.000481,0.012055,0.021737
3194,0.019703,0.012055,-0.014495
3195,0.000481,-0.00469,-0.068843
3196,0.000481,0.012055,0.003621
3197,-0.037962,-0.00469,-0.032611
3198,0.019703,0.0288,-0.014495
3199,0.038924,0.012055,0.003621
3200,0.038924,0.012055,0.003621
3201,0.038924,0.0288,-0.014495
3202,0.019703,0.045545,-0.014495
3203,0.000481,-0.00469,-0.014495
3204,0.019703,0.045545,-0.032611
3205,-0.037962,-0.00469,-0.050727
3206,-0.076405,-0.021435,-0.050727
3207,-0.01874,-0.00469,0.003621
3208,-0.01874,0.0288,0.057969
3209,0.000481,-0.00469,0.003621
3210,0.000481,0.012055,0.021737
3211,0.000481,0.012055,0.021737
3212,0.000481,0.012055,-0.032611
3213,0.000481,-0.00469,-0.032611
3214,0.019703,0.0288,-0.032611
3215,0.000481,0.0288,-0.050727
3216,0.019703,-0.021435,-0.014495
3217,-0.01874,0.012055,0.039853
3218,0.000481,-0.00469,-0.014495
3219,-0.01874,-0.00469,0.076085
3220,0.000481,-0.00469,0.021737
3221,0.038924,-0.021435,-0.050727
3222,0.019703,-0.038179,-0.014495
3223,-0.01874,0.012055,-0.032611
3224,0.000481,0.012055,-0.014495
3225,0.019703,-0.00469,0.021737
3226,0.019703,0.012055,0.039853
3227,0.019703,0.012055,-0.014495
3228,0.000481,-0.00469,0.003621
3229,0.019703,0.012055,-0.014495
3230,0.000481,-0.021435,0.003621
3231,0.000481,0.012055,0.021737
3232,0.000481,-0.021435,-0.032611
3233,0.000481,-0.00469,0.021737
3234,0.000481,-0.00469,0.039853
3235,-0.01874,0.012055,0.021737
3236,-0.01874,0.012055,0.021737
3237,-0.01874,-0.00469,0.003621
3238,0.019703,-0.00469,-0.014495
3239,0.000481,-0.021435,-0.014495
3240,-0.01874,0.012055,0.003621
3241,-0.01874,-0.00469,-0.032611
3242,0.000481,0.012055,0.021737
3243,-0.01874,-0.00469,0.021737
3244,-0.01874,-0.00469,-0.014495
3245,0.019703,0.012055,0.021737
3246,0.019703,-0.00469,0.003621
3247,0.000481,0.012055,-0.050727
3248,0.000481,-0.021435,-0.032611
3249,0.000481,0.012055,0.003621
3250,0.000481,-0.00469,-0.032611
3251,0.019703,0.0288,0.021737
3252,0.019703,0.012055,0.021737
3253,0.000481,-0.00469,-0.014495
3254,-0.01874,-0.021435,0.003621
3255,0.000481,-0.00469,-0.014495
3256,-0.037962,0.012055,-0.014495
3257,-0.01874,-0.00469,0.021737
3258,-0.01874,-0.00469,-0.014495
3259,-0.01874,0.0288,0.003621
3260,0.019703,0.045545,0.003621
3261,0.019703,-0.00469,0.021737
3262,0.019703,-0.00469,-0.014495
3263,-0.037962,-0.00469,0.003621
3264,0.000481,0.012055,-0.014495
3265,0.019703,-0.021435,-0.014495
3266,-0.037962,0.012055,0.021737
3267,-0.01874,-0.00469,-0.050727
3268,-0.037962,0.012055,-0.014495
3269,-0.01874,0.012055,0.039853
3270,0.038924,0.012055,-0.014495
3271,0.000481,0.012055,-0.050727
3272,0.038924,-0.00469,0.021737
3273,0.038924,-0.021435,-0.032611
3274,0.096589,-0.00469,-0.050727
3275,0.077367,-0.00469,-0.014495
3276,0.000481,-0.00469,-0.050727
3277,-0.076405,-0.00469,-0.014495
3278,-0.134069,0.0288,0.057969
3279,-0.134069,-0.021435,0.003621
3280,-0.037962,-0.00469,0.021737
3281,0.058146,-0.00469,-0.014495
3282,0.038924,-0.021435,-0.032611
3283,-0.037962,-0.00469,-0.032611
3284,-0.01874,-0.00469,0.003621
3285,0.019703,0.0288,-0.014495
3286,0.038924,0.012055,-0.032611
3287,0.000481,-0.00469,0.021737
3288,-0.037962,0.012055,0.003621
3289,0.000481,-0.00469,0.021737
3290,-0.01874,0.012055,-0.014495
3291,0.019703,0.012055,-0.050727
3292,0.000481,-0.00469,0.021737
3293,0.000481,0.012055,0.021737
3294,0.019703,-0.00469,-0.014495
3295,0.019703,0.012055,0.003621
3296,0.000481,-0.00469,0.039853
3297,0.000481,0.012055,-0.032611
3298,0.000481,0.012055,0.003621
3299,0.000481,0.012055,-0.032611
3300,0.000481,0.012055,-0.014495
3301,0.019703,-0.00469,0.021737
3302,0.000481,0.012055,-0.050727
3303,-0.01874,0.012055,-0.014495
3304,0.000481,-0.00469,0.021737
3305,-0.01874,0.012055,0.003621
3306,-0.01874,-0.00469,0.003621
3307,0.000481,0.0288,-0.014495
3308,0.000481,0.012055,-0.032611
3309,0.019703,0.012055,0.003621
3310,0.000481,0.0288,0.003621
3311,-0.076405,-0.021435,-0.014495
3312,0.000481,-0.00469,-0.014495
3313,-0.01874,0.012055,0.003621
3314,0.000481,-0.00469,0.003621
3315,0.019703,0.012055,-0.050727
3316,0.038924,0.0288,0.021737
3317,0.058146,0.012055,-0.014495
3318,0.019703,0.012055,-0.068843
3319,-0.01874,0.012055,0.039853
3320,0.000481,0.012055,-0.032611
3321,0.019703,0.012055,-0.032611
3322,0.000481,-0.00469,0.003621
3323,0.000481,0.012055,0.003621
3324,-0.057183,-0.00469,0.039853
3325,-0.037962,-0.038179,-0.014495
3326,0.019703,0.012055,-0.014495
3327,0.019703,0.012055,-0.032611
3328,-0.01874,0.012055,0.003621
3329,-0.01874,-0.00469,-0.014495
3330,0.000481,-0.00469,0.003621
3331,-0.01874,-0.00469,-0.014495
3332,0.000481,-0.021435,0.021737
3333,0.000481,-0.00469,0.003621
3334,-0.037962,-0.00469,-0.014495
3335,0.019703,-0.00469,-0.050727
3336,0.000481,-0.00469,-0.032611
3337,0.000481,-0.021435,-0.014495
3338,-0.01874,-0.021435,-0.014495
3339,0.000481,-0.00469,-0.014495
3340,0.019703,0.012055,0.039853
3341,-0.01874,0.012055,-0.014495
3342,0.000481,0.012055,0.039853
3343,0.019703,0.0288,-0.014495
3344,-0.01874,-0.00469,-0.032611
3345,0.019703,0.0288,-0.014495
3346,0.000481,-0.00469,-0.014495
3347,-0.037962,0.012055,-0.032611
3348,-0.037962,-0.00469,0.039853
3349,-0.01874,-0.021435,0.039853
3350,-0.037962,0.012055,-0.032611
3351,0.019703,0.012055,0.003621
3352,0.000481,-0.021435,-0.032611
3353,0.019703,0.012055,-0.032611
3354,-0.01874,0.012055,-0.032611
3355,0.000481,-0.00469,-0.014495
3356,0.000481,-0.021435,-0.014495
3357,-0.01874,-0.021435,0.003621
3358,0.000481,-0.00469,0.021737
3359,-0.01874,-0.00469,-0.014495
3360,0.000481,-0.00469,-0.014495
3361,0.019703,-0.00469,0.021737
3362,0.019703,0.045545,-0.032611
3363,-0.01874,-0.021435,-0.014495
3364,0.000481,0.012055,-0.032611
3365,-0.01874,-0.00469,-0.014495
3366,0.000481,0.079034,0.021737
3367,-0.01874,0.012055,0.003621
3368,-0.01874,-0.021435,0.021737
3369,0.000481,-0.00469,-0.014495
3370,0.000481,-0.021435,0.003621
3371,0.000481,-0.021435,-0.032611
3372,0.000481,-0.00469,0.021737
3373,-0.01874,0.012055,-0.050727
3374,0.000481,-0.00469,-0.014495
3375,-0.01874,-0.021435,0.039853
3376,0.019703,-0.021435,0.039853
3377,0.000481,-0.021435,0.039853
3378,0.000481,-0.00469,-0.014495
3379,0.000481,-0.00469,-0.050727
3380,0.000481,0.012055,-0.032611
3381,0.000481,0.0288,0.003621
3382,0.000481,-0.00469,-0.014495
3383,-0.01874,0.012055,0.003621
3384,0.000481,0.012055,0.021737
3385,-0.01874,-0.00469,-0.032611
3386,0.000481,-0.00469,0.039853
3387,-0.01874,-0.054924,0.003621
3388,-0.037962,-0.021435,-0.050727
3389,-0.01874,-0.00469,-0.014495
3390,0.000481,-0.00469,-0.032611
3391,-0.01874,-0.00469,-0.014495
3392,0.000481,0.012055,0.021737
3393,0.000481,-0.00469,0.039853
3394,-0.037962,0.012055,-0.032611
3395,0.038924,-0.021435,0.021737
3396,0.019703,0.012055,-0.032611
3397,0.019703,-0.00469,-0.032611
3398,0.000481,0.012055,-0.014495
3399,0.000481,0.012055,-0.014495
3400,0.019703,0.012055,-0.014495
3401,0.077367,0.012055,0.003621
3402,0.038924,-0.00469,0.003621
3403,0.000481,-0.00469,-0.050727
3404,-0.037962,-0.00469,0.021737
3405,-0.114848,0.012055,-0.032611
3406,-0.134069,-0.021435,-0.032611
3407,0.000481,0.012055,0.021737
3408,0.019703,-0.00469,-0.050727
3409,0.000481,0.012055,0.021737
3410,0.019703,0.012055,0.039853
3411,0.000481,0.0288,0.003621
3412,-0.037962,0.0288,0.057969
3413,0.019703,0.012055,0.021737
3414,0.019703,-0.00469,-0.032611
3415,0.038924,-0.00469,-0.014495
3416,0.019703,-0.00469,0.094201
3417,0.000481,-0.00469,-0.050727
3418,0.000481,0.012055,-0.032611
3419,-0.01874,-0.00469,0.021737
3420,-0.037962,0.012055,-0.032611
3421,0.000481,-0.00469,0.039853
3422,0.000481,-0.00469,-0.014495
3423,0.000481,-0.00469,-0.014495
3424,-0.01874,-0.00469,-0.014495
3425,-0.01874,-0.00469,0.021737
3426,-0.037962,0.012055,-0.014495
3427,0.019703,-0.00469,0.039853
3428,0.000481,-0.00469,0.021737
3429,0.019703,-0.00469,0.003621
3430,-0.01874,-0.021435,0.003621
3431,-0.037962,-0.00469,-0.014495
3432,0.000481,-0.00469,-0.050727
3433,-0.01874,0.012055,-0.032611
3434,0.000481,-0.00469,-0.032611
3435,-0.037962,0.012055,-0.014495
3436,-0.01874,-0.021435,0.003621
3437,0.000481,-0.00469,0.039853
3438,0.019703,0.012055,-0.014495
3439,0.000481,-0.00469,0.003621
3440,-0.037962,-0.00469,0.021737
3441,0.000481,-0.00469,-0.050727
3442,-0.037962,-0.00469,0.003621
3443,-0.01874,-0.021435,0.003621
3444,0.000481,-0.00469,0.021737
3445,0.000481,-0.00469,-0.014495
3446,0.019703,0.012055,0.003621
3447,0.000481,-0.021435,-0.032611
3448,-0.01874,-0.00469,0.003621
3449,0.000481,-0.00469,-0.014495
3450,0.019703,0.012055,-0.032611
3451,0.000481,-0.00469,0.021737
3452,0.000481,-0.00469,-0.050727
3453,0.000481,0.012055,0.021737
3454,-0.01874,-0.021435,0.057969
3455,0.000481,0.012055,-0.014495
3456,-0.037962,-0.021435,0.003621
3457,0.019703,-0.00469,0.003621
3458,0.019703,0.0288,-0.050727
3459,0.019703,0.012055,-0.014495
3460,0.000481,-0.00469,-0.032611
3461,-0.01874,-0.00469,-0.032611
3462,-0.01874,-0.021435,-0.014495
3463,0.038924,0.012055,0.003621
3464,0.000481,-0.00469,-0.032611
3465,0.000481,-0.00469,0.003621
3466,0.000481,-0.021435,0.021737
3467,-0.01874,0.012055,-0.032611
3468,-0.01874,-0.00469,-0.032611
3469,-0.01874,-0.021435,0.003621
3470,0.000481,-0.00469,-0.032611
3471,0.019703,-0.021435,-0.014495
3472,-0.01874,0.012055,-0.014495
3473,0.000481,0.012055,0.003621
3474,0.000481,-0.00469,0.021737
3475,0.019703,0.012055,-0.032611
3476,0.019703,-0.00469,-0.050727
3477,-0.01874,0.012055,-0.014495
3478,-0.01874,0.0288,-0.050727
3479,0.000481,-0.00469,-0.014495
3480,0.000481,0.012055,0.057969
3481,0.000481,-0.00469,0.039853
3482,0.000481,-0.00469,0.003621
3483,0.000481,-0.00469,0.021737
3484,0.000481,-0.00469,0.003621
3485,0.019703,-0.00469,-0.032611
3486,0.000481,-0.00469,-0.014495
3487,0.000481,0.012055,-0.032611
3488,-0.01874,-0.00469,0.003621
3489,0.019703,-0.00469,0.021737
3490,-0.01874,-0.00469,0.039853
3491,0.000481,0.012055,-0.032611
3492,-0.01874,0.0288,0.039853
3493,-0.01874,-0.021435,-0.032611
3494,0.000481,-0.00469,-0.032611
3495,0.019703,0.0288,-0.014495
3496,0.038924,-0.00469,-0.032611
3497,0.038924,0.012055,0.003621
3498,-0.037962,-0.021435,-0.014495
3499,-0.076405,0.012055,0.003621
3500,-0.134069,-0.00469,-0.014495
3501,-0.057183,-0.00469,-0.014495
3502,-0.01874,-0.021435,-0.032611
3503,-0.01874,-0.00469,-0.014495
3504,0.000481,-0.00469,0.021737
3505,0.058146,0.012055,-0.068843
3506,0.019703,-0.021435,-0.014495
3507,0.000481,0.012055,-0.014495
3508,0.019703,0.012055,-0.014495
3509,0.038924,0.012055,0.021737
3510,0.077367,0.0288,0.003621
3511,0.058146,-0.00469,-0.068843
3512,0.019703,0.045545,-0.032611
3513,0.019703,0.012055,0.021737
3514,-0.01874,0.012055,-0.014495
3515,-0.037962,-0.00469,0.021737
3516,-0.01874,0.0288,0.003621
3517,0.000481,0.012055,0.003621
3518,-0.01874,-0.00469,-0.014495
3519,0.019703,0.012055,-0.014495
3520,0.019703,-0.00469,-0.014495
3521,0.038924,-0.00469,-0.050727
3522,0.019703,-0.00469,0.003621
3523,0.038924,-0.00469,-0.032611
3524,0.000481,0.012055,-0.014495
3525,-0.01874,0.012055,0.039853
3526,0.000481,-0.00469,0.003621
3527,-0.037962,0.0288,-0.014495
3528,-0.01874,-0.00469,-0.014495
3529,-0.01874,-0.00469,-0.032611
3530,-0.01874,0.012055,-0.032611
3531,-0.01874,0.045545,-0.032611
3532,-0.01874,-0.00469,-0.050727
3533,0.019703,0.012055,-0.014495
3534,0.019703,0.0288,0.039853
3535,0.000481,0.045545,-0.032611
3536,0.000481,-0.021435,-0.014495
3537,-0.01874,-0.00469,-0.014495
3538,0.019703,-0.00469,-0.032611
3539,0.000481,-0.00469,-0.014495
3540,0.000481,0.012055,-0.014495
3541,0.019703,-0.021435,0.021737
3542,0.000481,0.012055,0.039853
3543,-0.01874,-0.00469,0.021737
3544,0.000481,0.012055,0.039853
3545,0.019703,-0.00469,0.039853
3546,0.019703,0.012055,0.003621
3547,0.000481,0.012055,-0.032611
3548,0.000481,-0.00469,0.021737
3549,0.000481,0.06229,-0.032611
3550,-0.01874,-0.00469,0.021737
3551,0.000481,-0.00469,0.003621
3552,-0.01874,-0.00469,0.021737
3553,-0.01874,-0.00469,0.003621
3554,-0.01874,-0.021435,0.003621
3555,-0.01874,-0.021435,-0.032611
3556,-0.01874,-0.00469,-0.014495
3557,-0.01874,-0.00469,-0.014495
3558,-0.01874,-0.00469,-0.014495
3559,-0.01874,-0.00469,0.003621
3560,0.000481,-0.00469,0.021737
3561,-0.01874,-0.021435,0.021737
3562,0.000481,-0.021435,0.003621
3563,0.000481,-0.00469,-0.014495
3564,0.019703,0.012055,-0.014495
3565,-0.01874,-0.00469,-0.068843
3566,-0.01874,0.0288,-0.014495
3567,-0.01874,-0.00469,-0.050727
3568,0.019703,-0.00469,-0.014495
3569,0.000481,-0.00469,0.039853
3570,0.000481,-0.00469,0.003621
3571,0.000481,-0.00469,0.021737
3572,-0.01874,0.012055,0.003621
3573,-0.01874,0.012055,-0.032611
3574,0.000481,-0.00469,-0.032611
3575,0.000481,-0.021435,-0.032611
3576,-0.01874,0.0288,-0.014495
3577,-0.01874,-0.00469,-0.014495
3578,-0.037962,-0.021435,0.021737
3579,-0.01874,-0.00469,-0.014495
3580,-0.01874,-0.00469,-0.014495
3581,-0.01874,0.012055,-0.014495
3582,0.019703,-0.00469,-0.014495
3583,-0.01874,-0.00469,-0.014495
3584,0.019703,-0.00469,-0.032611
3585,0.038924,0.012055,-0.050727
3586,0.019703,-0.00469,0.003621
3587,-0.01874,0.0288,0.003621
3588,0.000481,-0.00469,0.003621
3589,-0.01874,0.012055,0.003621
3590,-0.01874,0.012055,0.003621
3591,0.019703,0.0288,-0.050727
3592,0.077367,-0.00469,-0.032611
3593,0.096589,-0.00469,0.003621
3594,0.038924,0.012055,-0.032611
3595,-0.057183,-0.00469,0.003621
3596,-0.114848,0.012055,0.039853
3597,-0.095626,0.012055,-0.014495
3598,-0.076405,-0.021435,0.021737
3599,0.000481,-0.021435,-0.014495
3600,-0.01874,0.012055,-0.050727
3601,-0.037962,-0.021435,-0.032611
3602,0.000481,-0.00469,-0.014495
3603,-0.01874,-0.00469,-0.032611
3604,-0.01874,0.012055,0.003621
3605,0.038924,0.045545,0.021737
3606,0.019703,0.012055,0.021737
3607,0.038924,0.012055,0.039853
3608,0.038924,-0.00469,0.021737
3609,0.019703,0.012055,-0.050727
3610,0.019703,0.045545,-0.032611
3611,0.019703,0.012055,-0.050727
3612,-0.01874,-0.00469,-0.014495
3613,-0.037962,0.012055,0.039853
3614,-0.01874,0.0288,0.003621
3615,0.019703,-0.00469,0.039853
3616,0.038924,0.0288,0.003621
3617,0.019703,-0.00469,-0.032611
3618,0.019703,-0.00469,-0.014495
3619,0.019703,0.012055,-0.014495
3620,-0.01874,-0.021435,-0.068843
3621,0.019703,-0.00469,0.003621
3622,-0.037962,0.0288,0.039853
3623,0.000481,-0.00469,0.039853
3624,-0.076405,-0.038179,-0.014495
3625,-0.037962,-0.00469,0.003621
3626,0.019703,-0.021435,-0.014495
3627,0.058146,0.012055,-0.014495
3628,0.019703,0.012055,-0.014495
3629,0.019703,-0.021435,-0.050727
3630,0.000481,0.012055,0.003621
3631,-0.01874,-0.00469,0.021737
3632,-0.01874,-0.021435,-0.032611
3633,-0.01874,0.012055,0.021737
3634,0.000481,-0.021435,0.021737
3635,0.000481,-0.00469,-0.050727
3636,-0.01874,-0.00469,-0.032611
3637,-0.01874,-0.00469,-0.014495
3638,0.000481,-0.00469,-0.032611
3639,0.000481,-0.038179,0.021737
3640,-0.01874,-0.00469,0.021737
3641,0.000481,-0.021435,-0.014495
3642,0.000481,-0.00469,0.039853
3643,0.038924,0.012055,-0.014495
3644,-0.01874,-0.00469,-0.068843
3645,-0.01874,-0.00469,-0.014495
3646,0.000481,-0.00469,-0.050727
3647,-0.01874,-0.00469,-0.032611
3648,0.019703,0.012055,0.003621
3649,0.019703,-0.00469,0.021737
3650,0.000481,0.012055,-0.014495
3651,0.000481,0.012055,0.003621
3652,0.000481,-0.021435,0.021737
3653,-0.01874,0.012055,-0.032611
3654,0.038924,0.012055,-0.014495
3655,0.019703,-0.00469,-0.068843
3656,0.019703,-0.00469,0.003621
3657,0.019703,0.012055,0.021737
3658,0.000481,-0.021435,0.039853
3659,0.019703,-0.00469,-0.014495
3660,-0.01874,-0.021435,0.003621
3661,-0.037962,-0.00469,-0.032611
3662,0.000481,-0.00469,-0.050727
3663,0.000481,-0.00469,-0.050727
3664,-0.057183,0.012055,-0.068843
3665,-0.01874,0.012055,-0.014495
3666,0.019703,-0.00469,0.057969
3667,0.000481,-0.021435,0.003621
3668,0.019703,0.012055,0.003621
3669,0.019703,0.012055,-0.032611
3670,0.019703,-0.021435,0.003621
3671,-0.01874,-0.021435,-0.050727
3672,-0.01874,-0.021435,-0.032611
3673,0.000481,-0.00469,-0.032611
3674,-0.01874,0.012055,0.039853
3675,-0.01874,-0.00469,0.039853
3676,-0.01874,-0.00469,0.003621
3677,0.000481,-0.00469,0.039853
3678,0.000481,-0.00469,-0.014495
3679,-0.01874,-0.00469,0.003621
3680,0.000481,-0.00469,-0.014495
3681,0.000481,-0.021435,-0.032611
3682,0.000481,-0.00469,-0.032611
3683,0.019703,-0.021435,0.003621
3684,0.019703,0.012055,0.021737
3685,-0.01874,0.012055,0.021737
3686,-0.01874,-0.00469,0.021737
3687,0.000481,-0.00469,-0.014495
3688,-0.037962,-0.021435,-0.032611
3689,0.019703,-0.038179,0.021737
3690,0.019703,-0.00469,-0.068843
3691,-0.01874,0.012055,0.003621
3692,-0.01874,0.012055,0.057969
3693,-0.01874,0.012055,0.039853
3694,-0.01874,0.0288,0.003621
3695,0.000481,0.012055,-0.014495
3696,-0.01874,0.0288,-0.014495
3697,-0.01874,0.012055,-0.032611
3698,-0.01874,-0.00469,-0.014495
3699,-0.01874,0.0288,0.003621
