# Requested Sampling Rate (Hz):,1000
# Actual Sampling Rate (Hz):,998.459
# Requested Duration (s):,5.0
# Actual Duration (s):,5.05
# REST Calibration:,831.9749657534268,832.2800684931498,831.8001369863033
# MAX Calibration:,884.0000,892.0000,887.0000
# Normalization: MVC-based  (x_norm = (x - REST) / (MAX - REST))
sample_idx,EMG1,EMG2,EMG3
0,-0.01874,0.0288,0.039853
1,0.019703,0.045545,0.021737
2,0.000481,0.012055,0.039853
3,-0.01874,0.0288,-0.014495
4,0.000481,0.0288,-0.014495
5,-0.01874,-0.038179,-0.032611
6,0.000481,-0.088414,-0.014495
7,0.000481,-0.071669,-0.068843
8,0.000481,-0.054924,0.003621
9,0.000481,0.012055,0.021737
10,0.000481,0.079034,0.021737
11,0.000481,0.079034,-0.014495
12,0.019703,0.112524,0.076085
13,0.019703,0.095779,0.021737
14,-0.01874,0.06229,0.003621
15,0.000481,0.045545,-0.032611
16,-0.01874,0.012055,0.003621
17,-0.01874,-0.00469,-0.032611
18,-0.01874,-0.071669,-0.014495
19,0.000481,-0.038179,0.021737
20,0.000481,-0.038179,-0.032611
21,0.000481,-0.021435,0.021737
22,-0.01874,0.079034,-0.032611
23,-0.01874,0.0288,-0.086959
24,-0.01874,0.0288,-0.068843
25,0.000481,0.045545,-0.050727
26,-0.01874,0.0288,-0.032611
27,-0.057183,0.012055,-0.014495
28,-0.01874,-0.00469,0.039853
29,0.000481,-0.00469,0.003621
30,0.000481,-0.00469,0.039853
31,0.000481,-0.00469,0.039853
32,0.019703,-0.00469,0.003621
33,0.000481,-0.038179,0.021737
34,-0.01874,-0.038179,0.021737
35,-0.01874,-0.054924,-0.032611
36,-0.01874,-0.054924,0.003621
37,0.000481,-0.038179,0.021737
38,-0.037962,-0.038179,0.021737
39,0.000481,-0.021435,0.021737
40,0.019703,-0.00469,-0.032611
41,-0.01874,0.045545,-0.032611
42,0.000481,0.012055,-0.050727
43,0.000481,0.012055,-0.014495
44,0.019703,0.06229,-0.032611
45,0.000481,0.06229,0.039853
46,-0.037962,0.045545,0.076085
47,0.000481,0.012055,0.021737
48,0.000481,0.012055,0.039853
49,0.000481,0.012055,0.021737
50,0.000481,-0.00469,0.003621
51,-0.01874,-0.021435,0.021737
52,0.000481,-0.021435,-0.032611
53,-0.01874,-0.00469,-0.050727
54,0.000481,-0.038179,0.021737
55,0.000481,-0.00469,-0.014495
56,0.000481,0.012055,0.021737
57,-0.01874,0.012055,-0.014495
58,0.000481,0.0288,0.003621
59,-0.01874,-0.054924,-0.032611
60,-0.01874,-0.071669,-0.068843
61,-0.01874,-0.054924,-0.050727
62,0.000481,-0.038179,-0.068843
63,-0.01874,-0.00469,-0.032611
64,-0.01874,0.0288,0.003621
65,0.019703,0.0288,0.057969
66,-0.037962,0.0288,0.057969
67,-0.01874,0.045545,0.076085
68,0.019703,0.012055,0.021737
69,-0.01874,-0.038179,-0.014495
70,0.000481,-0.038179,0.039853
71,0.000481,-0.038179,0.003621
72,0.000481,-0.00469,0.021737
73,-0.01874,-0.00469,0.057969
74,-0.01874,0.012055,0.021737
75,0.000481,0.06229,0.039853
76,0.000481,0.012055,0.057969
77,0.000481,0.06229,0.021737
78,-0.037962,0.045545,-0.032611
79,-0.01874,0.012055,-0.032611
80,-0.01874,-0.00469,-0.050727
81,-0.01874,-0.038179,-0.050727
82,0.000481,-0.038179,-0.014495
83,0.019703,-0.054924,-0.032611
84,-0.01874,-0.021435,0.003621
85,0.000481,0.012055,0.003621
86,-0.01874,-0.00469,-0.032611
87,0.000481,0.0288,0.021737
88,0.000481,0.012055,-0.014495
89,0.000481,0.0288,-0.050727
90,-0.01874,-0.021435,0.003621
91,0.019703,-0.00469,0.039853
92,0.019703,0.0288,0.003621
93,0.019703,0.0288,0.021737
94,0.019703,0.012055,0.057969
95,0.019703,-0.00469,0.021737
96,0.000481,-0.021435,0.057969
97,0.000481,-0.038179,0.039853
98,0.000481,-0.021435,-0.014495
99,0.000481,-0.00469,0.021737
100,0.000481,-0.054924,0.021737
101,-0.01874,0.012055,-0.032611
102,0.000481,0.0288,0.003621
103,-0.037962,0.012055,0.003621
104,-0.01874,-0.00469,-0.014495
105,-0.01874,-0.054924,0.039853
106,0.000481,-0.038179,-0.050727
107,-0.01874,-0.021435,-0.032611
108,-0.01874,-0.021435,-0.032611
109,0.000481,0.0288,-0.050727
110,0.000481,0.06229,0.003621
111,0.000481,0.06229,0.003621
112,0.000481,0.095779,0.021737
113,-0.01874,0.045545,0.003621
114,0.000481,0.06229,0.003621
115,0.000481,-0.00469,-0.014495
116,0.000481,-0.00469,0.003621
117,-0.01874,0.012055,0.021737
118,0.000481,0.012055,-0.032611
119,0.019703,0.012055,-0.014495
120,0.000481,0.012055,0.021737
121,0.019703,0.012055,0.021737
122,0.019703,0.0288,0.003621
123,0.000481,0.012055,0.003621
124,0.000481,-0.00469,-0.050727
125,-0.037962,-0.021435,-0.068843
126,0.000481,-0.00469,-0.014495
127,0.000481,-0.038179,-0.050727
128,0.019703,-0.00469,-0.014495
129,0.019703,-0.021435,0.021737
130,0.019703,-0.00469,0.003621
131,-0.01874,-0.00469,0.003621
132,-0.01874,-0.021435,0.039853
133,0.000481,-0.00469,0.003621
134,0.019703,-0.021435,0.003621
135,0.000481,-0.00469,0.021737
136,0.019703,0.012055,0.021737
137,0.038924,-0.021435,0.057969
138,0.000481,0.012055,0.021737
139,0.019703,-0.00469,0.039853
140,-0.01874,-0.021435,0.039853
141,0.000481,-0.021435,0.039853
142,0.000481,-0.038179,-0.014495
143,0.000481,-0.021435,-0.050727
144,0.000481,-0.00469,0.021737
145,-0.037962,0.0288,0.003621
146,-0.037962,0.0288,0.003621
147,-0.01874,-0.00469,-0.014495
148,0.000481,-0.021435,0.003621
149,0.000481,-0.00469,0.039853
150,0.019703,0.0288,0.021737
151,0.000481,0.0288,-0.014495
152,0.000481,0.0288,0.003621
153,-0.057183,0.06229,-0.014495
154,-0.01874,0.045545,0.003621
155,-0.01874,0.012055,0.021737
156,-0.01874,0.012055,0.076085
157,0.000481,-0.00469,0.094201
158,0.000481,-0.038179,0.021737
159,0.000481,-0.054924,0.021737
160,-0.01874,-0.038179,-0.032611
161,-0.037962,-0.021435,-0.050727
162,0.000481,-0.00469,-0.032611
163,-0.01874,-0.038179,-0.050727
164,-0.01874,-0.021435,-0.014495
165,0.019703,-0.00469,-0.014495
166,0.019703,0.06229,0.003621
167,0.000481,0.079034,0.003621
168,0.019703,0.06229,0.039853
169,0.019703,0.079034,0.021737
170,0.019703,0.06229,-0.014495
171,0.000481,0.095779,0.021737
172,0.038924,0.045545,-0.032611
173,0.000481,0.0288,-0.032611
174,-0.01874,0.012055,-0.032611
175,0.000481,0.0288,0.021737
176,0.019703,0.012055,0.003621
177,0.019703,0.012055,0.021737
178,0.000481,0.012055,-0.014495
179,0.000481,-0.00469,-0.050727
180,-0.01874,-0.021435,0.021737
181,0.000481,-0.00469,-0.050727
182,-0.037962,0.012055,-0.050727
183,-0.01874,-0.00469,0.057969
184,-0.01874,-0.00469,-0.014495
185,0.000481,-0.00469,0.057969
186,0.000481,-0.00469,0.057969
187,0.000481,0.012055,0.003621
188,0.019703,-0.021435,-0.050727
189,0.019703,-0.021435,-0.014495
190,0.019703,-0.021435,-0.050727
191,0.000481,-0.00469,-0.032611
192,0.019703,-0.00469,0.021737
193,0.000481,-0.00469,-0.068843
194,-0.057183,-0.00469,0.003621
195,0.019703,0.0288,0.021737
196,0.000481,0.012055,-0.014495
197,0.019703,-0.00469,0.039853
198,-0.037962,-0.038179,-0.032611
199,0.019703,-0.021435,-0.050727
200,0.000481,-0.00469,-0.050727
201,0.000481,-0.021435,-0.014495
202,0.038924,-0.00469,0.021737
203,0.019703,0.012055,0.039853
204,0.000481,0.079034,0.057969
205,-0.01874,-0.021435,0.003621
206,0.000481,-0.038179,-0.014495
207,-0.01874,-0.054924,-0.014495
208,0.000481,-0.021435,-0.068843
209,-0.037962,-0.021435,-0.032611
210,-0.01874,-0.00469,0.039853
211,0.000481,0.0288,0.003621
212,-0.01874,0.0288,0.021737
213,0.019703,0.06229,0.039853
214,-0.01874,0.0288,-0.014495
215,-0.01874,0.012055,0.039853
216,0.019703,-0.038179,0.021737
217,0.000481,-0.054924,-0.032611
218,-0.01874,-0.071669,0.003621
219,-0.01874,-0.088414,-0.014495
220,-0.01874,-0.088414,0.003621
221,0.000481,-0.054924,0.039853
222,-0.01874,-0.021435,0.021737
223,0.019703,0.0288,-0.014495
224,0.019703,0.079034,0.039853
225,0.000481,0.045545,-0.014495
226,-0.01874,0.0288,-0.032611
227,0.000481,0.012055,0.003621
228,0.019703,0.045545,-0.032611
229,-0.01874,0.012055,-0.014495
230,0.019703,0.045545,0.021737
231,0.000481,0.045545,-0.014495
232,0.000481,0.06229,0.003621
233,0.000481,0.045545,0.021737
234,-0.01874,0.06229,-0.014495
235,0.000481,0.045545,-0.050727
236,0.019703,0.0288,0.003621
237,-0.037962,0.0288,-0.068843
238,0.000481,0.0288,-0.032611
239,0.019703,0.0288,0.003621
240,-0.01874,0.0288,0.021737
241,-0.01874,-0.00469,-0.014495
242,-0.01874,-0.00469,0.021737
243,0.000481,-0.00469,0.003621
244,-0.01874,-0.00469,-0.050727
245,0.000481,-0.038179,0.003621
246,0.000481,-0.00469,-0.014495
247,-0.01874,-0.021435,-0.014495
248,0.019703,-0.00469,0.039853
249,0.000481,-0.038179,0.021737
250,0.000481,-0.038179,0.057969
251,0.000481,-0.021435,-0.014495
252,0.000481,0.0288,0.021737
253,0.000481,-0.038179,-0.032611
254,0.019703,-0.038179,0.003621
255,-0.01874,-0.00469,-0.032611
256,0.000481,-0.038179,-0.014495
257,-0.01874,-0.021435,0.021737
258,-0.01874,-0.021435,-0.014495
259,-0.01874,-0.021435,0.021737
260,-0.01874,0.012055,0.021737
261,0.000481,-0.021435,0.003621
262,-0.01874,-0.00469,-0.050727
263,-0.01874,0.012055,0.003621
264,0.000481,0.0288,-0.050727
265,-0.01874,-0.00469,-0.032611
266,0.019703,-0.021435,0.003621
267,0.019703,0.012055,-0.014495
268,0.000481,-0.021435,0.057969
269,0.000481,0.012055,0.039853
270,0.000481,-0.00469,0.003621
271,0.019703,-0.038179,-0.014495
272,-0.01874,-0.038179,-0.032611
273,-0.01874,-0.038179,-0.050727
274,-0.01874,-0.021435,-0.032611
275,-0.01874,-0.021435,0.003621
276,-0.01874,-0.054924,-0.014495
277,-0.01874,-0.00469,-0.014495
278,0.000481,-0.038179,-0.014495
279,0.019703,-0.021435,-0.032611
280,0.000481,0.012055,-0.032611
281,0.019703,-0.00469,-0.032611
282,0.019703,0.012055,-0.014495
283,0.000481,0.045545,-0.014495
284,0.000481,0.06229,-0.014495
285,-0.01874,0.06229,-0.014495
286,0.019703,0.045545,0.003621
287,0.019703,0.06229,0.003621
288,0.019703,0.045545,-0.032611
289,0.000481,0.045545,-0.050727
290,-0.01874,0.012055,-0.032611
291,-0.01874,-0.038179,-0.032611
292,-0.037962,-0.00469,0.021737
293,0.019703,0.012055,0.039853
294,-0.01874,-0.00469,0.039853
295,-0.01874,-0.021435,0.039853
296,-0.01874,-0.021435,0.021737
297,0.000481,-0.021435,0.039853
298,0.038924,-0.00469,0.021737
299,0.019703,-0.00469,0.021737
300,0.000481,-0.021435,0.021737
301,0.000481,-0.00469,0.039853
302,0.019703,-0.00469,0.039853
303,0.000481,0.012055,0.021737
304,0.000481,-0.00469,0.021737
305,0.019703,-0.00469,-0.014495
306,-0.01874,0.045545,-0.050727
307,0.000481,-0.00469,-0.032611
308,0.000481,0.045545,-0.014495
309,0.038924,0.0288,-0.014495
310,0.019703,0.045545,0.039853
311,-0.01874,0.0288,0.039853
312,-0.037962,-0.00469,0.003621
313,0.000481,-0.00469,0.003621
314,0.000481,-0.00469,-0.032611
315,0.000481,-0.021435,-0.086959
316,0.000481,-0.038179,-0.050727
317,-0.037962,-0.038179,-0.068843
318,-0.01874,-0.038179,-0.050727
319,-0.01874,-0.054924,0.003621
320,0.000481,-0.054924,0.021737
321,0.000481,-0.038179,0.021737
322,-0.037962,-0.00469,0.039853
323,-0.01874,0.079034,0.003621
324,-0.01874,0.012055,-0.014495
325,0.019703,0.0288,0.021737
326,0.000481,-0.00469,0.021737
327,0.019703,-0.038179,0.003621
328,0.019703,-0.038179,0.021737
329,-0.01874,-0.038179,0.039853
330,-0.01874,-0.021435,0.021737
331,0.000481,-0.038179,0.021737
332,-0.01874,0.012055,-0.014495
333,0.000481,0.045545,-0.050727
334,0.000481,0.079034,-0.014495
335,0.000481,0.06229,0.003621
336,0.000481,0.0288,0.003621
337,0.000481,0.06229,0.003621
338,0.000481,0.045545,-0.014495
339,0.019703,0.0288,-0.032611
340,-0.01874,0.012055,0.003621
341,-0.01874,0.012055,-0.014495
342,-0.01874,0.012055,-0.050727
343,0.000481,-0.021435,0.003621
344,0.000481,-0.038179,-0.032611
345,0.000481,-0.088414,0.003621
346,0.000481,-0.088414,0.003621
347,0.000481,-0.088414,-0.032611
348,-0.01874,-0.054924,-0.032611
349,0.000481,0.0288,-0.014495
350,0.000481,0.095779,-0.032611
351,-0.01874,0.129269,-0.050727
352,0.000481,0.129269,-0.014495
353,-0.01874,0.06229,0.003621
354,-0.01874,0.045545,0.003621
355,0.019703,0.012055,0.057969
356,0.019703,-0.00469,0.039853
357,0.000481,-0.00469,0.057969
358,0.000481,-0.038179,0.003621
359,0.000481,-0.071669,0.021737
360,-0.01874,-0.054924,0.021737
361,0.000481,-0.038179,0.021737
362,0.000481,-0.021435,0.021737
363,0.000481,-0.021435,0.021737
364,0.000481,-0.021435,0.039853
365,-0.01874,-0.021435,-0.014495
366,-0.01874,0.0288,0.021737
367,0.000481,0.045545,0.021737
368,0.000481,0.095779,0.003621
369,0.000481,0.045545,0.021737
370,0.019703,0.012055,-0.014495
371,0.019703,0.0288,-0.032611
372,0.000481,0.012055,-0.014495
373,-0.01874,-0.00469,0.003621
374,0.000481,0.012055,-0.032611
375,0.000481,-0.00469,-0.014495
376,0.000481,-0.00469,-0.014495
377,-0.01874,-0.021435,-0.050727
378,0.000481,-0.021435,0.003621
379,0.000481,-0.038179,-0.032611
380,-0.01874,-0.071669,-0.032611
381,0.000481,-0.088414,-0.014495
382,0.000481,-0.121903,-0.014495
383,-0.01874,-0.105159,-0.032611
384,-0.01874,-0.088414,0.003621
385,0.000481,-0.038179,0.003621
386,-0.01874,0.06229,0.021737
387,-0.01874,0.079034,0.039853
388,0.000481,0.045545,0.021737
389,0.019703,0.112524,0.003621
390,-0.037962,0.095779,0.039853
391,0.000481,0.079034,-0.014495
392,0.019703,0.079034,-0.014495
393,0.019703,0.079034,0.021737
394,0.019703,0.0288,0.039853
395,0.019703,0.045545,0.021737
396,0.000481,0.012055,0.039853
397,0.019703,-0.00469,-0.032611
398,-0.01874,-0.00469,-0.014495
399,0.000481,-0.021435,0.021737
400,0.000481,-0.088414,-0.032611
401,0.000481,-0.121903,-0.032611
402,0.000481,-0.105159,-0.014495
403,-0.01874,-0.054924,-0.014495
404,0.000481,-0.021435,-0.014495
405,-0.01874,0.0288,0.039853
406,0.000481,0.06229,-0.014495
407,-0.01874,0.079034,-0.050727
408,0.000481,0.06229,0.039853
409,0.000481,0.045545,0.003621
410,0.000481,-0.021435,0.003621
411,0.000481,-0.021435,0.021737
412,0.000481,-0.021435,0.021737
413,-0.01874,-0.021435,-0.014495
414,-0.037962,-0.021435,0.021737
415,-0.037962,-0.021435,0.021737
416,-0.01874,0.012055,0.039853
417,0.019703,-0.021435,0.021737
418,0.000481,-0.00469,0.003621
419,0.000481,0.012055,0.003621
420,-0.01874,0.0288,0.021737
421,-0.01874,-0.00469,0.039853
422,0.019703,-0.038179,0.003621
423,0.000481,-0.054924,0.039853
424,0.000481,-0.021435,-0.014495
425,0.000481,0.0288,0.003621
426,0.019703,0.0288,-0.050727
427,-0.01874,0.095779,-0.032611
428,0.000481,0.079034,0.003621
429,0.000481,0.045545,0.003621
430,0.000481,-0.021435,0.021737
431,0.019703,-0.071669,-0.014495
432,0.000481,-0.054924,0.021737
433,0.000481,-0.054924,-0.050727
434,0.000481,-0.00469,-0.014495
435,0.000481,-0.038179,-0.014495
436,0.000481,-0.021435,-0.014495
437,0.000481,-0.021435,-0.068843
438,-0.01874,-0.021435,0.003621
439,0.000481,-0.021435,0.039853
440,0.000481,-0.021435,-0.050727
441,-0.01874,0.012055,0.021737
442,-0.01874,0.012055,-0.014495
443,-0.037962,0.012055,0.003621
444,-0.01874,0.045545,0.021737
445,-0.01874,0.012055,0.003621
446,0.000481,0.012055,-0.014495
447,0.000481,-0.00469,0.021737
448,0.000481,0.012055,-0.032611
449,-0.01874,-0.021435,0.021737
450,-0.01874,0.012055,0.021737
451,-0.01874,-0.038179,0.003621
452,-0.01874,-0.038179,0.003621
453,-0.01874,0.012055,0.021737
454,0.000481,-0.00469,-0.014495
455,-0.01874,-0.021435,-0.014495
456,-0.037962,0.012055,0.021737
457,0.000481,-0.021435,-0.032611
458,0.000481,0.012055,0.003621
459,0.000481,-0.00469,0.003621
460,0.000481,-0.021435,-0.014495
461,0.000481,-0.054924,-0.014495
462,0.000481,-0.105159,0.003621
463,-0.01874,-0.071669,-0.050727
464,-0.01874,-0.071669,-0.086959
465,0.000481,-0.021435,0.003621
466,0.000481,0.045545,-0.032611
467,0.000481,0.0288,0.021737
468,-0.01874,0.045545,0.021737
469,-0.01874,0.045545,0.039853
470,0.000481,0.045545,0.003621
471,0.000481,0.045545,0.003621
472,0.019703,0.06229,-0.032611
473,0.019703,0.045545,-0.032611
474,-0.037962,0.012055,0.003621
475,-0.01874,-0.00469,-0.032611
476,-0.01874,-0.00469,-0.014495
477,0.000481,-0.038179,0.057969
478,-0.037962,-0.071669,0.021737
479,-0.01874,-0.121903,0.057969
480,-0.01874,-0.121903,0.003621
481,-0.037962,-0.105159,-0.014495
482,-0.01874,-0.138648,-0.032611
483,0.000481,-0.121903,0.003621
484,0.000481,-0.038179,-0.032611
485,0.000481,0.045545,0.003621
486,0.038924,0.012055,0.039853
487,-0.01874,0.045545,0.003621
488,-0.037962,0.079034,0.021737
489,0.000481,0.162759,0.057969
490,0.038924,0.229738,0.021737
491,0.000481,0.212993,-0.014495
492,0.000481,0.146014,0.003621
493,0.019703,0.112524,-0.068843
494,0.019703,0.079034,-0.014495
495,0.000481,-0.00469,-0.014495
496,0.038924,-0.00469,0.021737
497,0.019703,0.0288,0.021737
498,0.019703,-0.021435,0.057969
499,0.000481,-0.021435,0.021737
500,0.019703,-0.00469,0.003621
501,0.000481,-0.021435,0.003621
502,0.000481,0.012055,-0.050727
503,0.000481,-0.021435,-0.050727
504,-0.037962,-0.054924,-0.050727
505,-0.01874,-0.00469,-0.014495
506,-0.01874,-0.054924,-0.032611
507,0.000481,-0.038179,0.021737
508,0.019703,-0.071669,0.003621
509,0.000481,-0.071669,-0.014495
510,-0.01874,-0.088414,0.021737
511,-0.01874,-0.088414,0.021737
512,0.000481,-0.021435,-0.014495
513,0.000481,0.06229,0.021737
514,0.019703,0.079034,-0.014495
515,-0.01874,0.079034,0.003621
516,-0.01874,0.045545,0.039853
517,0.000481,0.012055,0.003621
518,0.019703,-0.021435,-0.050727
519,-0.01874,0.012055,0.021737
520,0.019703,-0.038179,0.003621
521,0.000481,-0.038179,0.021737
522,0.000481,0.0288,0.003621
523,0.000481,-0.00469,-0.014495
524,-0.037962,0.012055,0.003621
525,0.019703,0.012055,0.057969
526,0.019703,0.0288,0.003621
527,0.000481,0.095779,0.003621
528,0.000481,0.045545,-0.014495
529,-0.01874,0.0288,-0.014495
530,-0.01874,-0.00469,0.003621
531,0.000481,-0.00469,0.003621
532,0.000481,-0.00469,-0.014495
533,0.019703,-0.021435,0.003621
534,-0.01874,-0.038179,0.003621
535,-0.01874,-0.021435,-0.032611
536,-0.01874,-0.021435,0.021737
537,-0.01874,-0.038179,-0.014495
538,0.000481,-0.038179,-0.032611
539,-0.01874,-0.038179,-0.032611
540,-0.037962,-0.088414,0.039853
541,0.000481,-0.088414,-0.014495
542,-0.037962,-0.088414,-0.014495
543,-0.01874,-0.038179,0.057969
544,0.019703,-0.071669,-0.014495
545,0.019703,-0.054924,0.057969
546,0.019703,-0.021435,-0.014495
547,0.019703,-0.00469,-0.014495
548,0.019703,0.079034,-0.032611
549,0.000481,0.079034,-0.014495
550,0.000481,0.146014,-0.050727
551,-0.01874,0.129269,0.003621
552,0.019703,0.095779,0.021737
553,0.019703,0.079034,0.003621
554,0.019703,0.06229,0.021737
555,0.000481,0.0288,0.021737
556,0.019703,-0.00469,0.003621
557,0.000481,-0.038179,-0.014495
558,0.000481,0.012055,-0.014495
559,0.000481,-0.054924,0.021737
560,-0.01874,-0.054924,0.003621
561,-0.01874,-0.038179,0.021737
562,0.019703,-0.038179,-0.014495
563,-0.01874,0.012055,0.003621
564,0.019703,0.0288,0.003621
565,0.019703,-0.038179,-0.014495
566,-0.01874,-0.054924,-0.050727
567,-0.01874,-0.021435,-0.050727
568,0.019703,-0.021435,-0.032611
569,0.000481,-0.071669,-0.032611
570,0.019703,-0.071669,0.003621
571,-0.01874,-0.121903,0.003621
572,-0.01874,-0.088414,0.021737
573,0.000481,-0.038179,0.057969
574,-0.01874,-0.121903,0.021737
575,-0.037962,-0.222372,-0.032611
576,-0.057183,-0.205628,0.021737
577,-0.037962,-0.088414,-0.014495
578,-0.01874,0.012055,-0.014495
579,-0.01874,0.06229,0.021737
580,0.000481,0.06229,0.003621
581,0.038924,0.129269,0.003621
582,0.058146,0.179503,-0.014495
583,0.038924,0.196248,0.003621
584,0.096589,0.162759,-0.032611
585,0.058146,0.212993,0.057969
586,0.038924,0.162759,-0.014495
587,0.019703,0.146014,0.039853
588,0.000481,0.129269,0.057969
589,0.000481,0.06229,0.057969
590,0.019703,-0.00469,0.039853
591,-0.01874,-0.088414,0.057969
592,-0.037962,-0.071669,-0.014495
593,-0.037962,-0.071669,-0.032611
594,-0.037962,-0.038179,-0.032611
595,-0.01874,-0.038179,-0.032611
596,-0.01874,0.012055,-0.032611
597,0.019703,0.012055,-0.014495
598,0.000481,0.012055,-0.014495
599,-0.01874,-0.00469,-0.032611
600,-0.037962,-0.021435,0.039853
601,-0.01874,0.012055,0.003621
602,0.000481,0.06229,-0.014495
603,-0.037962,0.079034,-0.014495
604,0.000481,0.0288,-0.068843
605,-0.037962,-0.021435,-0.050727
606,-0.037962,-0.00469,-0.014495
607,-0.01874,0.012055,-0.032611
608,-0.037962,-0.038179,0.003621
609,-0.037962,-0.172138,0.003621
610,0.000481,-0.239117,0.039853
611,-0.01874,-0.222372,0.003621
612,-0.01874,-0.272607,-0.014495
613,-0.037962,-0.222372,-0.014495
614,-0.01874,-0.054924,0.057969
615,0.000481,-0.00469,0.076085
616,0.038924,0.045545,0.003621
617,0.019703,0.079034,0.021737
618,0.038924,0.079034,0.039853
619,0.019703,0.045545,-0.014495
620,-0.01874,0.112524,0.021737
621,0.000481,0.146014,0.039853
622,0.000481,0.129269,-0.050727
623,-0.01874,0.112524,-0.014495
624,0.000481,0.212993,-0.050727
625,0.019703,0.179503,-0.032611
626,0.000481,0.179503,-0.014495
627,0.019703,0.079034,-0.032611
628,0.038924,0.0288,-0.014495
629,-0.01874,0.012055,0.003621
630,-0.01874,-0.105159,-0.032611
631,-0.057183,-0.239117,-0.032611
632,-0.01874,-0.306097,0.021737
633,-0.037962,-0.255862,-0.032611
634,-0.037962,-0.155393,0.003621
635,-0.01874,-0.138648,0.039853
636,-0.01874,-0.121903,0.021737
637,-0.037962,-0.054924,-0.014495
638,0.000481,0.06229,0.039853
639,0.019703,0.212993,-0.014495
640,-0.01874,0.129269,-0.032611
641,-0.01874,0.095779,-0.014495
642,0.000481,0.095779,-0.050727
643,0.038924,0.212993,-0.014495
644,0.058146,0.263228,0.039853
645,0.038924,0.162759,-0.014495
646,0.038924,-0.105159,0.057969
647,0.000481,-0.205628,0.039853
648,-0.01874,-0.239117,0.003621
649,-0.037962,-0.255862,-0.032611
650,-0.037962,-0.088414,-0.032611
651,-0.037962,0.079034,-0.068843
652,0.000481,0.129269,-0.014495
653,0.019703,0.146014,0.021737
654,0.000481,0.045545,0.003621
655,-0.01874,0.0288,0.003621
656,0.000481,0.079034,0.021737
657,-0.01874,0.045545,-0.032611
658,-0.01874,0.045545,-0.032611
659,-0.037962,0.095779,-0.032611
660,-0.01874,0.146014,-0.032611
661,0.019703,0.146014,0.003621
662,0.019703,0.045545,0.003621
663,0.019703,0.0288,-0.014495
664,0.019703,-0.00469,0.021737
665,0.000481,-0.038179,0.003621
666,-0.01874,0.012055,0.003621
667,0.000481,0.012055,-0.014495
668,0.000481,-0.021435,0.021737
669,-0.037962,0.0288,0.003621
670,-0.01874,-0.038179,0.021737
671,-0.037962,-0.138648,0.039853
672,-0.01874,-0.155393,0.057969
673,-0.037962,-0.088414,0.076085
674,-0.037962,-0.021435,0.039853
675,-0.01874,0.06229,-0.032611
676,-0.01874,0.095779,-0.032611
677,0.000481,0.0288,-0.050727
678,0.000481,0.079034,-0.032611
679,0.038924,0.196248,0.021737
680,0.058146,0.06229,0.021737
681,0.000481,-0.088414,0.057969
682,-0.037962,-0.155393,0.094201
683,0.000481,-0.188883,0.021737
684,0.000481,-0.105159,0.021737
685,-0.037962,0.0288,-0.014495
686,0.000481,0.095779,-0.014495
687,-0.01874,0.012055,-0.032611
688,-0.01874,-0.188883,-0.032611
689,-0.037962,-0.306097,0.021737
690,-0.01874,-0.289352,0.021737
691,-0.057183,-0.339586,-0.032611
692,-0.076405,-0.205628,0.003621
693,-0.01874,0.045545,-0.032611
694,0.000481,0.162759,-0.050727
695,0.000481,0.346952,-0.032611
696,-0.037962,0.346952,-0.014495
697,-0.114848,0.095779,0.003621
698,-0.172512,-0.155393,0.021737
699,-0.153291,-0.306097,-0.032611
700,-0.095626,-0.306097,-0.014495
701,-0.01874,-0.289352,0.021737
702,0.096589,-0.105159,-0.014495
703,0.192696,0.112524,-0.014495
704,0.192696,0.246483,-0.014495
705,0.096589,0.179503,-0.014495
706,0.096589,0.06229,-0.032611
707,0.058146,-0.038179,0.003621
708,0.038924,-0.054924,-0.014495
709,0.000481,-0.038179,0.021737
710,-0.01874,0.06229,0.021737
711,0.000481,0.212993,-0.014495
712,0.000481,0.246483,0.021737
713,0.019703,0.146014,0.003621
714,0.000481,0.112524,-0.014495
715,0.019703,0.045545,-0.032611
716,0.000481,-0.071669,-0.014495
717,-0.01874,-0.071669,-0.014495
718,0.000481,0.045545,0.003621
719,0.019703,-0.188883,0.057969
720,-0.01874,-0.205628,0.021737
721,-0.01874,0.045545,0.003621
722,-0.01874,0.313462,-0.032611
723,0.000481,0.430676,-0.050727
724,-0.01874,0.313462,-0.068843
725,-0.01874,0.162759,0.003621
726,-0.057183,-0.088414,-0.050727
727,0.000481,-0.205628,0.021737
728,0.000481,-0.373076,0.039853
729,-0.057183,-0.4568,-0.032611
730,-0.076405,-0.306097,0.003621
731,-0.057183,-0.121903,-0.032611
732,0.019703,0.146014,-0.068843
733,0.038924,0.179503,-0.032611
734,0.038924,0.162759,-0.014495
735,0.000481,-0.00469,-0.014495
736,0.038924,-0.054924,0.021737
737,0.000481,-0.054924,0.021737
738,-0.01874,0.179503,-0.014495
739,-0.037962,0.196248,0.057969
740,0.019703,0.296717,0.003621
741,0.000481,0.129269,-0.032611
742,-0.037962,0.045545,-0.032611
743,-0.057183,-0.105159,-0.032611
744,-0.095626,-0.222372,-0.032611
745,-0.057183,-0.255862,-0.032611
746,-0.057183,-0.289352,0.039853
747,-0.057183,-0.339586,-0.014495
748,-0.037962,-0.42331,0.039853
749,-0.037962,-0.205628,0.003621
750,0.019703,0.112524,-0.014495
751,0.019703,0.246483,-0.086959
752,0.077367,0.681848,-0.050727
753,0.154253,0.732083,-0.014495
754,0.154253,0.313462,0.039853
755,0.019703,0.045545,0.039853
756,0.000481,-0.155393,-0.014495
757,0.019703,-0.071669,0.021737
758,0.000481,0.06229,-0.032611
759,-0.01874,0.279972,0.003621
760,0.000481,0.397186,0.021737
761,-0.01874,0.196248,0.021737
762,-0.037962,-0.188883,0.021737
763,-0.076405,-0.406566,0.003621
764,-0.057183,-0.222372,0.021737
765,-0.057183,-0.205628,-0.050727
766,-0.095626,-0.322841,0.003621
767,-0.057183,-0.322841,-0.014495
768,0.000481,-0.121903,0.003621
769,0.135032,-0.172138,0.003621
770,0.154253,-0.121903,0.003621
771,0.173475,-0.188883,-0.050727
772,0.096589,-0.021435,-0.032611
773,0.038924,-0.054924,0.003621
774,-0.230177,-0.289352,0.003621
775,-0.191734,-0.356331,0.039853
776,-0.114848,-0.574014,0.076085
777,-0.230177,-0.523779,0.003621
778,-0.345506,-0.473545,-0.032611
779,-0.134069,-0.00469,-0.068843
780,0.077367,0.330207,-0.068843
781,0.192696,0.782317,0.021737
782,0.11581,0.631614,0.057969
783,0.038924,0.229738,0.039853
784,-0.26862,-0.624248,0.112317
785,-0.326285,-0.858676,0.076085
786,-0.326285,-0.356331,0.057969
787,-0.345506,-0.406566,-0.014495
788,-0.249399,0.229738,-0.014495
789,-0.307063,0.447421,-0.050727
790,-0.210955,0.380441,-0.032611
791,0.36569,0.581379,-0.014495
792,0.673234,0.162759,0.003621
793,0.596348,-0.00469,-0.050727
794,0.519462,0.0288,-0.086959
795,0.711677,0.313462,-0.068843
796,0.673234,0.54789,0.039853
797,0.519462,0.866041,0.112317
798,0.423355,0.346952,0.076085
799,-0.172512,-0.188883,0.039853
800,0.000481,-0.038179,0.003621
801,0.154253,-0.356331,-0.050727
802,0.11581,-0.088414,-0.014495
803,-0.172512,-0.138648,-0.032611
804,-0.633829,0.212993,-0.014495
805,-0.422392,0.581379,0.003621
806,-0.537721,0.095779,0.021737
807,-0.422392,-1.227062,0.003621
808,-0.230177,-1.444745,0.112317
809,-0.095626,-1.327531,0.039853
810,0.557905,-1.009379,0.021737
811,0.865449,-0.49029,-0.014495
812,1.134551,0.296717,-0.141307
813,0.788563,1.083724,-0.105075
814,-0.26862,1.569324,-0.123191
815,-0.960595,1.351641,-0.068843
816,-1.15281,1.03349,-0.141307
817,-0.556943,1.03349,-0.032611
818,0.154253,1.535835,0.021737
819,0.077367,0.447421,0.039853
820,-0.114848,-0.507035,0.021737
821,-0.326285,-1.093104,0.021737
822,-0.5185,-1.980579,0.057969
823,0.000481,-1.997324,0.039853
824,0.269582,-1.361021,0.057969
825,0.596348,-1.009379,0.076085
826,0.769342,-0.255862,0.021737
827,0.000481,0.279972,-0.014495
828,-0.556943,1.318152,-0.032611
829,-0.422392,1.552579,0.003621
830,0.231139,0.698593,-0.032611
831,1.115329,1.016745,0.094201
832,0.923114,0.212993,0.112317
833,0.692456,-0.205628,-0.014495
834,-0.057183,0.129269,-0.123191
835,-0.403171,1.217683,-0.123191
836,-0.383949,2.222372,-0.159423
837,-0.26862,1.653048,-0.068843
838,0.442576,0.96651,0.130433
839,0.135032,-0.255862,0.076085
840,0.346468,-0.825186,0.057969
841,0.711677,-1.143338,0.003621
842,0.557905,-1.109848,0.003621
843,-0.057183,-0.758207,-0.068843
844,-1.075924,-0.406566,-0.050727
845,-0.749158,-0.741462,-0.231887
846,0.173475,-0.038179,-0.105075
847,0.384912,0.246483,-0.014495
848,0.038924,0.313462,0.003621
849,-0.672272,-0.289352,-0.014495
850,-0.057183,-0.825186,-0.068843
851,0.481019,-0.49029,-0.014495
852,-0.499278,-0.406566,-0.141307
853,-0.999038,0.330207,-0.105075
854,-0.26862,0.799062,-0.032611
855,-0.345506,0.614869,0.039853
856,0.269582,0.715338,0.130433
857,0.173475,0.397186,0.112317
858,-0.480057,-0.239117,0.057969
859,-0.480057,0.330207,0.039853
860,-1.306582,0.447421,-0.014495
861,-0.537721,0.0288,-0.105075
862,0.461798,0.196248,-0.105075
863,0.942335,-0.054924,-0.050727
864,0.903892,-0.255862,0.057969
865,0.654013,-0.640993,0.003621
866,0.250361,-0.624248,0.021737
867,0.231139,-0.356331,0.021737
868,-0.941373,0.179503,-0.014495
869,-0.307063,0.882786,0.039853
870,0.11581,-0.222372,0.039853
871,0.058146,-1.746152,0.057969
872,0.135032,-2.114538,0.021737
873,0.038924,-1.411255,-0.014495
874,0.269582,-0.272607,0.094201
875,0.135032,1.117214,0.057969
876,0.154253,1.083724,-0.068843
877,-0.595386,0.983255,-0.123191
878,-0.787601,0.715338,-0.068843
879,-0.422392,0.045545,-0.014495
880,-0.287842,0.246483,0.076085
881,-0.191734,-0.523779,0.039853
882,-0.26862,-0.657738,-0.014495
883,0.077367,-0.021435,0.021737
884,1.192215,0.933021,0.112317
885,0.634791,0.531145,0.112317
886,-0.095626,0.363697,0.039853
887,-0.076405,0.162759,-0.050727
888,-0.01874,0.581379,-0.032611
889,0.519462,0.497655,-0.032611
890,-0.076405,0.681848,-0.105075
891,-0.595386,0.447421,-0.014495
892,-0.460835,-0.155393,0.039853
893,0.038924,-0.272607,0.021737
894,0.192696,-0.825186,0.039853
895,-0.230177,-1.963835,-0.014495
896,-0.691493,-2.198262,-0.050727
897,0.346468,-1.243807,-0.068843
898,0.827006,-0.255862,-0.032611
899,-0.057183,1.016745,-0.105075
900,-0.729936,2.389821,0.076085
901,-0.691493,1.184193,0.021737
902,-0.806822,-0.306097,-0.105075
903,0.807785,-0.507035,-0.068843
904,0.673234,-0.389821,-0.032611
905,0.096589,0.279972,0.003621
906,-0.441614,0.330207,-0.105075
907,-0.5185,0.581379,-0.050727
908,0.000481,0.96651,0.021737
909,0.231139,0.949766,0.076085
910,0.058146,0.732083,0.039853
911,-0.037962,0.363697,-0.014495
912,0.077367,-0.00469,-0.014495
913,-0.095626,-0.205628,-0.032611
914,-0.057183,-0.373076,-0.014495
915,-0.057183,-0.373076,-0.014495
916,-0.037962,-0.406566,-0.086959
917,-0.095626,-0.440055,-0.068843
918,-0.095626,-0.188883,-0.014495
919,-0.114848,-0.172138,-0.014495
920,-0.134069,-0.306097,-0.032611
921,-0.134069,-0.272607,-0.014495
922,-0.095626,-0.021435,-0.032611
923,0.000481,0.212993,0.003621
924,-0.037962,0.0288,0.021737
925,-0.037962,-0.172138,0.039853
926,-0.01874,-0.306097,0.057969
927,-0.076405,-0.339586,0.021737
928,-0.076405,-0.523779,-0.050727
929,-0.095626,-1.109848,-0.032611
930,-0.153291,-1.444745,-0.032611
931,-0.191734,-0.959145,-0.014495
932,-0.210955,-0.607504,0.021737
933,-0.095626,-0.791697,0.057969
934,0.038924,-0.657738,0.076085
935,-0.076405,-0.724717,-0.050727
936,-0.134069,-0.306097,-0.123191
937,0.211918,1.837241,-0.050727
938,0.461798,2.674483,0.112317
939,0.11581,2.054924,0.057969
940,0.019703,0.96651,0.039853
941,0.038924,0.397186,0.057969
942,0.038924,0.229738,0.039853
943,0.173475,0.095779,-0.014495
944,0.288804,0.162759,0.003621
945,0.135032,0.212993,-0.032611
946,0.000481,0.129269,-0.068843
947,0.11581,0.012055,0.003621
948,0.019703,-0.088414,0.094201
949,-0.076405,-0.121903,0.039853
950,-0.230177,-0.138648,0.039853
951,-0.153291,-0.172138,0.057969
952,-0.095626,-0.121903,0.003621
953,-0.076405,-0.172138,-0.032611
954,-0.057183,-0.188883,0.021737
955,-0.037962,-0.172138,0.057969
956,-0.037962,-0.155393,0.094201
957,-0.01874,-0.205628,0.003621
958,-0.01874,-0.322841,-0.086959
959,-0.057183,-0.49029,-0.050727
960,-0.076405,-0.674483,-0.032611
961,-0.095626,-0.858676,0.003621
962,-0.076405,-0.691228,-0.032611
963,-0.076405,-0.640993,-0.068843
964,-0.057183,-0.49029,-0.068843
965,0.000481,-0.155393,-0.068843
966,0.019703,0.363697,-0.014495
967,0.058146,0.681848,-0.014495
968,0.135032,1.083724,0.039853
969,0.173475,0.799062,0.076085
970,0.11581,0.48091,0.021737
971,0.019703,0.196248,-0.014495
972,0.019703,0.06229,0.021737
973,-0.01874,-0.00469,-0.068843
974,-0.057183,-0.054924,-0.014495
975,-0.037962,0.0288,0.003621
976,-0.01874,-0.038179,-0.032611
977,0.000481,-0.138648,0.003621
978,0.058146,-0.071669,-0.014495
979,0.019703,0.012055,-0.032611
980,-0.037962,-0.071669,-0.105075
981,0.000481,-0.105159,-0.050727
982,-0.037962,-0.121903,-0.068843
983,-0.01874,-0.105159,-0.014495
984,-0.01874,-0.121903,0.039853
985,-0.01874,-0.105159,0.021737
986,-0.01874,-0.138648,0.039853
987,-0.057183,-0.188883,0.003621
988,-0.037962,-0.691228,-0.032611
989,-0.057183,-0.90891,-0.032611
990,-0.076405,-0.724717,0.003621
991,-0.114848,-0.507035,-0.032611
992,-0.01874,0.179503,0.057969
993,0.11581,1.184193,0.148549
994,0.019703,0.06229,0.076085
995,-0.037962,-0.440055,0.057969
996,0.000481,-0.322841,0.021737
997,0.000481,0.296717,0.003621
998,0.11581,0.698593,0.057969
999,0.058146,0.564634,0.039853
1000,0.058146,0.413931,0.021737
1001,0.058146,0.363697,0.076085
1002,0.058146,0.212993,0.021737
1003,0.019703,0.162759,0.057969
1004,0.000481,0.079034,0.057969
1005,0.019703,0.045545,0.057969
1006,0.000481,-0.00469,-0.014495
1007,0.000481,-0.038179,0.039853
1008,0.000481,-0.021435,0.021737
1009,0.038924,-0.038179,0.076085
1010,0.000481,-0.038179,0.112317
1011,0.019703,-0.038179,0.148549
1012,0.000481,-0.054924,0.076085
1013,0.000481,-0.038179,0.094201
1014,-0.01874,-0.054924,0.076085
1015,-0.01874,-0.054924,0.039853
1016,-0.037962,-0.071669,-0.032611
1017,-0.01874,-0.105159,-0.105075
1018,-0.01874,-0.121903,-0.195655
1019,-0.01874,-0.138648,-0.177539
1020,0.000481,-0.138648,-0.213771
1021,-0.01874,-0.172138,-0.141307
1022,-0.01874,-0.306097,-0.050727
1023,-0.037962,-0.473545,-0.014495
1024,-0.037962,-0.373076,0.021737
1025,-0.01874,-0.121903,0.039853
1026,-0.01874,-0.071669,-0.050727
1027,0.058146,0.447421,-0.014495
1028,0.077367,0.363697,0.021737
1029,0.038924,0.079034,-0.032611
1030,0.019703,0.0288,0.021737
1031,0.000481,0.112524,-0.014495
1032,0.019703,0.212993,0.039853
1033,0.000481,0.129269,-0.050727
1034,0.000481,0.045545,-0.032611
1035,0.019703,0.012055,0.003621
1036,0.019703,0.012055,0.003621
1037,0.019703,0.0288,0.076085
1038,0.019703,0.012055,0.094201
1039,0.019703,0.012055,0.112317
1040,0.000481,0.0288,0.130433
1041,0.000481,-0.021435,0.094201
1042,-0.037962,0.012055,0.094201
1043,-0.037962,-0.021435,0.112317
1044,-0.037962,-0.021435,0.003621
1045,-0.037962,-0.038179,-0.068843
1046,-0.037962,-0.088414,-0.105075
1047,-0.01874,-0.071669,-0.123191
1048,0.000481,-0.071669,-0.105075
1049,0.000481,-0.054924,-0.032611
1050,0.000481,-0.088414,-0.032611
1051,-0.01874,-0.071669,0.003621
1052,-0.01874,-0.088414,0.021737
1053,0.000481,-0.071669,0.003621
1054,0.019703,-0.088414,-0.014495
1055,-0.01874,-0.054924,-0.014495
1056,0.038924,0.045545,-0.032611
1057,0.019703,0.0288,-0.014495
1058,-0.01874,-0.021435,0.003621
1059,0.038924,0.045545,0.076085
1060,0.038924,0.129269,0.021737
1061,0.019703,0.079034,0.021737
1062,0.038924,0.112524,0.021737
1063,0.038924,0.0288,-0.014495
1064,0.019703,0.0288,0.003621
1065,0.000481,0.012055,-0.014495
1066,0.000481,0.012055,0.039853
1067,0.000481,0.012055,0.057969
1068,0.019703,0.0288,0.112317
1069,0.019703,0.045545,0.021737
1070,0.019703,0.0288,0.076085
1071,0.000481,-0.00469,0.021737
1072,0.000481,-0.054924,-0.014495
1073,0.000481,-0.172138,0.003621
1074,-0.037962,-0.188883,-0.050727
1075,-0.057183,-0.188883,-0.123191
1076,-0.01874,-0.138648,-0.086959
1077,0.000481,-0.172138,-0.068843
1078,0.000481,-0.121903,-0.086959
1079,0.019703,-0.172138,-0.050727
1080,-0.037962,-0.306097,-0.050727
1081,0.000481,-0.121903,-0.068843
1082,0.019703,0.279972,-0.050727
1083,0.038924,0.363697,-0.014495
1084,0.038924,0.263228,-0.068843
1085,0.019703,0.229738,-0.032611
1086,0.038924,0.212993,-0.050727
1087,0.019703,0.246483,0.076085
1088,0.000481,0.179503,0.076085
1089,-0.037962,0.095779,0.021737
1090,-0.01874,0.095779,0.021737
1091,0.019703,0.045545,0.057969
1092,0.038924,0.0288,0.021737
1093,0.019703,-0.00469,-0.032611
1094,0.000481,-0.038179,0.057969
1095,-0.01874,-0.054924,0.021737
1096,0.019703,0.012055,0.076085
1097,0.019703,0.012055,0.076085
1098,0.000481,0.045545,0.112317
1099,0.038924,0.0288,0.039853
1100,0.019703,0.012055,0.094201
1101,0.038924,-0.021435,0.039853
1102,0.019703,-0.071669,-0.032611
1103,0.019703,-0.105159,-0.050727
1104,0.000481,-0.121903,-0.086959
1105,-0.037962,-0.121903,-0.050727
1106,-0.01874,0.0288,-0.014495
1107,0.038924,0.095779,-0.014495
1108,0.019703,0.079034,-0.032611
1109,0.019703,0.06229,-0.014495
1110,0.000481,0.012055,0.003621
1111,0.000481,0.012055,-0.032611
1112,0.000481,0.0288,0.003621
1113,0.000481,-0.00469,-0.050727
1114,0.000481,-0.00469,0.003621
1115,0.019703,0.012055,0.021737
1116,-0.01874,-0.00469,-0.014495
1117,-0.01874,-0.00469,-0.014495
1118,-0.01874,-0.00469,0.003621
1119,0.000481,-0.021435,-0.050727
1120,0.000481,-0.038179,-0.068843
1121,-0.01874,-0.054924,-0.032611
1122,0.019703,-0.021435,0.057969
1123,0.019703,0.012055,0.094201
1124,0.019703,0.0288,0.094201
1125,0.000481,-0.00469,0.112317
1126,0.000481,-0.00469,0.076085
1127,0.000481,0.012055,0.130433
1128,0.019703,0.012055,0.057969
1129,0.000481,-0.00469,-0.014495
1130,0.019703,0.012055,-0.032611
1131,0.000481,-0.00469,-0.032611
1132,0.019703,0.0288,-0.014495
1133,0.038924,0.012055,0.057969
1134,0.000481,0.045545,0.057969
1135,0.019703,0.0288,0.003621
1136,0.000481,-0.00469,0.039853
1137,-0.01874,-0.00469,0.003621
1138,0.000481,0.0288,0.021737
1139,0.000481,0.012055,0.003621
1140,0.019703,-0.021435,-0.068843
1141,0.000481,-0.054924,-0.123191
1142,-0.037962,-0.054924,-0.123191
1143,-0.01874,-0.054924,-0.050727
1144,0.000481,-0.00469,0.003621
1145,0.000481,-0.021435,0.021737
1146,0.000481,-0.021435,0.003621
1147,-0.01874,0.012055,-0.068843
1148,0.000481,0.012055,-0.050727
1149,0.019703,0.0288,-0.014495
1150,0.019703,0.045545,0.076085
1151,0.019703,0.06229,0.166665
1152,0.019703,0.045545,0.148549
1153,0.000481,0.0288,0.184781
1154,-0.01874,0.0288,0.184781
1155,0.000481,0.0288,0.166665
1156,-0.01874,-0.00469,0.112317
1157,-0.01874,-0.038179,0.021737
1158,-0.01874,-0.054924,-0.123191
1159,-0.01874,-0.071669,-0.177539
1160,0.019703,-0.054924,-0.213771
1161,-0.01874,-0.038179,-0.177539
1162,0.000481,-0.021435,-0.123191
1163,0.019703,-0.054924,-0.050727
1164,0.038924,-0.00469,-0.050727
1165,0.000481,-0.00469,-0.068843
1166,-0.037962,-0.00469,-0.014495
1167,0.000481,-0.054924,-0.032611
1168,0.000481,-0.038179,-0.032611
1169,0.019703,-0.021435,0.003621
1170,0.019703,0.079034,0.003621
1171,0.019703,0.162759,0.021737
1172,0.038924,0.06229,0.076085
1173,0.019703,0.012055,0.003621
1174,-0.01874,0.0288,-0.032611
1175,0.000481,0.0288,-0.014495
1176,0.000481,0.012055,-0.014495
1177,-0.01874,-0.071669,-0.032611
1178,-0.01874,-0.138648,-0.014495
1179,-0.037962,-0.188883,-0.032611
1180,-0.037962,-0.172138,-0.032611
1181,-0.037962,-0.138648,0.021737
1182,-0.01874,-0.021435,0.021737
1183,0.038924,0.196248,0.057969
1184,0.019703,0.279972,0.021737
1185,0.000481,0.212993,0.021737
1186,0.019703,0.146014,-0.014495
1187,0.038924,0.095779,0.057969
1188,0.019703,0.06229,0.021737
1189,0.000481,0.045545,0.003621
1190,0.000481,0.0288,0.039853
1191,0.000481,0.012055,0.057969
1192,0.000481,0.045545,0.112317
1193,0.019703,0.0288,0.094201
1194,0.019703,0.045545,0.057969
1195,-0.037962,0.012055,-0.050727
1196,0.000481,-0.038179,-0.068843
1197,0.000481,-0.038179,-0.086959
1198,-0.01874,-0.021435,-0.014495
1199,-0.01874,0.012055,-0.014495
1200,0.019703,-0.021435,-0.086959
1201,0.000481,-0.00469,-0.014495
1202,0.019703,-0.00469,-0.050727
1203,0.000481,-0.021435,-0.105075
1204,0.000481,-0.021435,-0.086959
1205,-0.01874,-0.038179,-0.068843
1206,-0.01874,-0.021435,-0.032611
1207,-0.01874,0.0288,0.021737
1208,0.019703,-0.00469,0.057969
1209,0.019703,0.012055,0.039853
1210,0.000481,0.012055,0.094201
1211,0.019703,0.012055,0.039853
1212,0.000481,0.012055,0.003621
1213,0.000481,0.012055,-0.014495
1214,0.000481,0.012055,0.039853
1215,0.000481,0.012055,0.039853
1216,0.019703,0.012055,0.039853
1217,0.019703,0.0288,0.039853
1218,0.038924,0.0288,0.021737
1219,0.019703,0.0288,0.021737
1220,0.019703,0.012055,0.003621
1221,0.000481,-0.021435,-0.068843
1222,-0.01874,-0.00469,-0.105075
1223,-0.01874,-0.021435,-0.068843
1224,0.000481,0.012055,-0.032611
1225,0.000481,-0.021435,-0.050727
1226,-0.057183,-0.054924,-0.068843
1227,-0.037962,-0.054924,-0.086959
1228,-0.037962,-0.038179,-0.050727
1229,0.000481,-0.00469,-0.014495
1230,-0.01874,-0.00469,-0.032611
1231,0.019703,-0.021435,-0.086959
1232,0.019703,0.0288,-0.068843
1233,0.000481,-0.00469,-0.050727
1234,0.000481,0.012055,0.039853
1235,0.019703,0.012055,0.039853
1236,0.000481,0.0288,0.057969
1237,0.019703,0.012055,0.112317
1238,0.019703,-0.00469,0.148549
1239,-0.01874,0.0288,0.094201
1240,0.000481,0.0288,0.148549
1241,0.019703,0.06229,0.148549
1242,0.019703,0.0288,0.094201
1243,0.000481,-0.00469,0.076085
1244,0.000481,-0.00469,0.039853
1245,-0.01874,-0.021435,-0.032611
1246,0.000481,0.012055,-0.014495
1247,0.000481,-0.021435,-0.014495
1248,-0.01874,-0.038179,-0.105075
1249,-0.01874,-0.021435,-0.032611
1250,-0.01874,-0.021435,-0.068843
1251,0.019703,-0.00469,-0.068843
1252,0.019703,-0.00469,-0.014495
1253,0.019703,0.0288,0.021737
1254,0.038924,0.012055,0.003621
1255,0.019703,0.0288,0.003621
1256,0.000481,-0.00469,0.057969
1257,0.000481,-0.00469,0.021737
1258,-0.01874,-0.021435,0.039853
1259,0.019703,-0.00469,0.021737
1260,0.019703,0.012055,-0.050727
1261,0.000481,0.012055,-0.050727
1262,-0.01874,-0.038179,0.003621
1263,0.000481,-0.00469,-0.014495
1264,0.000481,-0.00469,0.021737
1265,0.019703,-0.00469,0.039853
1266,0.019703,0.012055,0.021737
1267,0.019703,0.012055,0.039853
1268,0.019703,0.045545,0.039853
1269,0.038924,0.0288,0.039853
1270,0.019703,-0.00469,0.021737
1271,0.000481,-0.021435,0.003621
1272,-0.01874,-0.00469,-0.032611
1273,-0.037962,-0.00469,-0.032611
1274,-0.037962,-0.00469,0.021737
1275,-0.01874,0.012055,-0.050727
1276,0.000481,-0.00469,-0.014495
1277,0.019703,-0.021435,-0.014495
1278,0.000481,-0.054924,-0.050727
1279,-0.01874,-0.021435,-0.068843
1280,0.000481,0.012055,-0.014495
1281,0.019703,0.012055,0.039853
1282,0.019703,0.0288,0.057969
1283,0.038924,-0.00469,0.057969
1284,0.019703,0.012055,0.021737
1285,0.019703,-0.038179,0.057969
1286,0.019703,-0.088414,0.039853
1287,0.000481,-0.121903,0.003621
1288,-0.01874,-0.121903,-0.014495
1289,-0.037962,-0.121903,-0.068843
1290,-0.057183,-0.121903,-0.068843
1291,-0.037962,-0.088414,-0.050727
1292,-0.037962,0.095779,0.003621
1293,0.000481,0.196248,-0.050727
1294,0.000481,0.162759,0.039853
1295,0.000481,0.06229,-0.032611
1296,-0.01874,0.045545,-0.032611
1297,-0.01874,0.079034,-0.050727
1298,-0.01874,0.06229,-0.014495
1299,-0.01874,0.012055,-0.014495
1300,-0.01874,0.045545,0.003621
1301,-0.01874,0.0288,0.039853
1302,0.000481,0.0288,-0.032611
1303,-0.037962,0.012055,-0.032611
1304,-0.01874,0.012055,-0.014495
1305,0.019703,-0.00469,-0.032611
1306,0.000481,0.012055,-0.050727
1307,0.000481,0.06229,-0.032611
1308,0.019703,0.0288,0.021737
1309,0.000481,0.0288,0.057969
1310,-0.01874,0.012055,0.094201
1311,0.000481,-0.00469,0.021737
1312,-0.01874,0.012055,0.076085
1313,-0.01874,-0.071669,0.039853
1314,-0.01874,-0.054924,0.021737
1315,0.019703,-0.054924,0.003621
1316,-0.01874,-0.038179,0.003621
1317,0.019703,-0.038179,-0.050727
1318,0.000481,-0.00469,0.003621
1319,-0.01874,0.012055,-0.014495
1320,0.000481,0.012055,-0.014495
1321,-0.057183,0.045545,0.003621
1322,-0.057183,0.079034,-0.014495
1323,-0.076405,0.012055,-0.032611
1324,0.000481,0.0288,-0.014495
1325,-0.01874,0.012055,-0.014495
1326,0.019703,-0.00469,-0.014495
1327,0.019703,0.0288,0.003621
1328,0.000481,-0.021435,0.076085
1329,0.000481,0.0288,0.003621
1330,0.038924,-0.00469,0.021737
1331,0.038924,0.012055,0.021737
1332,0.019703,0.012055,0.057969
1333,0.000481,-0.00469,0.021737
1334,0.019703,-0.00469,0.021737
1335,0.019703,-0.00469,0.003621
1336,0.019703,-0.00469,0.021737
1337,0.000481,-0.021435,-0.032611
1338,0.000481,-0.00469,0.021737
1339,0.019703,-0.00469,0.057969
1340,-0.01874,-0.00469,0.039853
1341,-0.01874,0.012055,0.094201
1342,0.000481,0.012055,0.039853
1343,-0.01874,-0.00469,-0.032611
1344,-0.037962,-0.00469,-0.086959
1345,-0.01874,0.012055,-0.068843
1346,0.000481,-0.054924,-0.050727
1347,-0.01874,0.012055,-0.068843
1348,0.019703,-0.00469,0.003621
1349,0.000481,0.012055,0.003621
1350,0.019703,-0.00469,-0.050727
1351,0.000481,-0.00469,-0.014495
1352,-0.01874,-0.00469,-0.032611
1353,-0.01874,-0.00469,-0.032611
1354,0.000481,0.0288,0.021737
1355,-0.01874,-0.00469,0.039853
1356,0.000481,0.012055,0.057969
1357,-0.01874,0.012055,0.076085
1358,0.000481,0.045545,0.057969
1359,-0.037962,0.045545,0.057969
1360,0.019703,-0.00469,0.039853
1361,0.000481,0.012055,0.021737
1362,-0.01874,-0.021435,-0.014495
1363,-0.01874,0.0288,0.003621
1364,-0.01874,-0.00469,-0.068843
1365,-0.01874,0.012055,-0.032611
1366,0.000481,0.012055,0.003621
1367,-0.01874,-0.00469,0.021737
1368,0.000481,-0.038179,0.021737
1369,-0.037962,-0.054924,0.057969
1370,0.000481,0.012055,-0.032611
1371,-0.037962,-0.054924,-0.014495
1372,-0.01874,-0.088414,0.003621
1373,-0.01874,-0.038179,-0.032611
1374,-0.037962,-0.021435,0.003621
1375,-0.057183,-0.00469,0.021737
1376,-0.01874,0.045545,0.039853
1377,-0.01874,0.045545,0.021737
1378,0.019703,0.079034,0.021737
1379,0.000481,-0.00469,-0.032611
1380,-0.01874,-0.038179,-0.050727
1381,0.000481,-0.172138,-0.014495
1382,-0.037962,-0.188883,-0.050727
1383,-0.01874,-0.121903,-0.014495
1384,-0.01874,-0.105159,0.021737
1385,-0.01874,-0.021435,-0.050727
1386,0.000481,0.045545,0.003621
1387,0.000481,0.095779,0.021737
1388,0.000481,0.179503,0.003621
1389,0.077367,0.212993,-0.050727
1390,0.019703,0.112524,0.003621
1391,0.058146,0.079034,0.003621
1392,0.038924,0.045545,0.057969
1393,0.000481,0.095779,0.039853
1394,0.019703,0.079034,0.039853
1395,0.000481,0.012055,0.039853
1396,-0.037962,0.012055,0.021737
1397,0.000481,0.0288,0.021737
1398,-0.01874,0.0288,0.003621
1399,0.038924,0.012055,0.021737
1400,0.019703,-0.038179,0.003621
1401,0.019703,0.0288,-0.014495
1402,0.019703,0.06229,0.021737
1403,0.019703,0.06229,-0.014495
1404,0.019703,0.06229,0.003621
1405,0.019703,0.012055,-0.014495
1406,-0.01874,-0.021435,-0.086959
1407,-0.037962,-0.00469,-0.105075
1408,-0.01874,-0.021435,-0.050727
1409,-0.01874,-0.00469,-0.068843
1410,0.019703,-0.00469,-0.050727
1411,0.000481,-0.021435,-0.032611
1412,0.000481,-0.00469,-0.014495
1413,0.019703,-0.021435,0.003621
1414,0.000481,-0.021435,0.057969
1415,0.000481,-0.021435,0.039853
1416,0.000481,-0.021435,0.057969
1417,0.000481,-0.021435,0.003621
1418,-0.037962,-0.00469,-0.014495
1419,-0.01874,-0.021435,-0.050727
1420,-0.01874,-0.021435,-0.032611
1421,-0.037962,-0.00469,-0.050727
1422,0.000481,-0.00469,-0.014495
1423,-0.037962,-0.00469,0.039853
1424,0.000481,-0.021435,0.039853
1425,-0.01874,-0.021435,0.076085
1426,0.019703,-0.00469,0.039853
1427,0.000481,-0.00469,0.003621
1428,0.000481,-0.00469,0.021737
1429,0.000481,0.012055,0.021737
1430,-0.01874,0.012055,0.021737
1431,0.000481,0.012055,0.021737
1432,-0.037962,-0.00469,0.021737
1433,-0.037962,-0.00469,-0.014495
1434,0.019703,-0.00469,0.003621
1435,0.019703,-0.021435,-0.032611
1436,0.019703,-0.021435,-0.032611
1437,0.019703,-0.00469,-0.068843
1438,0.019703,0.012055,-0.068843
1439,-0.01874,-0.00469,-0.068843
1440,0.000481,-0.00469,-0.050727
1441,0.000481,-0.021435,0.039853
1442,-0.037962,0.012055,0.039853
1443,-0.01874,0.012055,0.076085
1444,-0.01874,-0.021435,0.076085
1445,0.000481,-0.00469,0.039853
1446,-0.01874,-0.00469,0.021737
1447,-0.01874,-0.00469,0.039853
1448,-0.01874,-0.00469,0.003621
1449,-0.037962,-0.038179,-0.014495
1450,-0.01874,-0.038179,-0.014495
1451,-0.01874,-0.038179,-0.014495
1452,-0.01874,-0.00469,-0.014495
1453,-0.01874,-0.00469,0.021737
1454,0.000481,0.0288,0.021737
1455,0.019703,0.06229,-0.050727
1456,0.000481,0.045545,0.021737
1457,0.019703,0.012055,0.003621
1458,0.019703,-0.021435,0.039853
1459,0.000481,-0.038179,0.057969
1460,0.019703,-0.021435,-0.014495
1461,0.019703,-0.021435,0.057969
1462,-0.01874,0.045545,0.057969
1463,-0.01874,0.0288,0.003621
1464,-0.01874,0.0288,-0.032611
1465,-0.057183,-0.021435,-0.068843
1466,-0.01874,-0.021435,-0.086959
1467,0.000481,-0.038179,-0.086959
1468,0.000481,-0.054924,-0.014495
1469,-0.01874,-0.038179,-0.032611
1470,0.000481,-0.054924,0.021737
1471,-0.01874,-0.054924,0.039853
1472,-0.01874,-0.00469,0.003621
1473,-0.01874,-0.00469,-0.014495
1474,0.000481,-0.00469,0.021737
1475,0.019703,0.06229,-0.032611
1476,-0.01874,0.079034,-0.032611
1477,0.000481,0.045545,0.039853
1478,0.000481,0.079034,-0.014495
1479,0.019703,0.095779,0.057969
1480,0.038924,0.0288,0.039853
1481,0.000481,-0.00469,0.039853
1482,-0.01874,0.0288,0.039853
1483,0.000481,0.045545,-0.014495
1484,0.000481,0.045545,0.003621
1485,0.000481,-0.00469,0.003621
1486,0.000481,-0.088414,-0.014495
1487,0.000481,-0.088414,-0.014495
1488,-0.01874,-0.088414,-0.014495
1489,0.000481,-0.038179,0.021737
1490,0.000481,-0.038179,-0.014495
1491,-0.01874,-0.021435,0.003621
1492,0.000481,0.012055,-0.032611
1493,-0.01874,0.06229,-0.014495
1494,0.000481,0.129269,-0.014495
1495,-0.01874,0.06229,0.039853
1496,0.038924,0.0288,-0.032611
1497,0.019703,-0.021435,0.003621
1498,-0.037962,-0.021435,0.039853
1499,0.000481,-0.00469,0.021737
1500,0.019703,-0.00469,0.021737
1501,0.000481,0.012055,0.003621
1502,0.000481,0.012055,0.003621
1503,-0.01874,0.0288,-0.050727
1504,-0.01874,0.012055,-0.014495
1505,-0.01874,-0.00469,-0.050727
1506,0.000481,-0.00469,0.003621
1507,-0.01874,-0.021435,0.003621
1508,-0.01874,-0.00469,-0.032611
1509,-0.057183,-0.021435,-0.050727
1510,-0.01874,-0.00469,-0.068843
1511,-0.01874,-0.00469,-0.050727
1512,0.000481,-0.021435,-0.068843
1513,-0.01874,-0.00469,-0.032611
1514,-0.01874,-0.021435,-0.068843
1515,0.000481,-0.038179,0.003621
1516,0.000481,-0.021435,0.021737
1517,0.000481,-0.038179,0.003621
1518,0.000481,-0.00469,0.021737
1519,0.000481,-0.00469,0.021737
1520,-0.01874,-0.00469,0.021737
1521,0.019703,-0.021435,0.003621
1522,0.000481,-0.021435,0.003621
1523,0.000481,0.012055,-0.032611
1524,0.000481,-0.00469,0.003621
1525,-0.037962,0.012055,0.003621
1526,-0.037962,-0.00469,-0.014495
1527,-0.037962,-0.021435,0.003621
1528,-0.01874,-0.021435,0.003621
1529,-0.01874,-0.038179,-0.050727
1530,-0.037962,0.012055,-0.050727
1531,0.019703,0.0288,0.003621
1532,0.000481,0.045545,-0.014495
1533,0.000481,0.012055,0.003621
1534,-0.01874,-0.021435,0.021737
1535,0.000481,-0.00469,0.057969
1536,0.000481,0.012055,0.076085
1537,0.000481,0.012055,0.039853
1538,0.000481,0.045545,0.003621
1539,0.000481,0.0288,0.021737
1540,0.000481,0.012055,0.021737
1541,0.000481,0.045545,0.003621
1542,-0.01874,0.0288,0.021737
1543,-0.037962,0.012055,0.003621
1544,0.000481,0.012055,-0.014495
1545,-0.01874,-0.00469,0.021737
1546,0.019703,-0.00469,0.021737
1547,0.000481,-0.071669,0.003621
1548,0.019703,-0.121903,0.021737
1549,-0.01874,-0.121903,-0.032611
1550,0.019703,-0.088414,-0.050727
1551,-0.01874,-0.038179,0.021737
1552,0.000481,0.045545,0.057969
1553,0.019703,0.079034,-0.014495
1554,-0.037962,0.146014,0.021737
1555,-0.01874,0.129269,0.003621
1556,0.000481,0.112524,-0.032611
1557,0.000481,0.0288,0.021737
1558,0.000481,0.012055,-0.014495
1559,0.000481,0.012055,-0.032611
1560,-0.01874,0.012055,0.021737
1561,0.000481,0.012055,0.021737
1562,0.019703,0.0288,0.021737
1563,0.019703,0.012055,0.076085
1564,0.019703,0.0288,0.057969
1565,0.019703,-0.00469,0.021737
1566,0.019703,0.012055,0.057969
1567,0.019703,-0.00469,0.039853
1568,0.000481,-0.038179,-0.068843
1569,-0.01874,-0.054924,-0.068843
1570,-0.057183,-0.088414,-0.141307
1571,-0.037962,-0.054924,-0.105075
1572,-0.057183,-0.038179,-0.086959
1573,-0.076405,-0.021435,-0.086959
1574,-0.057183,0.0288,-0.068843
1575,-0.037962,0.0288,-0.032611
1576,0.000481,0.045545,0.003621
1577,0.000481,0.012055,-0.032611
1578,0.000481,-0.00469,-0.014495
1579,0.000481,-0.021435,-0.032611
1580,-0.01874,-0.021435,0.021737
1581,0.000481,-0.00469,0.076085
1582,0.000481,-0.021435,0.021737
1583,0.019703,-0.00469,0.003621
1584,0.000481,0.0288,0.076085
1585,0.019703,0.0288,0.057969
1586,0.000481,0.0288,0.003621
1587,0.019703,-0.00469,0.003621
1588,0.000481,-0.038179,-0.050727
1589,0.000481,-0.088414,-0.014495
1590,0.000481,-0.105159,-0.014495
1591,0.000481,-0.071669,0.003621
1592,-0.01874,-0.088414,0.003621
1593,-0.01874,-0.071669,0.003621
1594,0.000481,-0.021435,-0.014495
1595,0.038924,0.079034,-0.032611
1596,0.000481,0.112524,-0.014495
1597,0.000481,0.162759,0.003621
1598,0.019703,0.112524,0.039853
1599,-0.01874,0.012055,0.112317
1600,0.000481,-0.00469,0.057969
1601,0.000481,-0.021435,0.039853
1602,0.000481,-0.021435,0.021737
1603,-0.01874,0.012055,0.021737
1604,0.000481,0.0288,-0.014495
1605,-0.037962,0.079034,-0.014495
1606,0.000481,0.079034,-0.050727
1607,0.019703,0.079034,-0.014495
1608,0.038924,0.045545,0.003621
1609,0.000481,-0.021435,0.003621
1610,-0.01874,-0.054924,0.003621
1611,-0.01874,-0.054924,0.003621
1612,0.019703,-0.038179,0.003621
1613,0.000481,0.012055,-0.032611
1614,0.019703,0.012055,-0.014495
1615,0.000481,0.0288,-0.050727
1616,-0.01874,0.012055,-0.014495
1617,0.000481,0.012055,0.003621
1618,-0.01874,0.0288,-0.014495
1619,-0.037962,-0.021435,0.003621
1620,-0.01874,-0.00469,0.021737
1621,-0.01874,-0.00469,0.003621
1622,-0.01874,-0.00469,-0.032611
1623,-0.01874,0.012055,0.039853
1624,0.000481,-0.00469,-0.014495
1625,-0.01874,-0.00469,0.021737
1626,0.000481,0.012055,0.021737
1627,0.000481,-0.021435,0.021737
1628,-0.01874,-0.054924,0.003621
1629,-0.01874,-0.038179,-0.014495
1630,-0.01874,-0.00469,-0.050727
1631,-0.01874,-0.021435,-0.050727
1632,-0.057183,-0.021435,-0.050727
1633,-0.01874,-0.021435,-0.032611
1634,-0.01874,0.012055,0.021737
1635,0.000481,-0.021435,0.021737
1636,0.000481,-0.038179,-0.014495
1637,-0.01874,-0.021435,0.021737
1638,0.000481,-0.021435,0.003621
1639,-0.037962,-0.038179,0.003621
1640,0.000481,-0.021435,-0.068843
1641,-0.01874,-0.021435,0.021737
1642,-0.01874,-0.021435,-0.014495
1643,0.019703,-0.00469,-0.014495
1644,0.000481,0.06229,0.021737
1645,-0.01874,0.012055,0.021737
1646,0.000481,0.012055,0.003621
1647,0.019703,0.0288,0.003621
1648,0.019703,0.0288,-0.014495
1649,0.000481,0.045545,-0.014495
1650,0.000481,0.012055,-0.014495
1651,0.000481,0.012055,-0.032611
1652,0.000481,0.012055,-0.014495
1653,0.000481,-0.021435,0.039853
1654,-0.01874,0.012055,0.021737
1655,-0.037962,-0.038179,0.021737
1656,0.000481,0.012055,0.057969
1657,-0.01874,0.012055,0.003621
1658,0.019703,-0.00469,0.021737
1659,0.000481,-0.054924,-0.014495
1660,-0.01874,-0.088414,-0.032611
1661,-0.01874,-0.021435,-0.032611
1662,0.000481,0.012055,-0.014495
1663,0.000481,0.095779,-0.014495
1664,0.000481,0.095779,0.039853
1665,0.019703,0.079034,0.039853
1666,-0.037962,0.06229,-0.014495
1667,0.000481,0.012055,0.021737
1668,0.019703,0.012055,-0.014495
1669,0.000481,-0.00469,-0.050727
1670,0.019703,0.012055,-0.014495
1671,0.000481,0.0288,-0.014495
1672,0.019703,-0.00469,-0.032611
1673,0.019703,-0.021435,-0.014495
1674,-0.01874,-0.038179,0.039853
1675,-0.01874,-0.038179,0.021737
1676,-0.01874,-0.021435,0.057969
1677,0.019703,-0.00469,0.039853
1678,0.000481,-0.00469,-0.014495
1679,-0.01874,-0.038179,-0.032611
1680,0.000481,-0.054924,0.021737
1681,-0.01874,-0.038179,-0.032611
1682,-0.01874,-0.021435,0.021737
1683,-0.01874,-0.021435,0.039853
1684,-0.01874,-0.038179,-0.014495
1685,-0.01874,-0.00469,0.057969
1686,0.000481,-0.021435,0.057969
1687,0.038924,0.0288,0.021737
1688,0.000481,0.06229,0.003621
1689,0.019703,0.06229,0.057969
1690,0.038924,0.112524,0.021737
1691,0.019703,0.112524,0.076085
1692,0.038924,0.06229,0.039853
1693,-0.01874,0.045545,-0.014495
1694,-0.037962,-0.054924,-0.068843
1695,-0.057183,-0.00469,-0.086959
1696,-0.057183,-0.038179,-0.086959
1697,-0.057183,-0.021435,-0.105075
1698,-0.01874,-0.021435,-0.032611
1699,0.000481,-0.00469,-0.050727
1700,-0.01874,-0.021435,0.003621
1701,0.000481,-0.054924,0.003621
1702,0.019703,0.012055,0.057969
1703,0.000481,-0.021435,0.021737
1704,0.000481,-0.021435,0.039853
1705,0.000481,0.012055,0.003621
1706,0.000481,-0.021435,-0.032611
1707,0.000481,-0.021435,-0.014495
1708,0.000481,0.012055,-0.032611
1709,0.000481,0.012055,0.003621
1710,0.019703,0.0288,0.021737
1711,-0.01874,0.012055,-0.014495
1712,0.019703,0.012055,0.003621
1713,0.019703,0.012055,0.057969
1714,0.019703,-0.00469,0.003621
1715,0.000481,-0.00469,0.003621
1716,0.019703,0.012055,-0.014495
1717,0.019703,0.012055,-0.014495
1718,0.000481,-0.00469,-0.032611
1719,-0.01874,-0.038179,-0.014495
1720,-0.01874,-0.038179,0.003621
1721,0.019703,-0.054924,-0.014495
1722,0.000481,-0.021435,0.057969
1723,-0.01874,-0.00469,-0.014495
1724,0.000481,-0.021435,0.076085
1725,-0.01874,-0.038179,0.003621
1726,0.019703,0.012055,-0.032611
1727,-0.01874,0.0288,-0.086959
1728,-0.037962,-0.00469,-0.050727
1729,-0.037962,0.012055,-0.068843
1730,-0.01874,0.0288,-0.032611
1731,-0.01874,0.06229,0.003621
1732,-0.01874,0.045545,-0.032611
1733,-0.01874,0.012055,0.039853
1734,0.019703,-0.00469,0.003621
1735,0.000481,-0.00469,-0.014495
1736,0.000481,-0.00469,-0.032611
1737,-0.01874,-0.00469,0.003621
1738,-0.037962,0.045545,-0.050727
1739,0.000481,0.012055,-0.032611
1740,0.000481,-0.00469,0.021737
1741,0.000481,-0.00469,-0.050727
1742,0.000481,-0.00469,0.021737
1743,-0.01874,-0.00469,0.003621
1744,-0.01874,0.012055,0.003621
1745,0.000481,-0.00469,-0.032611
1746,-0.01874,-0.021435,0.003621
1747,0.000481,-0.021435,0.003621
1748,-0.01874,0.012055,0.021737
1749,-0.037962,-0.054924,0.076085
1750,-0.01874,-0.021435,0.039853
1751,-0.01874,-0.021435,0.057969
1752,0.000481,-0.021435,0.039853
1753,0.000481,-0.00469,0.039853
1754,0.000481,-0.038179,-0.014495
1755,-0.01874,-0.038179,0.003621
1756,0.019703,0.045545,-0.050727
1757,0.019703,0.045545,0.003621
1758,-0.01874,0.045545,0.021737
1759,0.000481,0.012055,0.021737
1760,0.019703,-0.00469,0.021737
1761,-0.01874,-0.021435,0.057969
1762,0.000481,0.012055,-0.014495
1763,-0.01874,0.045545,-0.032611
1764,0.000481,0.012055,-0.032611
1765,-0.01874,-0.00469,-0.014495
1766,0.096589,-0.00469,-0.032611
1767,-0.01874,-0.00469,0.021737
1768,0.019703,-0.021435,0.039853
1769,0.019703,-0.038179,0.021737
1770,0.000481,-0.038179,0.057969
1771,0.000481,-0.021435,0.003621
1772,-0.01874,-0.00469,-0.032611
1773,-0.01874,-0.021435,0.003621
1774,0.019703,0.0288,-0.014495
1775,0.000481,0.045545,-0.014495
1776,0.000481,0.045545,-0.032611
1777,0.000481,0.0288,-0.032611
1778,0.000481,0.0288,-0.014495
1779,0.019703,0.012055,0.021737
1780,0.000481,-0.038179,-0.032611
1781,0.019703,0.012055,-0.032611
1782,0.000481,-0.021435,-0.032611
1783,0.000481,-0.038179,-0.032611
1784,0.000481,-0.00469,-0.032611
1785,0.000481,-0.00469,0.003621
1786,0.000481,0.012055,-0.032611
1787,-0.01874,0.045545,0.021737
1788,0.019703,-0.00469,0.076085
1789,0.019703,-0.00469,0.003621
1790,0.000481,-0.021435,0.076085
1791,0.019703,-0.00469,0.021737
1792,-0.01874,-0.071669,0.021737
1793,-0.01874,-0.071669,0.039853
1794,-0.01874,-0.054924,0.094201
1795,0.000481,-0.021435,0.003621
1796,0.000481,0.0288,0.003621
1797,-0.01874,0.045545,0.003621
1798,0.019703,0.079034,0.003621
1799,0.019703,0.112524,-0.014495
1800,0.019703,0.079034,-0.032611
1801,0.019703,0.045545,-0.032611
1802,-0.01874,0.012055,-0.032611
1803,0.019703,0.012055,-0.014495
1804,0.000481,-0.00469,-0.050727
1805,0.019703,-0.021435,0.003621
1806,0.038924,0.012055,0.003621
1807,0.038924,0.012055,0.003621
1808,0.000481,-0.021435,0.003621
1809,-0.01874,-0.021435,0.003621
1810,-0.01874,-0.00469,-0.032611
1811,0.000481,-0.00469,-0.014495
1812,0.038924,-0.021435,-0.032611
1813,0.000481,-0.038179,-0.032611
1814,0.019703,-0.00469,-0.032611
1815,0.000481,-0.021435,0.021737
1816,0.019703,0.012055,0.021737
1817,0.000481,-0.00469,0.003621
1818,-0.037962,0.0288,0.021737
1819,0.000481,0.012055,0.021737
1820,0.019703,-0.00469,-0.014495
1821,0.000481,-0.021435,0.003621
1822,0.000481,-0.00469,-0.032611
1823,-0.01874,-0.00469,-0.032611
1824,0.000481,-0.038179,-0.032611
1825,-0.01874,-0.038179,0.003621
1826,0.000481,-0.021435,-0.032611
1827,0.000481,-0.021435,0.003621
1828,0.000481,-0.021435,0.003621
1829,0.000481,-0.00469,-0.032611
1830,0.019703,0.012055,0.039853
1831,0.000481,0.012055,0.021737
1832,0.000481,-0.00469,-0.014495
1833,0.000481,0.012055,-0.014495
1834,0.019703,-0.00469,-0.032611
1835,0.000481,0.012055,0.003621
1836,0.000481,0.012055,0.021737
1837,0.019703,-0.00469,0.003621
1838,0.019703,-0.00469,-0.014495
1839,0.019703,-0.021435,0.021737
1840,0.000481,-0.021435,-0.032611
1841,-0.01874,-0.00469,-0.032611
1842,0.000481,-0.00469,0.003621
1843,0.000481,-0.021435,-0.014495
1844,0.000481,-0.021435,0.003621
1845,0.000481,-0.021435,0.021737
1846,0.000481,-0.00469,0.039853
1847,0.000481,-0.00469,-0.014495
1848,0.000481,-0.088414,0.057969
1849,-0.037962,-0.121903,0.021737
1850,0.000481,-0.088414,-0.014495
1851,0.000481,-0.071669,0.039853
1852,0.000481,-0.021435,0.003621
1853,-0.037962,0.012055,0.003621
1854,-0.01874,0.06229,0.003621
1855,0.000481,0.095779,0.057969
1856,0.019703,0.129269,0.057969
1857,0.000481,0.112524,0.021737
1858,0.019703,0.06229,-0.014495
1859,0.019703,0.012055,-0.068843
1860,0.038924,0.0288,0.003621
1861,0.000481,0.06229,-0.032611
1862,0.019703,0.045545,-0.050727
1863,0.019703,0.045545,-0.032611
1864,-0.01874,-0.00469,0.039853
1865,0.000481,-0.00469,0.021737
1866,0.000481,-0.021435,0.021737
1867,-0.01874,-0.00469,0.003621
1868,-0.01874,0.012055,-0.014495
1869,0.000481,0.0288,0.003621
1870,-0.01874,-0.021435,-0.032611
1871,-0.01874,0.012055,-0.014495
1872,0.000481,-0.00469,0.021737
1873,-0.01874,-0.054924,0.039853
1874,-0.037962,-0.071669,-0.014495
1875,0.019703,-0.071669,0.003621
1876,-0.01874,-0.021435,-0.050727
1877,0.000481,-0.038179,-0.068843
1878,-0.01874,0.012055,-0.050727
1879,0.000481,0.0288,-0.032611
1880,-0.037962,0.012055,-0.050727
1881,-0.01874,-0.021435,-0.050727
1882,0.000481,-0.021435,0.057969
1883,-0.01874,-0.021435,0.021737
1884,-0.01874,-0.021435,0.021737
1885,0.000481,0.012055,0.039853
1886,-0.01874,0.06229,0.039853
1887,0.000481,0.045545,0.021737
1888,0.019703,0.079034,0.003621
1889,0.019703,0.06229,0.021737
1890,0.000481,0.045545,0.021737
1891,-0.01874,-0.00469,0.039853
1892,0.000481,-0.00469,0.003621
1893,-0.01874,-0.021435,0.003621
1894,0.000481,-0.021435,-0.014495
1895,0.000481,0.012055,-0.032611
1896,0.000481,-0.00469,0.003621
1897,0.000481,-0.021435,0.021737
1898,0.000481,-0.00469,0.003621
1899,-0.01874,-0.021435,0.003621
1900,0.019703,0.012055,-0.050727
1901,0.000481,0.012055,-0.014495
1902,0.019703,0.012055,0.003621
1903,0.000481,0.0288,0.021737
1904,-0.01874,-0.021435,-0.014495
1905,0.000481,-0.00469,0.021737
1906,-0.01874,-0.00469,0.003621
1907,0.019703,-0.00469,-0.014495
1908,0.000481,0.012055,0.021737
1909,0.000481,0.012055,-0.050727
1910,0.000481,-0.00469,-0.014495
1911,0.000481,-0.00469,0.003621
1912,0.000481,-0.00469,0.003621
1913,0.000481,-0.038179,-0.014495
1914,-0.037962,-0.00469,0.003621
1915,0.000481,0.012055,-0.032611
1916,0.000481,-0.00469,-0.032611
1917,0.000481,0.012055,-0.032611
1918,0.000481,-0.021435,-0.032611
1919,0.019703,-0.021435,-0.050727
1920,-0.01874,0.079034,0.003621
1921,-0.01874,-0.038179,0.021737
1922,0.000481,-0.021435,-0.014495
1923,-0.01874,-0.00469,0.039853
1924,0.000481,-0.00469,0.039853
1925,0.000481,0.012055,0.021737
1926,-0.01874,-0.00469,0.003621
1927,0.000481,0.0288,-0.014495
1928,0.000481,0.012055,0.021737
1929,0.000481,0.012055,0.057969
1930,0.000481,-0.00469,0.057969
1931,-0.01874,0.0288,0.039853
1932,-0.01874,-0.021435,0.039853
1933,-0.01874,0.012055,0.039853
1934,0.000481,-0.00469,0.021737
1935,0.000481,0.012055,0.039853
1936,0.000481,0.045545,0.039853
1937,0.019703,0.0288,0.003621
1938,0.000481,-0.021435,0.021737
1939,0.019703,-0.038179,0.021737
1940,-0.037962,-0.054924,-0.050727
1941,-0.01874,-0.054924,-0.068843
1942,0.000481,-0.054924,-0.050727
1943,-0.01874,-0.038179,-0.068843
1944,-0.01874,-0.021435,-0.032611
1945,-0.01874,0.0288,0.003621
1946,0.000481,0.045545,-0.032611
1947,0.000481,0.045545,-0.050727
1948,0.000481,-0.00469,-0.032611
1949,-0.01874,0.045545,0.003621
1950,0.000481,0.0288,0.003621
1951,0.000481,0.06229,0.003621
1952,-0.01874,0.012055,-0.014495
1953,0.000481,-0.021435,0.021737
1954,0.000481,-0.021435,0.021737
1955,0.000481,-0.00469,-0.050727
1956,-0.01874,-0.00469,-0.050727
1957,0.000481,-0.00469,0.003621
1958,-0.01874,0.012055,-0.032611
1959,0.019703,-0.00469,-0.032611
1960,0.019703,0.012055,0.057969
1961,0.000481,0.012055,0.003621
1962,0.038924,0.012055,0.057969
1963,0.000481,0.012055,0.021737
1964,0.000481,0.0288,0.003621
1965,0.019703,0.0288,0.003621
1966,0.019703,0.045545,-0.014495
1967,0.000481,-0.00469,-0.014495
1968,0.000481,0.012055,-0.014495
1969,-0.01874,0.012055,0.021737
1970,-0.01874,-0.038179,0.003621
1971,-0.01874,-0.054924,0.003621
1972,-0.01874,-0.088414,0.021737
1973,0.000481,-0.054924,-0.014495
1974,-0.01874,-0.021435,-0.014495
1975,0.000481,-0.021435,0.003621
1976,-0.01874,0.0288,-0.014495
1977,0.000481,0.0288,0.021737
1978,-0.01874,0.079034,0.021737
1979,0.000481,0.045545,-0.014495
1980,0.019703,0.012055,0.003621
1981,0.000481,0.0288,0.021737
1982,0.000481,0.0288,-0.032611
1983,-0.01874,0.0288,-0.068843
1984,0.000481,0.045545,-0.032611
1985,-0.037962,0.0288,-0.050727
1986,0.000481,0.012055,-0.032611
1987,-0.01874,-0.00469,0.039853
1988,-0.037962,-0.021435,0.039853
1989,0.000481,-0.021435,0.021737
1990,0.019703,0.012055,0.021737
1991,-0.01874,0.0288,-0.014495
1992,0.000481,0.045545,0.003621
1993,0.019703,0.012055,0.003621
1994,0.000481,0.012055,0.003621
1995,0.019703,0.045545,0.003621
1996,0.000481,-0.00469,0.021737
1997,0.019703,0.012055,0.021737
1998,0.019703,-0.021435,0.039853
1999,-0.01874,-0.00469,0.057969
2000,0.000481,-0.00469,0.003621
2001,0.019703,-0.00469,-0.014495
2002,0.000481,-0.00469,-0.032611
2003,-0.01874,-0.00469,-0.050727
2004,-0.01874,-0.00469,-0.050727
2005,0.000481,-0.021435,-0.032611
2006,-0.01874,-0.00469,-0.050727
2007,0.000481,-0.00469,0.003621
2008,-0.01874,-0.021435,0.021737
2009,-0.01874,-0.00469,-0.014495
2010,0.000481,0.012055,-0.014495
2011,-0.01874,-0.00469,0.021737
2012,0.000481,-0.00469,-0.014495
2013,0.000481,-0.00469,-0.032611
2014,0.019703,-0.021435,0.003621
2015,0.000481,-0.00469,-0.014495
2016,0.000481,-0.00469,0.021737
2017,0.000481,-0.00469,0.003621
2018,-0.01874,-0.021435,0.003621
2019,0.000481,-0.038179,-0.032611
2020,0.000481,0.012055,0.003621
2021,0.000481,-0.021435,-0.014495
2022,0.000481,0.012055,-0.032611
2023,0.000481,-0.00469,0.003621
2024,0.019703,0.012055,-0.014495
2025,-0.01874,-0.00469,-0.014495
2026,0.000481,0.012055,0.021737
2027,-0.01874,-0.00469,0.003621
2028,0.000481,0.0288,0.021737
2029,-0.01874,-0.00469,0.021737
2030,-0.01874,-0.021435,0.003621
2031,0.000481,-0.054924,-0.032611
2032,-0.01874,-0.071669,-0.014495
2033,0.000481,-0.054924,0.003621
2034,-0.01874,-0.054924,0.003621
2035,0.000481,-0.021435,0.021737
2036,-0.01874,0.045545,0.021737
2037,-0.01874,0.0288,0.021737
2038,0.019703,0.079034,0.003621
2039,0.000481,0.012055,0.003621
2040,-0.01874,0.045545,-0.032611
2041,-0.01874,0.0288,-0.032611
2042,0.000481,-0.00469,-0.050727
2043,0.000481,0.012055,-0.032611
2044,-0.01874,-0.00469,0.003621
2045,-0.01874,0.012055,0.021737
2046,0.000481,0.045545,0.021737
2047,-0.01874,0.0288,0.003621
2048,-0.01874,0.0288,0.003621
2049,0.019703,0.012055,-0.032611
2050,0.000481,-0.00469,-0.014495
2051,0.019703,-0.021435,-0.050727
2052,-0.037962,-0.038179,-0.032611
2053,-0.01874,0.012055,0.003621
2054,0.000481,-0.00469,0.003621
2055,0.019703,0.045545,0.003621
2056,-0.01874,-0.038179,0.021737
2057,0.000481,-0.054924,0.021737
2058,0.000481,-0.054924,-0.014495
2059,0.000481,-0.038179,0.021737
2060,-0.037962,-0.021435,0.021737
2061,0.000481,-0.021435,0.003621
2062,0.019703,0.012055,0.039853
2063,0.000481,-0.021435,0.039853
2064,-0.01874,-0.00469,0.021737
2065,-0.01874,-0.00469,0.021737
2066,0.000481,-0.021435,-0.032611
2067,0.019703,-0.021435,-0.014495
2068,-0.01874,0.0288,0.003621
2069,-0.01874,0.012055,-0.014495
2070,0.000481,0.045545,-0.050727
2071,0.000481,0.06229,-0.014495
2072,0.000481,0.06229,0.021737
2073,0.000481,0.0288,-0.032611
2074,0.000481,0.012055,0.003621
2075,0.000481,0.012055,-0.032611
2076,-0.01874,-0.00469,-0.014495
2077,0.000481,-0.021435,-0.050727
2078,-0.01874,-0.038179,-0.014495
2079,0.000481,-0.038179,-0.014495
2080,-0.01874,-0.038179,0.021737
2081,-0.01874,-0.038179,0.003621
2082,-0.01874,-0.021435,0.003621
2083,-0.01874,0.0288,0.021737
2084,-0.01874,0.0288,0.003621
2085,0.000481,0.0288,-0.050727
2086,0.000481,0.045545,0.003621
2087,-0.01874,0.0288,-0.032611
2088,0.000481,-0.00469,0.003621
2089,-0.01874,-0.00469,-0.014495
2090,0.000481,-0.00469,-0.032611
2091,0.000481,-0.00469,-0.014495
2092,0.000481,-0.00469,-0.032611
2093,0.000481,-0.021435,0.021737
2094,-0.01874,-0.00469,0.039853
2095,-0.01874,-0.021435,0.057969
2096,0.000481,-0.021435,0.039853
2097,0.019703,-0.00469,0.021737
2098,-0.01874,-0.038179,0.094201
2099,0.000481,-0.00469,0.003621
2100,0.000481,-0.00469,0.003621
2101,-0.01874,0.0288,0.039853
2102,-0.01874,0.045545,0.039853
2103,0.000481,-0.00469,0.021737
2104,-0.01874,-0.00469,0.039853
2105,-0.01874,-0.00469,0.003621
2106,0.000481,0.012055,-0.032611
2107,0.000481,-0.00469,0.003621
2108,-0.01874,-0.021435,-0.032611
2109,-0.01874,-0.054924,-0.014495
2110,0.000481,-0.071669,0.021737
2111,0.000481,-0.054924,0.039853
2112,0.038924,-0.038179,0.003621
2113,-0.01874,0.012055,0.021737
2114,0.000481,0.0288,0.003621
2115,0.000481,0.012055,-0.032611
2116,0.000481,0.045545,0.039853
2117,0.000481,0.045545,-0.032611
2118,0.000481,-0.00469,-0.014495
2119,0.019703,-0.00469,0.021737
2120,0.000481,-0.00469,0.021737
2121,0.000481,-0.038179,-0.032611
2122,0.000481,0.012055,-0.014495
2123,-0.01874,-0.038179,-0.014495
2124,-0.01874,-0.00469,-0.105075
2125,-0.01874,-0.00469,-0.014495
2126,0.000481,0.045545,-0.050727
2127,0.000481,0.012055,-0.068843
2128,0.000481,-0.00469,-0.032611
2129,-0.01874,-0.038179,0.003621
2130,0.019703,-0.038179,0.003621
2131,0.000481,0.012055,0.021737
2132,0.000481,-0.00469,0.021737
2133,0.000481,0.0288,0.003621
2134,-0.01874,-0.00469,0.021737
2135,-0.037962,0.012055,0.003621
2136,0.000481,0.06229,-0.014495
2137,0.000481,-0.00469,0.003621
2138,0.000481,0.012055,-0.032611
2139,0.000481,-0.00469,0.021737
2140,0.000481,-0.021435,0.021737
2141,0.000481,-0.021435,0.021737
2142,-0.01874,-0.038179,-0.014495
2143,-0.01874,0.012055,0.057969
2144,0.019703,-0.021435,0.021737
2145,0.019703,0.012055,0.003621
2146,0.019703,0.0288,-0.014495
2147,0.019703,0.012055,-0.014495
2148,0.019703,0.012055,-0.014495
2149,0.000481,-0.00469,0.003621
2150,-0.037962,0.012055,0.039853
2151,-0.01874,0.012055,0.003621
2152,0.000481,0.0288,0.057969
2153,-0.01874,0.0288,0.021737
2154,-0.01874,0.012055,-0.032611
2155,-0.01874,0.012055,-0.014495
2156,-0.037962,-0.038179,-0.032611
2157,0.000481,-0.038179,0.003621
2158,-0.01874,-0.054924,0.003621
2159,-0.01874,-0.021435,0.021737
2160,-0.01874,-0.021435,0.003621
2161,-0.037962,-0.038179,0.003621
2162,0.000481,-0.021435,-0.014495
2163,0.019703,0.012055,-0.014495
2164,0.019703,0.079034,0.003621
2165,0.019703,0.079034,-0.014495
2166,0.000481,0.06229,0.003621
2167,-0.01874,0.06229,0.021737
2168,0.000481,0.06229,0.021737
2169,0.019703,0.012055,0.003621
2170,-0.01874,0.012055,0.021737
2171,-0.01874,-0.021435,-0.014495
2172,-0.01874,-0.00469,-0.032611
2173,0.000481,-0.021435,-0.014495
2174,0.019703,-0.00469,-0.032611
2175,0.019703,0.0288,-0.050727
2176,-0.037962,-0.054924,-0.014495
2177,-0.01874,-0.038179,-0.014495
2178,0.000481,-0.071669,-0.032611
2179,-0.037962,-0.088414,0.021737
2180,-0.01874,-0.088414,0.003621
2181,-0.01874,-0.021435,-0.014495
2182,-0.01874,0.012055,0.057969
2183,-0.01874,0.079034,0.003621
2184,0.000481,0.095779,-0.032611
2185,0.000481,0.079034,0.021737
2186,0.019703,0.079034,0.021737
2187,0.019703,0.079034,0.021737
2188,0.019703,0.045545,0.021737
2189,0.019703,0.0288,0.021737
2190,0.038924,0.012055,-0.014495
2191,0.000481,0.0288,0.003621
2192,0.019703,0.012055,-0.014495
2193,-0.01874,-0.00469,-0.032611
2194,0.000481,0.045545,-0.014495
2195,0.000481,-0.038179,0.021737
2196,-0.037962,-0.00469,-0.014495
2197,-0.037962,-0.00469,0.003621
2198,-0.01874,-0.00469,-0.014495
2199,-0.01874,0.0288,-0.032611
2200,0.000481,0.045545,0.003621
2201,-0.037962,-0.00469,-0.050727
2202,0.000481,-0.054924,-0.050727
2203,0.019703,-0.038179,0.003621
2204,-0.01874,-0.088414,-0.068843
2205,0.000481,-0.088414,0.021737
2206,0.000481,-0.054924,0.039853
2207,0.000481,-0.038179,0.076085
2208,-0.01874,-0.00469,0.039853
2209,-0.037962,0.012055,0.039853
2210,0.000481,0.079034,0.003621
2211,0.000481,0.095779,-0.014495
2212,0.019703,0.079034,0.021737
2213,0.000481,0.045545,-0.032611
2214,0.000481,0.0288,0.003621
2215,0.000481,0.012055,0.039853
2216,0.000481,0.0288,0.057969
2217,0.019703,-0.00469,-0.014495
2218,0.000481,-0.00469,0.039853
2219,0.000481,-0.00469,0.003621
2220,-0.01874,-0.00469,0.003621
2221,-0.037962,0.012055,-0.032611
2222,-0.01874,0.012055,-0.014495
2223,0.000481,0.012055,-0.032611
2224,0.000481,-0.00469,0.003621
2225,0.019703,-0.021435,0.039853
2226,0.000481,-0.021435,-0.014495
2227,0.000481,-0.021435,0.003621
2228,0.000481,0.012055,-0.014495
2229,0.019703,-0.021435,-0.032611
2230,0.019703,-0.00469,-0.032611
2231,-0.01874,-0.00469,-0.032611
2232,-0.01874,-0.021435,-0.014495
2233,-0.01874,-0.021435,0.021737
2234,-0.01874,-0.021435,0.021737
2235,0.019703,0.012055,0.003621
2236,0.000481,0.0288,0.057969
2237,0.000481,-0.00469,0.003621
2238,-0.01874,-0.00469,-0.014495
2239,-0.01874,-0.021435,-0.068843
2240,0.000481,0.012055,-0.032611
2241,-0.01874,0.012055,-0.014495
2242,0.019703,-0.021435,0.003621
2243,0.019703,0.012055,0.039853
2244,0.019703,0.012055,0.039853
2245,0.000481,-0.00469,0.039853
2246,0.038924,-0.00469,0.039853
2247,0.000481,-0.00469,0.003621
2248,-0.01874,-0.00469,-0.014495
2249,0.000481,-0.00469,-0.032611
2250,0.000481,-0.054924,-0.032611
2251,-0.01874,-0.038179,0.003621
2252,-0.01874,-0.021435,0.021737
2253,0.000481,-0.00469,0.003621
2254,-0.01874,0.0288,0.021737
2255,0.000481,-0.00469,0.057969
2256,0.019703,-0.021435,-0.032611
2257,-0.01874,0.0288,0.021737
2258,0.019703,0.012055,-0.032611
2259,0.019703,0.0288,-0.032611
2260,0.038924,0.012055,-0.014495
2261,-0.037962,0.012055,-0.014495
2262,-0.01874,0.045545,-0.032611
2263,0.000481,0.06229,0.039853
2264,-0.01874,0.079034,0.021737
2265,-0.01874,0.0288,0.003621
2266,-0.01874,0.012055,0.021737
2267,0.000481,-0.00469,-0.014495
2268,0.000481,-0.00469,-0.050727
2269,-0.01874,0.012055,-0.014495
2270,0.019703,-0.038179,0.021737
2271,-0.01874,-0.00469,-0.014495
2272,0.019703,-0.00469,0.021737
2273,-0.01874,-0.00469,0.021737
2274,0.000481,-0.021435,-0.014495
2275,-0.01874,-0.00469,0.003621
2276,-0.01874,-0.021435,0.003621
2277,0.000481,-0.00469,-0.050727
2278,0.000481,-0.021435,0.021737
2279,0.000481,-0.00469,0.021737
2280,0.000481,0.012055,-0.014495
2281,0.000481,0.0288,0.021737
2282,0.000481,-0.00469,0.003621
2283,0.000481,-0.00469,-0.014495
2284,0.019703,-0.00469,0.039853
2285,0.000481,0.012055,0.003621
2286,0.019703,0.012055,-0.068843
2287,0.000481,0.012055,0.003621
2288,0.019703,-0.00469,-0.050727
2289,0.000481,-0.00469,0.003621
2290,0.000481,-0.00469,0.057969
2291,-0.01874,0.012055,0.076085
2292,0.000481,0.012055,0.039853
2293,-0.01874,-0.021435,0.057969
2294,-0.01874,-0.00469,0.039853
2295,-0.01874,0.012055,-0.032611
2296,0.000481,0.012055,0.003621
2297,-0.01874,0.012055,-0.032611
2298,0.000481,0.0288,0.021737
2299,-0.01874,0.079034,0.003621
2300,-0.037962,0.012055,0.021737
2301,0.000481,-0.00469,-0.014495
2302,0.000481,-0.00469,-0.014495
2303,-0.01874,-0.021435,-0.014495
2304,0.000481,-0.038179,-0.032611
2305,-0.01874,-0.021435,-0.014495
2306,-0.01874,-0.021435,-0.014495
2307,0.000481,-0.00469,0.003621
2308,-0.01874,0.0288,0.039853
2309,0.000481,-0.00469,0.021737
2310,0.000481,0.012055,0.021737
2311,0.019703,-0.00469,0.021737
2312,0.000481,-0.00469,0.021737
2313,-0.01874,-0.038179,0.003621
2314,0.000481,-0.054924,0.003621
2315,0.000481,-0.054924,-0.050727
2316,0.000481,-0.088414,0.003621
2317,0.000481,-0.088414,0.021737
2318,-0.01874,-0.054924,0.021737
2319,0.000481,-0.00469,0.039853
2320,0.019703,0.079034,0.021737
2321,0.000481,0.146014,-0.014495
2322,0.000481,0.146014,0.003621
2323,0.000481,0.095779,0.021737
2324,0.019703,0.06229,-0.032611
2325,0.000481,0.012055,0.003621
2326,0.000481,0.0288,0.021737
2327,-0.01874,-0.021435,0.039853
2328,0.019703,-0.038179,0.021737
2329,0.000481,-0.021435,0.021737
2330,-0.01874,-0.021435,0.003621
2331,-0.01874,-0.054924,-0.050727
2332,-0.01874,-0.021435,0.021737
2333,0.000481,-0.00469,-0.032611
2334,0.019703,0.012055,0.021737
2335,0.019703,0.0288,-0.014495
2336,0.000481,0.079034,0.003621
2337,-0.01874,0.045545,-0.014495
2338,0.000481,0.012055,0.003621
2339,0.000481,0.012055,0.021737
2340,-0.01874,0.06229,-0.014495
2341,0.019703,0.045545,-0.014495
2342,-0.01874,0.0288,-0.032611
2343,-0.01874,-0.00469,-0.014495
2344,0.000481,-0.038179,-0.014495
2345,0.000481,-0.00469,-0.032611
2346,0.000481,-0.021435,-0.032611
2347,-0.037962,-0.021435,-0.014495
2348,0.000481,-0.021435,-0.014495
2349,0.000481,-0.00469,-0.032611
2350,-0.01874,-0.00469,-0.032611
2351,0.000481,-0.00469,-0.032611
2352,-0.01874,-0.00469,0.003621
2353,0.000481,-0.00469,0.003621
2354,0.000481,0.012055,0.003621
2355,0.019703,-0.00469,0.039853
2356,0.000481,0.012055,0.057969
2357,-0.01874,0.012055,0.003621
2358,-0.01874,-0.00469,-0.014495
2359,-0.01874,-0.00469,-0.014495
2360,0.000481,-0.00469,-0.014495
2361,-0.01874,-0.00469,-0.014495
2362,-0.01874,-0.021435,0.021737
2363,0.000481,-0.00469,0.021737
2364,-0.01874,-0.00469,0.003621
2365,0.000481,0.0288,0.039853
2366,0.000481,0.012055,0.003621
2367,0.000481,0.012055,0.021737
2368,0.000481,0.012055,0.021737
2369,0.000481,0.012055,0.003621
2370,0.000481,0.012055,-0.014495
2371,-0.01874,0.0288,-0.014495
2372,-0.01874,-0.00469,0.003621
2373,0.000481,0.0288,0.021737
2374,0.000481,-0.00469,0.057969
2375,-0.01874,-0.021435,0.003621
2376,-0.01874,-0.00469,0.057969
2377,0.000481,-0.00469,-0.014495
2378,-0.037962,0.012055,-0.050727
2379,0.019703,-0.00469,-0.050727
2380,-0.01874,-0.00469,0.003621
2381,-0.01874,-0.00469,-0.032611
2382,-0.01874,0.012055,-0.014495
2383,-0.01874,0.012055,0.003621
2384,0.000481,-0.00469,-0.014495
2385,-0.01874,-0.00469,0.021737
2386,-0.01874,-0.00469,-0.014495
2387,0.019703,-0.021435,0.003621
2388,0.000481,-0.00469,0.021737
2389,0.000481,-0.021435,-0.014495
2390,0.038924,-0.00469,0.003621
2391,0.019703,-0.021435,0.039853
2392,0.000481,-0.00469,0.057969
2393,0.019703,0.012055,0.003621
2394,0.000481,0.012055,0.039853
2395,0.019703,0.012055,0.003621
2396,-0.01874,-0.00469,-0.050727
2397,-0.01874,-0.00469,-0.032611
2398,0.000481,0.012055,-0.032611
2399,-0.01874,-0.021435,-0.050727
2400,0.000481,0.012055,-0.014495
2401,-0.01874,-0.00469,0.021737
2402,-0.037962,-0.00469,-0.032611
2403,-0.037962,-0.021435,-0.014495
2404,-0.01874,-0.00469,-0.050727
2405,0.019703,-0.021435,-0.068843
2406,-0.037962,-0.071669,-0.032611
2407,0.000481,-0.038179,-0.032611
2408,-0.01874,-0.038179,0.003621
2409,0.000481,-0.021435,0.039853
2410,0.019703,0.012055,0.057969
2411,0.019703,0.0288,0.039853
2412,0.000481,0.045545,0.057969
2413,-0.01874,-0.021435,0.021737
2414,-0.01874,-0.021435,-0.014495
2415,-0.01874,-0.038179,0.003621
2416,-0.01874,-0.038179,0.003621
2417,0.000481,-0.021435,0.003621
2418,-0.01874,-0.021435,0.003621
2419,0.000481,0.012055,0.039853
2420,-0.01874,0.0288,0.003621
2421,0.000481,0.06229,0.021737
2422,0.000481,0.06229,0.003621
2423,-0.01874,-0.038179,-0.068843
2424,0.019703,-0.088414,-0.014495
2425,-0.037962,-0.071669,-0.032611
2426,-0.01874,-0.00469,-0.014495
2427,0.000481,0.045545,0.003621
2428,0.000481,0.06229,0.057969
2429,0.000481,0.112524,0.003621
2430,0.000481,0.079034,0.021737
2431,0.019703,0.095779,0.003621
2432,0.019703,0.06229,-0.014495
2433,-0.01874,0.0288,-0.014495
2434,-0.01874,-0.00469,-0.050727
2435,0.000481,0.012055,-0.032611
2436,-0.01874,0.012055,0.003621
2437,-0.01874,0.012055,0.039853
2438,0.019703,-0.021435,-0.014495
2439,0.000481,-0.00469,0.021737
2440,0.000481,-0.00469,0.003621
2441,-0.01874,-0.021435,-0.032611
2442,-0.01874,-0.038179,-0.032611
2443,-0.01874,-0.038179,-0.014495
2444,0.000481,-0.088414,-0.032611
2445,-0.01874,-0.071669,-0.068843
2446,-0.01874,-0.021435,0.003621
2447,-0.01874,-0.00469,-0.014495
2448,0.000481,0.0288,0.021737
2449,-0.01874,0.0288,-0.032611
2450,0.019703,0.045545,0.003621
2451,0.019703,0.079034,0.039853
2452,0.038924,0.0288,0.003621
2453,0.000481,-0.054924,0.003621
2454,0.000481,-0.021435,0.021737
2455,0.000481,-0.00469,0.003621
2456,0.000481,0.0288,0.057969
2457,0.000481,0.012055,0.057969
2458,-0.01874,0.0288,0.021737
2459,-0.01874,0.012055,0.003621
2460,-0.01874,0.012055,-0.014495
2461,-0.01874,-0.00469,-0.032611
2462,0.000481,-0.00469,-0.032611
2463,0.019703,-0.00469,-0.032611
2464,0.019703,-0.021435,-0.050727
2465,0.019703,0.012055,-0.032611
2466,0.000481,-0.00469,0.003621
2467,0.000481,-0.00469,-0.014495
2468,0.000481,-0.00469,-0.050727
2469,-0.037962,-0.021435,-0.032611
2470,-0.01874,-0.00469,-0.032611
2471,-0.01874,-0.00469,-0.050727
2472,0.000481,0.012055,0.021737
2473,-0.01874,0.012055,-0.014495
2474,0.000481,0.012055,0.039853
2475,0.000481,0.012055,0.076085
2476,0.000481,-0.00469,0.021737
2477,-0.01874,-0.021435,0.039853
2478,0.000481,0.012055,0.003621
2479,0.000481,0.012055,-0.032611
2480,0.038924,0.012055,-0.032611
2481,-0.01874,-0.00469,0.003621
2482,0.000481,0.012055,0.003621
2483,-0.01874,-0.00469,-0.014495
2484,0.000481,-0.038179,0.039853
2485,0.000481,-0.021435,-0.014495
2486,-0.01874,-0.021435,0.003621
2487,-0.01874,-0.00469,0.021737
2488,-0.01874,-0.00469,-0.032611
2489,0.000481,-0.00469,-0.032611
2490,-0.01874,0.0288,-0.014495
2491,0.000481,0.0288,-0.050727
2492,-0.01874,0.012055,-0.032611
2493,0.000481,0.0288,0.021737
2494,0.000481,0.045545,-0.014495
2495,0.019703,-0.00469,0.003621
2496,0.000481,0.012055,0.003621
2497,0.000481,0.012055,-0.032611
2498,0.000481,-0.00469,-0.050727
2499,-0.01874,-0.021435,-0.014495
2500,0.000481,-0.00469,-0.032611
2501,-0.01874,0.012055,-0.014495
2502,-0.01874,0.0288,0.021737
2503,-0.01874,0.012055,0.021737
2504,0.000481,0.012055,0.039853
2505,-0.01874,-0.00469,0.039853
2506,0.000481,0.012055,0.021737
2507,0.000481,0.012055,-0.050727
2508,0.000481,-0.00469,0.021737
2509,0.000481,-0.00469,0.003621
2510,0.000481,0.012055,0.003621
2511,0.000481,-0.00469,0.003621
2512,0.000481,-0.021435,-0.050727
2513,-0.01874,-0.021435,0.003621
2514,-0.01874,-0.00469,0.003621
2515,0.000481,-0.00469,-0.032611
2516,-0.037962,-0.00469,-0.050727
2517,-0.01874,-0.088414,-0.032611
2518,-0.01874,-0.054924,-0.032611
2519,0.000481,-0.038179,0.003621
2520,0.000481,-0.021435,0.039853
2521,0.038924,-0.00469,0.039853
2522,0.000481,-0.00469,0.039853
2523,0.000481,-0.00469,0.021737
2524,0.019703,-0.021435,-0.032611
2525,0.019703,0.045545,-0.068843
2526,-0.01874,0.045545,-0.032611
2527,0.000481,-0.00469,-0.032611
2528,0.019703,-0.021435,0.003621
2529,0.000481,-0.021435,0.021737
2530,0.019703,-0.00469,-0.014495
2531,0.019703,-0.038179,0.039853
2532,0.019703,-0.021435,0.003621
2533,-0.01874,-0.021435,-0.014495
2534,-0.01874,0.012055,-0.050727
2535,-0.037962,-0.00469,-0.032611
2536,-0.01874,-0.00469,-0.014495
2537,0.000481,-0.00469,0.003621
2538,0.000481,0.06229,0.039853
2539,-0.01874,0.06229,0.039853
2540,-0.037962,0.06229,0.039853
2541,-0.01874,0.06229,0.057969
2542,-0.01874,0.06229,0.021737
2543,0.000481,0.06229,0.039853
2544,-0.01874,0.0288,0.003621
2545,-0.01874,-0.00469,0.003621
2546,-0.01874,0.012055,0.003621
2547,0.000481,-0.00469,0.057969
2548,0.000481,-0.00469,0.003621
2549,-0.01874,-0.00469,0.021737
2550,0.000481,-0.054924,-0.014495
2551,0.019703,-0.038179,-0.014495
2552,0.000481,-0.038179,0.003621
2553,0.000481,-0.038179,-0.014495
2554,0.000481,-0.038179,-0.050727
2555,-0.01874,-0.021435,-0.014495
2556,0.019703,0.0288,0.021737
2557,0.000481,0.06229,0.021737
2558,0.019703,0.0288,0.021737
2559,0.000481,0.012055,0.039853
2560,-0.01874,-0.00469,-0.014495
2561,0.019703,-0.021435,0.039853
2562,-0.01874,-0.00469,-0.014495
2563,0.019703,-0.021435,-0.032611
2564,0.000481,-0.054924,-0.014495
2565,0.000481,-0.00469,-0.032611
2566,-0.01874,-0.021435,-0.032611
2567,-0.01874,0.012055,0.003621
2568,-0.01874,0.0288,-0.014495
2569,-0.01874,-0.00469,0.003621
2570,0.000481,0.0288,0.057969
2571,0.019703,0.0288,0.003621
2572,-0.01874,-0.00469,-0.032611
2573,0.000481,-0.038179,0.003621
2574,-0.01874,0.012055,-0.068843
2575,0.019703,-0.021435,0.003621
2576,0.000481,-0.021435,0.021737
2577,-0.01874,-0.054924,0.076085
2578,-0.01874,-0.038179,0.039853
2579,0.000481,-0.021435,0.021737
2580,-0.01874,-0.021435,-0.014495
2581,0.000481,-0.00469,-0.050727
2582,0.019703,0.045545,0.021737
2583,0.038924,0.06229,-0.014495
2584,0.000481,0.06229,0.039853
2585,0.019703,0.095779,0.021737
2586,0.000481,-0.00469,0.039853
2587,0.000481,-0.021435,0.021737
2588,0.000481,0.012055,0.021737
2589,-0.01874,-0.021435,-0.014495
2590,0.000481,-0.021435,-0.050727
2591,-0.01874,-0.021435,-0.050727
2592,-0.01874,-0.038179,-0.086959
2593,-0.01874,-0.054924,-0.014495
2594,0.000481,-0.00469,-0.014495
2595,-0.01874,-0.021435,-0.050727
2596,0.000481,0.0288,0.003621
2597,-0.01874,0.0288,-0.014495
2598,0.000481,0.012055,0.021737
2599,0.019703,0.012055,0.003621
2600,0.000481,-0.00469,0.039853
2601,0.000481,0.0288,-0.014495
2602,0.000481,0.012055,0.039853
2603,-0.01874,-0.021435,0.057969
2604,0.019703,-0.00469,0.057969
2605,0.019703,-0.021435,0.039853
2606,0.000481,-0.021435,0.021737
2607,0.000481,-0.021435,0.021737
2608,0.019703,-0.038179,0.003621
2609,0.019703,0.012055,0.021737
2610,0.000481,-0.00469,-0.068843
2611,0.000481,0.0288,0.003621
2612,0.000481,0.012055,0.021737
2613,0.019703,-0.00469,-0.014495
2614,-0.01874,-0.00469,0.003621
2615,-0.01874,-0.00469,0.021737
2616,-0.01874,0.0288,0.039853
2617,0.000481,0.045545,0.003621
2618,0.000481,0.045545,-0.014495
2619,0.000481,0.06229,-0.014495
2620,0.019703,0.045545,-0.032611
2621,0.038924,0.045545,0.039853
2622,0.000481,0.0288,0.057969
2623,0.000481,0.045545,0.039853
2624,0.000481,0.0288,0.039853
2625,0.000481,0.012055,0.021737
2626,0.000481,0.012055,-0.032611
2627,0.000481,-0.021435,-0.032611
2628,0.000481,-0.00469,-0.032611
2629,0.019703,0.012055,-0.014495
2630,0.038924,0.012055,-0.032611
2631,-0.01874,0.012055,-0.105075
2632,-0.037962,-0.021435,-0.050727
2633,-0.01874,-0.038179,0.003621
2634,-0.037962,-0.054924,-0.050727
2635,0.019703,-0.038179,-0.050727
2636,-0.01874,-0.038179,0.003621
2637,0.000481,-0.00469,-0.014495
2638,-0.01874,0.012055,-0.032611
2639,-0.01874,0.012055,0.021737
2640,0.000481,0.012055,0.003621
2641,0.000481,0.012055,0.021737
2642,0.000481,0.0288,0.057969
2643,0.000481,-0.00469,0.003621
2644,0.019703,-0.021435,-0.014495
2645,-0.01874,-0.021435,0.021737
2646,0.019703,-0.021435,-0.014495
2647,-0.01874,0.012055,-0.050727
2648,0.000481,0.0288,0.021737
2649,-0.01874,0.0288,-0.014495
2650,-0.01874,0.012055,0.003621
2651,0.000481,-0.00469,0.039853
2652,0.000481,-0.021435,-0.014495
2653,0.019703,-0.021435,0.021737
2654,0.000481,-0.00469,0.003621
2655,0.000481,-0.021435,-0.032611
2656,0.000481,0.012055,-0.032611
2657,0.000481,0.012055,-0.014495
2658,0.000481,-0.021435,-0.014495
2659,-0.01874,0.012055,-0.032611
2660,0.000481,-0.021435,0.021737
2661,0.000481,-0.00469,-0.032611
2662,0.000481,0.012055,0.003621
2663,0.019703,-0.021435,0.021737
2664,0.019703,-0.00469,-0.050727
2665,0.019703,-0.038179,-0.032611
2666,0.000481,-0.00469,0.021737
2667,-0.01874,-0.00469,-0.014495
2668,0.000481,0.012055,0.021737
2669,0.019703,0.012055,0.039853
2670,0.000481,-0.00469,0.039853
2671,0.000481,0.0288,0.039853
2672,0.000481,0.0288,0.039853
2673,0.000481,-0.021435,-0.014495
2674,-0.01874,-0.054924,-0.014495
2675,-0.01874,-0.038179,0.021737
2676,0.000481,-0.021435,-0.014495
2677,0.019703,-0.021435,-0.014495
2678,-0.01874,-0.00469,0.039853
2679,0.019703,0.0288,-0.032611
2680,0.000481,0.06229,0.039853
2681,0.019703,0.06229,0.021737
2682,0.019703,0.045545,0.021737
2683,0.000481,0.0288,-0.014495
2684,-0.01874,0.0288,0.021737
2685,0.000481,0.012055,0.003621
2686,0.000481,-0.00469,-0.032611
2687,-0.01874,-0.00469,-0.050727
2688,0.019703,0.012055,-0.014495
2689,0.000481,-0.021435,-0.032611
2690,-0.01874,-0.00469,0.003621
2691,-0.01874,-0.021435,-0.014495
2692,-0.01874,-0.105159,-0.068843
2693,-0.01874,-0.121903,-0.014495
2694,0.000481,-0.121903,-0.032611
2695,-0.01874,-0.121903,-0.032611
2696,-0.01874,-0.071669,0.021737
2697,-0.01874,-0.021435,0.003621
2698,-0.01874,0.012055,0.003621
2699,-0.01874,0.095779,0.039853
2700,-0.01874,0.146014,0.021737
2701,0.000481,0.112524,-0.032611
2702,0.019703,0.06229,0.003621
2703,0.000481,0.06229,-0.014495
2704,0.019703,0.012055,-0.032611
2705,-0.01874,0.012055,0.057969
2706,0.000481,0.012055,-0.014495
2707,0.000481,-0.00469,0.003621
2708,-0.01874,0.012055,0.003621
2709,0.000481,0.045545,0.057969
2710,0.000481,0.012055,0.039853
2711,0.019703,0.095779,0.039853
2712,0.000481,0.012055,0.039853
2713,-0.01874,-0.021435,0.021737
2714,-0.01874,-0.021435,0.039853
2715,-0.01874,0.012055,0.003621
2716,-0.01874,-0.021435,0.003621
2717,0.000481,-0.038179,0.021737
2718,0.019703,-0.021435,-0.014495
2719,0.000481,0.012055,0.021737
2720,0.000481,0.012055,-0.014495
2721,0.000481,0.045545,-0.014495
2722,-0.01874,0.012055,0.003621
2723,-0.01874,0.012055,0.003621
2724,-0.01874,0.012055,-0.050727
2725,0.000481,0.012055,-0.014495
2726,-0.01874,-0.00469,0.021737
2727,-0.01874,0.012055,0.003621
2728,0.000481,-0.00469,0.003621
2729,0.019703,-0.00469,0.003621
2730,0.000481,-0.00469,-0.032611
2731,-0.01874,-0.00469,-0.050727
2732,-0.01874,-0.00469,0.003621
2733,-0.01874,-0.00469,-0.050727
2734,0.000481,0.0288,-0.032611
2735,0.019703,-0.021435,0.003621
2736,0.000481,-0.021435,0.003621
2737,0.000481,-0.00469,0.003621
2738,0.000481,-0.00469,0.003621
2739,0.000481,-0.021435,-0.032611
2740,0.000481,-0.00469,-0.068843
2741,-0.01874,-0.00469,-0.050727
2742,0.000481,-0.00469,-0.050727
2743,-0.01874,-0.00469,0.003621
2744,-0.01874,-0.00469,0.003621
2745,0.000481,0.0288,0.057969
2746,0.000481,0.012055,0.057969
2747,0.000481,0.012055,0.076085
2748,0.000481,-0.00469,0.039853
2749,0.000481,-0.00469,0.021737
2750,0.000481,-0.00469,0.039853
2751,-0.01874,-0.00469,0.003621
2752,-0.01874,-0.00469,0.003621
2753,-0.01874,-0.021435,0.021737
2754,-0.01874,-0.021435,0.003621
2755,0.019703,-0.021435,0.003621
2756,0.000481,-0.00469,0.057969
2757,0.019703,-0.00469,0.003621
2758,0.000481,0.012055,-0.032611
2759,0.000481,0.0288,-0.014495
2760,0.000481,0.012055,-0.050727
2761,-0.01874,-0.00469,0.003621
2762,-0.037962,-0.021435,-0.050727
2763,0.000481,-0.038179,-0.068843
2764,0.000481,-0.00469,-0.032611
2765,0.019703,-0.038179,0.021737
2766,-0.01874,-0.021435,-0.014495
2767,-0.01874,-0.00469,-0.014495
2768,0.000481,-0.00469,0.021737
2769,-0.01874,-0.021435,0.003621
2770,-0.01874,-0.054924,-0.068843
2771,-0.01874,-0.054924,0.003621
2772,0.000481,-0.054924,-0.032611
2773,0.000481,-0.054924,0.021737
2774,-0.01874,-0.088414,0.039853
2775,0.000481,-0.138648,-0.014495
2776,-0.01874,-0.054924,-0.014495
2777,-0.01874,-0.054924,0.003621
2778,-0.01874,0.012055,0.003621
2779,0.000481,0.079034,-0.014495
2780,-0.01874,0.079034,0.003621
2781,0.019703,0.129269,-0.032611
2782,0.019703,0.162759,-0.014495
2783,0.019703,0.095779,0.003621
2784,0.019703,0.0288,0.003621
2785,0.019703,0.012055,0.039853
2786,0.000481,0.045545,0.003621
2787,0.000481,-0.00469,-0.032611
2788,0.019703,0.012055,-0.050727
2789,0.000481,0.0288,0.003621
2790,0.000481,0.045545,-0.032611
2791,0.019703,0.06229,-0.014495
2792,0.019703,0.0288,0.003621
2793,0.000481,0.0288,0.021737
2794,-0.01874,-0.038179,0.039853
2795,0.000481,0.012055,0.076085
2796,-0.01874,-0.00469,0.021737
2797,-0.037962,-0.021435,0.003621
2798,-0.037962,-0.038179,0.003621
2799,-0.01874,-0.021435,-0.032611
2800,0.000481,0.012055,0.003621
2801,0.000481,0.012055,-0.014495
2802,-0.01874,-0.00469,0.021737
2803,0.000481,-0.00469,0.021737
2804,-0.01874,-0.00469,0.003621
2805,0.000481,-0.00469,0.021737
2806,0.000481,-0.00469,-0.050727
2807,-0.01874,0.012055,0.003621
2808,0.000481,-0.00469,0.003621
2809,0.000481,-0.00469,0.039853
2810,-0.01874,0.012055,0.021737
2811,-0.01874,-0.021435,0.039853
2812,0.000481,-0.00469,-0.014495
2813,0.000481,0.012055,0.003621
2814,0.019703,-0.00469,-0.014495
2815,-0.01874,0.012055,-0.014495
2816,0.000481,-0.021435,-0.032611
2817,-0.01874,-0.00469,-0.050727
2818,0.000481,-0.00469,-0.014495
2819,-0.01874,-0.021435,0.021737
2820,0.000481,-0.00469,0.057969
2821,-0.01874,0.012055,0.003621
2822,-0.01874,0.012055,0.076085
2823,0.000481,0.012055,0.021737
2824,-0.01874,-0.00469,0.003621
2825,0.000481,-0.00469,-0.014495
2826,0.019703,-0.00469,-0.014495
2827,0.000481,-0.00469,-0.032611
2828,0.000481,0.0288,-0.014495
2829,0.019703,-0.021435,0.021737
2830,0.019703,-0.00469,0.003621
2831,0.000481,-0.00469,0.021737
2832,-0.01874,-0.00469,0.003621
2833,-0.01874,0.012055,-0.032611
2834,0.000481,0.012055,0.021737
2835,-0.01874,-0.021435,0.021737
2836,-0.01874,-0.00469,0.003621
2837,0.000481,-0.00469,0.039853
2838,0.000481,-0.00469,-0.014495
2839,0.000481,-0.021435,0.021737
2840,0.000481,-0.00469,0.021737
2841,0.000481,-0.00469,0.021737
2842,0.000481,-0.021435,-0.032611
2843,-0.01874,-0.038179,-0.032611
2844,-0.01874,0.012055,-0.032611
2845,0.000481,0.012055,-0.014495
2846,0.000481,0.012055,0.003621
2847,-0.01874,-0.00469,-0.050727
2848,0.000481,0.012055,-0.014495
2849,-0.01874,0.0288,0.021737
2850,-0.01874,0.0288,-0.032611
2851,0.000481,0.0288,-0.014495
2852,0.000481,-0.021435,-0.014495
2853,0.000481,-0.038179,-0.014495
2854,-0.01874,-0.00469,-0.032611
2855,-0.01874,0.012055,0.021737
2856,0.000481,0.012055,-0.014495
2857,0.000481,-0.00469,0.021737
2858,-0.01874,-0.00469,0.021737
2859,-0.01874,0.0288,0.003621
2860,0.000481,-0.021435,0.057969
2861,0.000481,-0.00469,-0.014495
2862,0.000481,-0.038179,-0.014495
2863,-0.01874,-0.038179,-0.050727
2864,-0.01874,-0.021435,0.021737
2865,-0.01874,0.012055,-0.014495
2866,0.000481,0.012055,0.003621
2867,0.000481,-0.021435,0.039853
2868,0.000481,-0.00469,0.003621
2869,0.000481,0.0288,0.021737
2870,0.000481,0.012055,-0.014495
2871,0.000481,0.012055,-0.032611
2872,-0.01874,-0.00469,-0.068843
2873,0.000481,0.0288,-0.032611
2874,0.019703,0.0288,-0.050727
2875,0.000481,0.045545,-0.032611
2876,0.019703,0.045545,-0.032611
2877,-0.01874,0.012055,-0.014495
2878,0.019703,0.0288,0.003621
2879,0.000481,-0.00469,-0.014495
2880,-0.01874,-0.038179,-0.050727
2881,-0.01874,-0.054924,-0.050727
2882,-0.037962,-0.105159,-0.050727
2883,-0.037962,-0.121903,-0.050727
2884,-0.01874,-0.054924,-0.032611
2885,0.000481,0.012055,0.003621
2886,0.000481,0.045545,0.003621
2887,0.000481,0.095779,0.076085
2888,-0.01874,0.146014,0.076085
2889,0.019703,0.129269,0.094201
2890,0.000481,0.06229,0.039853
2891,0.000481,0.012055,0.039853
2892,0.000481,-0.00469,-0.032611
2893,-0.037962,0.012055,0.021737
2894,0.000481,-0.00469,0.003621
2895,0.000481,-0.021435,-0.014495
2896,0.019703,-0.021435,0.021737
2897,-0.01874,-0.00469,0.003621
2898,-0.01874,-0.00469,-0.032611
2899,0.000481,-0.00469,-0.032611
2900,0.000481,-0.00469,-0.050727
2901,-0.01874,-0.00469,-0.105075
2902,-0.01874,-0.00469,0.039853
2903,-0.01874,-0.00469,-0.014495
2904,0.000481,-0.021435,-0.014495
2905,0.000481,-0.021435,0.021737
2906,0.019703,-0.00469,0.003621
2907,0.000481,-0.00469,-0.032611
2908,0.019703,-0.00469,-0.068843
2909,0.000481,0.012055,-0.032611
2910,0.000481,0.012055,-0.068843
2911,0.000481,-0.00469,0.039853
2912,0.000481,0.012055,0.003621
2913,0.000481,-0.00469,-0.014495
2914,0.019703,0.0288,0.003621
2915,0.000481,0.012055,0.021737
2916,0.000481,-0.00469,-0.014495
2917,-0.01874,-0.00469,0.003621
2918,0.019703,-0.00469,-0.014495
2919,0.000481,-0.00469,-0.050727
2920,-0.01874,0.012055,0.003621
2921,0.000481,0.012055,0.057969
2922,0.000481,-0.00469,0.021737
2923,-0.037962,-0.00469,0.039853
2924,-0.01874,0.012055,0.039853
2925,-0.01874,-0.00469,0.003621
2926,0.000481,0.012055,0.057969
2927,0.019703,0.0288,0.003621
2928,-0.01874,-0.00469,-0.014495
2929,0.000481,-0.00469,0.003621
2930,0.000481,-0.038179,0.021737
2931,0.019703,-0.021435,-0.014495
2932,0.000481,-0.00469,0.021737
2933,-0.01874,-0.00469,0.021737
2934,0.000481,0.012055,0.003621
2935,-0.01874,-0.021435,0.003621
2936,0.000481,-0.038179,0.003621
2937,0.000481,-0.00469,0.003621
2938,0.019703,-0.038179,0.021737
2939,0.019703,0.012055,-0.014495
2940,0.000481,-0.00469,-0.014495
2941,0.000481,0.012055,0.021737
2942,0.000481,0.012055,0.021737
2943,0.000481,0.045545,-0.014495
2944,-0.01874,0.012055,0.003621
2945,-0.01874,-0.021435,-0.014495
2946,0.000481,-0.021435,-0.032611
2947,-0.01874,-0.038179,0.021737
2948,-0.01874,-0.038179,-0.050727
2949,-0.01874,-0.038179,0.003621
2950,-0.037962,-0.021435,0.021737
2951,-0.01874,-0.021435,0.021737
2952,0.000481,-0.021435,-0.014495
2953,0.000481,0.0288,0.021737
2954,0.000481,0.045545,-0.014495
2955,0.000481,0.045545,-0.050727
2956,-0.01874,0.0288,-0.014495
2957,0.000481,-0.021435,-0.014495
2958,-0.01874,-0.00469,0.003621
2959,-0.01874,-0.00469,0.021737
2960,0.019703,-0.00469,0.039853
2961,0.000481,-0.054924,0.021737
2962,0.019703,-0.088414,-0.014495
2963,-0.01874,-0.088414,-0.032611
2964,-0.037962,-0.054924,-0.032611
2965,-0.037962,-0.00469,-0.014495
2966,-0.037962,0.045545,-0.032611
2967,-0.01874,0.045545,0.021737
2968,0.000481,0.095779,0.003621
2969,0.000481,0.095779,0.021737
2970,0.019703,0.095779,0.039853
2971,-0.01874,0.045545,0.057969
2972,0.019703,0.045545,0.003621
2973,0.019703,0.0288,-0.014495
2974,0.000481,0.012055,0.021737
2975,0.019703,0.045545,-0.032611
2976,0.000481,0.06229,-0.014495
2977,0.038924,-0.00469,0.003621
2978,0.019703,0.012055,0.003621
2979,-0.01874,-0.00469,0.039853
2980,0.000481,-0.021435,0.003621
2981,-0.037962,-0.038179,-0.032611
2982,-0.01874,-0.038179,-0.068843
2983,0.000481,-0.054924,-0.050727
2984,-0.01874,-0.054924,-0.032611
2985,-0.037962,-0.021435,-0.014495
2986,-0.01874,-0.021435,0.039853
2987,-0.01874,0.012055,0.039853
2988,-0.01874,0.012055,0.057969
2989,-0.01874,0.045545,0.039853
2990,0.000481,0.045545,0.021737
2991,0.000481,0.0288,0.003621
2992,0.038924,-0.038179,0.021737
2993,0.019703,-0.038179,0.021737
2994,-0.01874,-0.038179,0.003621
2995,0.000481,-0.021435,0.021737
2996,0.019703,0.012055,0.021737
2997,0.000481,0.06229,0.039853
2998,-0.01874,0.06229,0.076085
2999,0.019703,0.0288,0.021737
3000,-0.01874,0.0288,-0.050727
3001,-0.01874,0.012055,-0.014495
3002,0.000481,0.012055,-0.014495
3003,0.019703,-0.00469,-0.050727
3004,0.000481,-0.00469,0.003621
3005,0.038924,-0.021435,-0.032611
3006,0.000481,-0.00469,0.021737
3007,-0.01874,-0.021435,0.003621
3008,-0.037962,-0.021435,0.003621
3009,0.000481,-0.00469,-0.032611
3010,-0.01874,-0.00469,0.003621
3011,0.000481,-0.038179,-0.014495
3012,-0.01874,-0.021435,-0.014495
3013,0.000481,0.0288,0.057969
3014,0.000481,0.0288,-0.014495
3015,0.000481,0.012055,0.021737
3016,0.000481,-0.00469,0.021737
3017,0.019703,0.0288,-0.014495
3018,0.000481,-0.021435,-0.050727
3019,-0.057183,0.012055,0.003621
3020,-0.01874,-0.00469,0.003621
3021,0.019703,-0.00469,-0.014495
3022,0.019703,0.012055,-0.014495
3023,0.019703,0.012055,-0.050727
3024,0.000481,-0.00469,0.003621
3025,0.019703,-0.021435,0.021737
3026,0.000481,0.012055,0.021737
3027,0.019703,-0.021435,0.039853
3028,-0.01874,-0.038179,0.003621
3029,-0.01874,-0.071669,-0.032611
3030,-0.01874,-0.054924,-0.050727
3031,-0.01874,-0.038179,-0.014495
3032,0.000481,-0.021435,-0.068843
3033,0.019703,-0.00469,-0.032611
3034,-0.01874,0.012055,0.021737
3035,0.000481,0.0288,-0.014495
3036,-0.01874,0.079034,0.057969
3037,-0.01874,0.0288,0.003621
3038,0.000481,0.012055,-0.032611
3039,0.019703,0.012055,-0.050727
3040,0.038924,-0.00469,0.021737
3041,-0.01874,0.012055,-0.032611
3042,0.000481,0.012055,0.039853
3043,0.038924,-0.00469,0.039853
3044,0.000481,-0.054924,0.039853
3045,-0.01874,-0.088414,0.021737
3046,0.000481,-0.071669,-0.032611
3047,0.000481,-0.038179,-0.032611
3048,-0.037962,-0.054924,-0.014495
3049,-0.01874,0.0288,0.003621
3050,0.000481,0.0288,-0.032611
3051,-0.01874,0.06229,-0.032611
3052,0.000481,0.129269,-0.014495
3053,0.019703,0.045545,0.021737
3054,0.019703,-0.00469,0.021737
3055,0.019703,-0.00469,0.057969
3056,0.019703,-0.00469,-0.032611
3057,0.000481,-0.00469,-0.014495
3058,-0.01874,-0.00469,-0.014495
3059,0.000481,0.0288,-0.068843
3060,-0.01874,0.079034,-0.014495
3061,0.019703,0.06229,0.021737
3062,0.000481,-0.00469,-0.014495
3063,0.019703,0.0288,-0.014495
3064,0.019703,-0.00469,0.003621
3065,0.000481,-0.00469,-0.014495
3066,-0.057183,-0.00469,-0.032611
3067,-0.01874,0.012055,-0.032611
3068,-0.01874,-0.021435,-0.032611
3069,-0.037962,-0.00469,-0.032611
3070,-0.01874,-0.00469,-0.014495
3071,-0.01874,-0.00469,0.021737
3072,0.000481,-0.00469,0.003621
3073,-0.01874,-0.021435,0.039853
3074,0.019703,-0.00469,-0.032611
3075,0.000481,-0.00469,-0.014495
3076,0.019703,-0.00469,0.003621
3077,0.000481,0.012055,-0.032611
3078,0.000481,0.012055,0.021737
3079,-0.01874,-0.00469,0.039853
3080,0.019703,0.012055,0.003621
3081,-0.01874,-0.021435,0.039853
3082,0.019703,-0.021435,0.039853
3083,0.000481,0.012055,-0.014495
3084,0.000481,0.012055,-0.014495
3085,0.000481,-0.038179,0.021737
3086,0.000481,0.012055,-0.014495
3087,0.000481,0.045545,-0.032611
3088,-0.037962,0.012055,0.003621
3089,0.000481,0.012055,-0.050727
3090,-0.01874,-0.021435,-0.032611
3091,0.000481,-0.038179,0.039853
3092,-0.01874,-0.054924,-0.014495
3093,0.000481,-0.038179,-0.050727
3094,-0.01874,-0.038179,0.003621
3095,-0.037962,-0.021435,-0.032611
3096,-0.01874,-0.054924,-0.032611
3097,0.000481,-0.021435,0.003621
3098,-0.01874,-0.00469,-0.032611
3099,-0.01874,0.0288,0.021737
3100,-0.01874,0.012055,0.003621
3101,0.000481,0.012055,0.003621
3102,0.019703,0.06229,0.021737
3103,0.000481,0.045545,0.003621
3104,0.019703,0.0288,-0.050727
3105,0.000481,-0.00469,-0.050727
3106,-0.037962,-0.021435,-0.014495
3107,-0.01874,-0.00469,-0.068843
3108,-0.01874,-0.00469,-0.032611
3109,0.000481,0.012055,0.021737
3110,0.000481,0.012055,0.021737
3111,0.000481,0.0288,0.039853
3112,0.019703,0.012055,0.057969
3113,0.019703,0.0288,0.003621
3114,0.019703,-0.00469,0.003621
3115,0.000481,-0.00469,0.003621
3116,0.019703,0.012055,-0.014495
3117,0.000481,0.012055,0.021737
3118,0.019703,0.0288,0.039853
3119,0.000481,0.0288,0.057969
3120,0.019703,0.012055,0.057969
3121,0.019703,-0.00469,0.039853
3122,-0.01874,-0.021435,0.003621
3123,-0.01874,-0.054924,-0.050727
3124,-0.01874,-0.038179,-0.014495
3125,-0.01874,-0.054924,-0.068843
3126,-0.01874,-0.021435,-0.050727
3127,0.000481,-0.021435,0.021737
3128,-0.01874,-0.00469,0.039853
3129,0.000481,-0.00469,-0.014495
3130,0.000481,0.045545,0.039853
3131,0.000481,-0.00469,-0.032611
3132,0.000481,-0.021435,-0.068843
3133,0.000481,-0.021435,-0.032611
3134,0.019703,-0.00469,-0.014495
3135,0.019703,0.012055,0.021737
3136,-0.01874,0.0288,0.039853
3137,0.000481,0.0288,0.039853
3138,-0.037962,0.0288,0.021737
3139,0.019703,0.079034,0.039853
3140,0.019703,0.079034,0.021737
3141,0.019703,0.045545,-0.014495
3142,0.000481,-0.00469,-0.032611
3143,0.019703,-0.021435,-0.050727
3144,0.019703,-0.021435,-0.032611
3145,0.019703,0.0288,0.021737
3146,0.000481,0.012055,0.003621
3147,0.019703,-0.00469,0.003621
3148,0.000481,0.0288,0.021737
3149,0.000481,-0.00469,0.003621
3150,0.000481,0.0288,0.003621
3151,0.019703,-0.00469,-0.014495
3152,0.000481,-0.00469,-0.032611
3153,0.000481,0.0288,-0.014495
3154,-0.037962,-0.038179,0.021737
3155,0.019703,-0.00469,0.003621
3156,-0.01874,0.012055,0.003621
3157,-0.01874,0.012055,0.021737
3158,-0.01874,0.012055,0.003621
3159,-0.01874,-0.021435,-0.014495
3160,-0.01874,0.012055,-0.050727
3161,-0.01874,-0.00469,-0.050727
3162,0.000481,-0.021435,-0.050727
3163,-0.01874,0.012055,0.003621
3164,0.000481,-0.021435,-0.032611
3165,-0.01874,-0.038179,0.003621
3166,0.000481,-0.054924,0.021737
3167,0.000481,-0.038179,0.003621
3168,0.000481,-0.038179,0.039853
3169,-0.01874,0.0288,0.039853
3170,-0.01874,0.045545,0.003621
3171,0.038924,0.012055,-0.032611
3172,-0.01874,0.0288,-0.014495
3173,-0.01874,0.012055,-0.014495
3174,0.019703,0.012055,0.039853
3175,0.019703,0.012055,0.039853
3176,0.000481,0.012055,-0.014495
3177,-0.01874,0.012055,-0.014495
3178,0.000481,-0.00469,-0.014495
3179,-0.01874,0.079034,-0.032611
3180,0.000481,-0.00469,-0.068843
3181,0.000481,-0.00469,0.021737
3182,0.000481,-0.021435,-0.032611
3183,0.000481,-0.00469,0.021737
3184,0.000481,0.0288,0.039853
3185,-0.01874,0.012055,0.076085
3186,0.000481,0.045545,0.076085
3187,0.000481,-0.00469,0.039853
3188,-0.01874,-0.021435,-0.032611
3189,-0.01874,-0.00469,-0.032611
3190,0.000481,-0.00469,0.003621
3191,-0.01874,0.0288,-0.032611
3192,0.000481,0.012055,-0.032611
3193,0.000481,0.012055,0.021737
3194,0.000481,0.012055,0.003621
3195,0.000481,-0.00469,0.003621
3196,-0.01874,-0.00469,0.039853
3197,-0.01874,-0.021435,-0.032611
3198,0.019703,-0.00469,-0.050727
3199,0.000481,-0.00469,-0.014495
3200,0.019703,-0.021435,-0.014495
3201,0.000481,-0.038179,0.003621
3202,-0.01874,-0.00469,0.021737
3203,0.000481,-0.021435,0.021737
3204,-0.01874,0.012055,0.021737
3205,0.000481,-0.00469,0.057969
3206,0.000481,0.0288,0.021737
3207,-0.01874,0.045545,0.003621
3208,-0.01874,0.0288,0.003621
3209,0.000481,0.045545,0.003621
3210,-0.01874,0.012055,-0.032611
3211,-0.01874,-0.00469,0.003621
3212,0.000481,-0.021435,0.003621
3213,0.000481,-0.00469,0.003621
3214,0.019703,-0.021435,0.021737
3215,0.000481,-0.054924,-0.014495
3216,-0.01874,-0.071669,-0.032611
3217,-0.01874,-0.088414,-0.014495
3218,-0.037962,-0.038179,-0.050727
3219,0.000481,0.012055,0.003621
3220,0.000481,0.0288,0.057969
3221,-0.01874,0.0288,0.021737
3222,0.019703,0.0288,0.039853
3223,0.019703,0.079034,0.076085
3224,0.000481,0.095779,0.021737
3225,0.019703,0.0288,-0.014495
3226,0.000481,0.012055,0.021737
3227,-0.037962,-0.00469,-0.032611
3228,-0.01874,-0.00469,0.003621
3229,0.000481,-0.021435,0.003621
3230,-0.01874,0.012055,0.021737
3231,0.000481,-0.021435,0.021737
3232,-0.01874,-0.021435,0.021737
3233,-0.01874,-0.021435,-0.032611
3234,-0.037962,-0.00469,0.003621
3235,-0.01874,0.012055,-0.014495
3236,0.000481,-0.00469,-0.032611
3237,0.019703,-0.054924,-0.014495
3238,-0.037962,-0.088414,-0.014495
3239,0.000481,-0.071669,-0.014495
3240,-0.01874,-0.00469,-0.014495
3241,0.000481,-0.00469,0.021737
3242,0.000481,-0.00469,-0.014495
3243,0.019703,0.0288,-0.032611
3244,0.000481,0.06229,-0.032611
3245,0.019703,0.095779,-0.068843
3246,0.019703,0.0288,-0.014495
3247,-0.01874,0.0288,0.021737
3248,0.000481,0.012055,0.021737
3249,0.000481,0.012055,0.003621
3250,0.000481,0.012055,0.057969
3251,0.000481,-0.021435,0.003621
3252,0.000481,-0.00469,0.039853
3253,0.000481,-0.00469,0.039853
3254,-0.01874,-0.00469,0.003621
3255,0.000481,0.012055,0.003621
3256,0.019703,0.0288,-0.014495
3257,0.000481,0.012055,-0.032611
3258,-0.01874,-0.00469,-0.032611
3259,0.000481,0.012055,0.003621
3260,0.000481,0.012055,0.021737
3261,0.000481,0.012055,0.021737
3262,0.000481,-0.00469,-0.014495
3263,-0.01874,-0.00469,0.003621
3264,0.000481,-0.00469,0.003621
3265,0.000481,-0.021435,-0.014495
3266,0.000481,-0.00469,0.003621
3267,0.096589,-0.00469,0.039853
3268,-0.01874,-0.00469,0.021737
3269,0.000481,0.012055,0.003621
3270,0.000481,-0.00469,0.039853
3271,0.000481,-0.00469,0.003621
3272,0.019703,0.012055,-0.032611
3273,-0.01874,-0.038179,-0.032611
3274,0.000481,-0.038179,-0.050727
3275,-0.01874,-0.038179,-0.050727
3276,-0.01874,-0.00469,-0.014495
3277,-0.01874,0.012055,0.003621
3278,0.000481,0.045545,-0.014495
3279,0.000481,0.045545,0.039853
3280,0.019703,0.045545,0.021737
3281,0.019703,0.0288,-0.032611
3282,0.019703,0.045545,-0.032611
3283,0.019703,0.0288,-0.050727
3284,0.019703,0.012055,-0.032611
3285,0.000481,0.012055,-0.014495
3286,-0.057183,-0.021435,-0.032611
3287,-0.037962,-0.021435,-0.014495
3288,-0.037962,-0.021435,-0.014495
3289,0.000481,-0.00469,0.003621
3290,-0.01874,-0.021435,0.003621
3291,-0.037962,-0.00469,-0.032611
3292,-0.01874,-0.00469,-0.014495
3293,-0.01874,-0.00469,-0.014495
3294,-0.01874,0.012055,-0.014495
3295,0.000481,-0.021435,0.021737
3296,0.000481,-0.00469,-0.014495
3297,-0.01874,-0.021435,-0.014495
3298,-0.01874,0.012055,0.003621
3299,0.000481,-0.00469,-0.014495
3300,0.000481,-0.021435,0.003621
3301,-0.037962,-0.038179,-0.014495
3302,0.000481,-0.088414,-0.014495
3303,0.000481,-0.038179,0.021737
3304,-0.01874,-0.054924,0.021737
3305,-0.01874,-0.054924,0.021737
3306,0.000481,-0.054924,0.021737
3307,0.019703,0.012055,0.021737
3308,0.000481,0.079034,0.021737
3309,0.019703,0.112524,0.039853
3310,0.019703,0.095779,0.039853
3311,0.000481,0.079034,0.003621
3312,0.038924,0.095779,0.021737
3313,0.000481,0.079034,-0.032611
3314,0.019703,0.06229,-0.014495
3315,0.019703,0.012055,0.057969
3316,0.000481,-0.00469,0.021737
3317,0.000481,0.012055,0.003621
3318,-0.01874,-0.021435,0.003621
3319,0.000481,-0.038179,-0.050727
3320,-0.01874,-0.038179,-0.032611
3321,-0.01874,-0.038179,-0.032611
3322,-0.01874,-0.038179,-0.050727
3323,0.000481,-0.00469,0.021737
3324,0.000481,0.012055,0.003621
3325,0.000481,0.0288,-0.014495
3326,0.000481,0.0288,-0.068843
3327,-0.037962,0.0288,-0.032611
3328,0.000481,-0.00469,-0.032611
3329,0.000481,-0.00469,-0.032611
3330,0.000481,-0.021435,0.003621
3331,-0.01874,-0.054924,0.003621
3332,-0.01874,0.012055,-0.032611
3333,0.019703,-0.00469,0.039853
3334,0.019703,0.012055,0.076085
3335,0.000481,0.012055,0.057969
3336,0.000481,0.012055,0.021737
3337,0.019703,0.0288,-0.014495
3338,0.000481,0.0288,0.003621
3339,0.000481,0.045545,0.039853
3340,0.019703,0.012055,0.003621
3341,0.000481,0.012055,0.021737
3342,-0.01874,-0.00469,0.057969
3343,-0.01874,-0.00469,0.003621
3344,0.000481,-0.00469,0.021737
3345,0.000481,-0.00469,0.003621
3346,0.019703,0.012055,0.003621
3347,0.000481,-0.00469,-0.032611
3348,-0.01874,-0.021435,-0.014495
3349,-0.01874,-0.00469,-0.032611
3350,0.000481,-0.021435,-0.014495
3351,0.019703,-0.00469,-0.014495
3352,-0.01874,-0.00469,0.003621
3353,-0.01874,-0.00469,0.021737
3354,0.000481,-0.00469,0.021737
3355,0.000481,-0.00469,0.003621
3356,0.000481,0.012055,-0.050727
3357,0.000481,-0.00469,-0.014495
3358,0.000481,0.0288,-0.068843
3359,-0.01874,0.012055,-0.014495
3360,-0.037962,0.012055,0.039853
3361,-0.01874,0.012055,0.003621
3362,0.000481,-0.021435,0.003621
3363,0.000481,-0.00469,0.039853
3364,0.000481,-0.00469,-0.014495
3365,-0.01874,-0.021435,-0.032611
3366,0.000481,0.012055,0.003621
3367,0.000481,-0.021435,-0.014495
3368,-0.01874,-0.054924,0.021737
3369,0.000481,-0.038179,0.003621
3370,0.000481,-0.038179,0.021737
3371,-0.01874,-0.021435,0.003621
3372,-0.037962,-0.021435,0.021737
3373,-0.01874,0.0288,-0.014495
3374,0.000481,0.0288,-0.050727
3375,0.000481,0.045545,-0.032611
3376,0.000481,0.012055,-0.014495
3377,0.000481,-0.00469,-0.014495
3378,0.000481,0.012055,0.021737
3379,0.000481,0.012055,-0.014495
3380,0.000481,0.012055,0.021737
3381,0.000481,0.012055,0.057969
3382,0.000481,-0.00469,0.021737
3383,0.000481,-0.00469,-0.014495
3384,-0.01874,0.012055,0.039853
3385,-0.01874,0.012055,-0.014495
3386,0.000481,-0.00469,0.003621
3387,0.000481,0.012055,-0.014495
3388,0.000481,0.012055,0.003621
3389,0.000481,-0.00469,0.003621
3390,-0.037962,-0.00469,0.021737
3391,0.000481,0.0288,-0.014495
3392,0.019703,-0.00469,0.003621
3393,0.000481,-0.00469,0.003621
3394,0.038924,-0.021435,-0.032611
3395,-0.01874,-0.00469,-0.032611
3396,0.019703,-0.021435,-0.014495
3397,-0.01874,-0.021435,-0.032611
3398,-0.01874,-0.054924,0.003621
3399,0.000481,-0.071669,0.039853
3400,-0.01874,-0.138648,-0.014495
3401,0.000481,-0.088414,0.021737
3402,-0.01874,-0.021435,-0.014495
3403,-0.01874,-0.021435,-0.032611
3404,-0.01874,0.012055,-0.032611
3405,0.000481,0.095779,-0.014495
3406,0.000481,0.095779,-0.068843
3407,0.019703,0.129269,-0.032611
3408,0.000481,0.079034,-0.014495
3409,0.000481,0.079034,-0.032611
3410,-0.01874,0.012055,-0.014495
3411,0.000481,0.012055,-0.032611
3412,-0.01874,-0.00469,-0.032611
3413,0.019703,0.012055,-0.050727
3414,0.000481,-0.00469,0.057969
3415,0.000481,-0.00469,0.003621
3416,0.000481,0.012055,0.039853
3417,0.000481,0.012055,0.076085
3418,0.000481,-0.021435,0.057969
3419,0.000481,-0.021435,0.094201
3420,0.000481,-0.021435,0.076085
3421,0.000481,-0.021435,0.021737
3422,-0.01874,-0.021435,0.003621
3423,0.000481,-0.00469,0.021737
3424,0.019703,0.06229,-0.014495
3425,0.000481,0.012055,0.021737
3426,0.000481,0.0288,0.039853
3427,0.000481,0.0288,0.039853
3428,-0.01874,-0.00469,0.021737
3429,0.000481,0.012055,0.039853
3430,-0.01874,0.012055,-0.014495
3431,0.019703,-0.021435,-0.014495
3432,0.000481,-0.038179,0.021737
3433,0.000481,-0.054924,-0.032611
3434,-0.037962,-0.021435,-0.032611
3435,0.000481,-0.021435,-0.014495
3436,-0.01874,-0.021435,-0.014495
3437,0.000481,-0.054924,-0.014495
3438,-0.01874,-0.021435,-0.014495
3439,0.000481,-0.021435,-0.050727
3440,0.000481,-0.00469,-0.032611
3441,0.019703,0.0288,0.003621
3442,0.000481,0.0288,0.003621
3443,-0.01874,0.012055,0.039853
3444,-0.037962,0.012055,0.057969
3445,-0.037962,-0.021435,0.057969
3446,0.000481,-0.00469,0.021737
3447,-0.037962,-0.00469,0.039853
3448,0.038924,-0.00469,0.021737
3449,0.038924,0.012055,-0.032611
3450,0.000481,0.0288,0.021737
3451,-0.01874,0.012055,-0.032611
3452,0.000481,-0.00469,0.003621
3453,0.000481,-0.021435,0.003621
3454,-0.01874,-0.021435,0.021737
3455,-0.01874,-0.00469,0.021737
3456,0.000481,-0.00469,0.039853
3457,0.000481,-0.021435,-0.032611
3458,0.019703,-0.021435,-0.032611
3459,-0.01874,-0.038179,-0.032611
3460,-0.01874,-0.038179,-0.050727
3461,0.000481,-0.054924,0.003621
3462,0.000481,-0.00469,0.003621
3463,-0.01874,-0.021435,0.003621
3464,0.019703,-0.038179,0.021737
3465,0.000481,-0.038179,0.021737
3466,0.000481,-0.021435,-0.068843
3467,0.019703,0.012055,-0.014495
3468,-0.01874,0.045545,0.003621
3469,0.000481,0.0288,-0.014495
3470,-0.01874,0.095779,0.003621
3471,0.000481,0.079034,0.057969
3472,0.000481,0.045545,-0.014495
3473,0.000481,0.0288,0.039853
3474,0.000481,0.012055,0.039853
3475,0.000481,0.012055,-0.032611
3476,0.000481,0.012055,0.057969
3477,-0.01874,0.012055,0.021737
3478,0.019703,0.012055,0.003621
3479,0.000481,0.012055,-0.032611
3480,-0.01874,-0.00469,0.003621
3481,0.019703,-0.00469,-0.032611
3482,0.038924,0.012055,0.021737
3483,0.019703,0.012055,0.039853
3484,0.019703,-0.00469,0.021737
3485,0.000481,-0.00469,0.021737
3486,-0.01874,-0.00469,0.021737
3487,0.000481,0.012055,-0.032611
3488,-0.037962,-0.021435,-0.032611
3489,-0.01874,-0.021435,-0.068843
3490,-0.01874,-0.00469,-0.086959
3491,-0.01874,-0.00469,-0.014495
3492,0.000481,-0.00469,0.003621
3493,0.000481,-0.021435,-0.014495
3494,0.000481,-0.00469,0.003621
3495,0.000481,-0.038179,0.021737
3496,-0.01874,-0.054924,-0.032611
3497,0.000481,-0.00469,-0.014495
3498,-0.01874,-0.038179,0.003621
3499,-0.01874,-0.00469,-0.014495
3500,0.000481,0.012055,0.021737
3501,0.038924,0.012055,0.076085
3502,-0.01874,-0.00469,0.021737
3503,0.000481,0.0288,-0.014495
3504,-0.01874,0.045545,0.021737
3505,0.000481,0.012055,-0.014495
3506,-0.01874,-0.00469,-0.050727
3507,-0.01874,-0.021435,-0.050727
3508,-0.01874,0.0288,-0.068843
3509,0.000481,-0.00469,-0.068843
3510,0.000481,-0.00469,0.003621
3511,-0.01874,-0.00469,-0.014495
3512,-0.01874,-0.00469,0.021737
3513,0.000481,0.012055,0.076085
3514,0.000481,-0.021435,0.039853
3515,0.000481,-0.021435,0.003621
3516,0.000481,0.0288,0.021737
3517,0.019703,-0.038179,0.021737
3518,0.000481,-0.054924,-0.014495
3519,0.019703,-0.071669,0.003621
3520,0.000481,-0.00469,-0.014495
3521,0.000481,0.045545,0.021737
3522,0.000481,0.0288,0.003621
3523,0.019703,0.0288,-0.032611
3524,0.019703,0.012055,-0.014495
3525,0.000481,0.012055,-0.032611
3526,0.019703,-0.021435,-0.014495
3527,0.019703,-0.00469,-0.032611
3528,0.019703,0.0288,0.021737
3529,0.000481,0.045545,-0.014495
3530,0.000481,0.06229,0.057969
3531,0.019703,0.045545,0.039853
3532,0.000481,0.06229,0.021737
3533,-0.01874,0.012055,0.021737
3534,-0.01874,-0.00469,0.021737
3535,0.000481,0.012055,-0.032611
3536,0.000481,-0.00469,-0.050727
3537,-0.01874,-0.00469,-0.032611
3538,0.019703,-0.021435,-0.050727
3539,0.019703,-0.038179,-0.032611
3540,0.019703,-0.038179,0.003621
3541,0.000481,-0.038179,-0.014495
3542,-0.01874,-0.021435,0.003621
3543,0.000481,-0.00469,0.003621
3544,0.000481,0.012055,0.003621
3545,-0.01874,0.0288,-0.050727
3546,-0.01874,0.0288,0.003621
3547,-0.01874,0.045545,-0.014495
3548,-0.01874,-0.00469,-0.032611
3549,-0.01874,-0.00469,0.021737
3550,0.000481,0.012055,0.003621
3551,0.000481,-0.00469,0.021737
3552,0.000481,-0.038179,0.021737
3553,0.000481,-0.038179,0.003621
3554,0.000481,-0.021435,-0.014495
3555,0.019703,-0.00469,-0.050727
3556,0.000481,-0.038179,-0.032611
3557,-0.01874,-0.038179,-0.032611
3558,0.019703,-0.00469,-0.014495
3559,0.000481,-0.021435,0.039853
3560,0.000481,0.0288,0.003621
3561,-0.01874,0.06229,0.003621
3562,0.000481,0.079034,-0.014495
3563,-0.01874,0.045545,-0.014495
3564,0.000481,0.06229,0.021737
3565,-0.01874,0.0288,-0.014495
3566,-0.01874,0.0288,-0.050727
3567,0.000481,0.012055,0.021737
3568,-0.01874,-0.054924,0.021737
3569,0.019703,-0.00469,0.021737
3570,0.019703,-0.038179,0.039853
3571,0.000481,-0.038179,-0.014495
3572,0.000481,-0.054924,-0.050727
3573,0.038924,-0.054924,0.003621
3574,0.000481,-0.021435,0.003621
3575,0.000481,-0.021435,-0.014495
3576,0.000481,-0.00469,-0.014495
3577,0.000481,0.0288,0.003621
3578,-0.01874,0.045545,0.039853
3579,-0.01874,0.06229,0.076085
3580,0.000481,0.06229,0.021737
3581,0.019703,0.06229,0.003621
3582,-0.01874,0.0288,0.057969
3583,0.000481,0.012055,-0.032611
3584,0.000481,-0.00469,-0.032611
3585,-0.01874,0.012055,-0.014495
3586,0.000481,-0.038179,-0.050727
3587,0.000481,-0.038179,0.003621
3588,-0.01874,-0.021435,0.003621
3589,0.000481,-0.021435,0.021737
3590,-0.01874,-0.021435,-0.014495
3591,-0.01874,-0.00469,0.021737
3592,-0.01874,-0.021435,-0.032611
3593,0.000481,0.012055,-0.068843
3594,0.000481,0.0288,-0.032611
3595,-0.01874,0.0288,-0.032611
3596,0.000481,0.0288,-0.014495
3597,0.000481,-0.00469,0.021737
3598,0.019703,-0.00469,0.021737
3599,0.000481,-0.00469,-0.014495
3600,0.019703,-0.021435,0.039853
3601,-0.01874,-0.021435,0.003621
3602,-0.01874,-0.00469,-0.014495
3603,0.000481,0.012055,0.003621
3604,0.019703,0.012055,0.021737
3605,0.000481,0.0288,0.021737
3606,0.019703,-0.00469,0.039853
3607,0.019703,-0.00469,0.039853
3608,0.000481,-0.021435,0.003621
3609,-0.01874,0.012055,0.057969
3610,-0.01874,-0.038179,0.003621
3611,-0.037962,-0.038179,-0.050727
3612,-0.037962,-0.054924,-0.068843
3613,0.000481,-0.054924,-0.032611
3614,-0.01874,-0.00469,-0.032611
3615,0.000481,-0.021435,-0.032611
3616,-0.01874,-0.00469,0.003621
3617,0.000481,0.0288,-0.032611
3618,0.000481,0.0288,0.021737
3619,-0.01874,0.06229,0.021737
3620,0.019703,0.045545,-0.014495
3621,-0.01874,0.0288,-0.014495
3622,0.000481,0.012055,-0.032611
3623,0.000481,-0.00469,-0.014495
3624,-0.01874,0.012055,-0.014495
3625,0.000481,0.012055,0.039853
3626,-0.01874,-0.021435,0.021737
3627,-0.01874,-0.021435,0.057969
3628,0.000481,-0.071669,0.021737
3629,0.000481,-0.054924,-0.014495
3630,-0.037962,-0.038179,0.021737
3631,0.000481,-0.021435,0.003621
3632,-0.01874,-0.021435,-0.032611
3633,-0.01874,-0.021435,-0.014495
3634,-0.037962,0.012055,-0.014495
3635,-0.01874,0.0288,0.003621
3636,-0.01874,0.045545,0.003621
3637,0.000481,0.045545,0.003621
3638,0.019703,0.0288,0.003621
3639,0.019703,0.045545,0.039853
3640,-0.01874,0.06229,-0.032611
3641,-0.01874,0.045545,-0.050727
3642,0.000481,0.045545,0.003621
3643,0.000481,0.012055,-0.050727
3644,0.000481,-0.00469,0.003621
3645,-0.01874,-0.021435,0.021737
3646,0.000481,0.012055,0.003621
3647,0.000481,-0.00469,-0.032611
3648,0.000481,-0.00469,0.021737
3649,-0.037962,-0.038179,-0.032611
3650,-0.037962,-0.054924,-0.014495
3651,-0.037962,-0.038179,-0.050727
3652,-0.037962,-0.00469,-0.050727
3653,-0.01874,0.012055,0.003621
3654,0.000481,0.0288,0.021737
3655,0.000481,0.012055,0.057969
3656,0.000481,-0.00469,0.003621
3657,0.000481,-0.00469,0.003621
3658,0.000481,0.0288,-0.032611
3659,-0.01874,-0.00469,-0.050727
3660,0.000481,-0.00469,-0.032611
3661,0.019703,0.012055,-0.050727
3662,0.000481,0.012055,0.003621
3663,-0.01874,0.012055,-0.050727
3664,0.019703,0.0288,0.021737
3665,0.000481,-0.00469,-0.014495
3666,-0.01874,-0.054924,0.039853
3667,0.000481,-0.038179,0.021737
3668,-0.01874,-0.00469,0.003621
3669,-0.037962,-0.021435,0.003621
3670,0.019703,-0.00469,0.003621
3671,0.000481,0.012055,0.003621
3672,0.019703,-0.00469,0.039853
3673,0.000481,0.0288,0.076085
3674,0.038924,0.0288,0.057969
3675,0.019703,0.0288,0.039853
3676,0.019703,-0.00469,0.021737
3677,0.000481,0.0288,0.003621
3678,0.019703,0.0288,0.003621
3679,0.000481,0.0288,-0.014495
3680,0.000481,0.0288,-0.032611
3681,0.000481,0.012055,0.003621
3682,-0.01874,-0.00469,0.003621
3683,0.019703,0.012055,-0.014495
3684,0.000481,-0.021435,-0.032611
3685,0.000481,0.012055,-0.032611
3686,0.019703,-0.00469,-0.050727
3687,0.000481,-0.00469,-0.032611
3688,0.000481,-0.00469,-0.032611
3689,0.000481,-0.021435,-0.032611
3690,0.000481,-0.00469,0.021737
3691,0.019703,0.012055,0.057969
3692,0.019703,-0.021435,0.021737
3693,-0.01874,-0.00469,0.057969
3694,-0.01874,0.012055,0.021737
3695,0.000481,0.0288,0.003621
3696,0.000481,0.012055,0.021737
