# Requested Sampling Rate (Hz):,1000
# Actual Sampling Rate (Hz):,998.463
# Requested Duration (s):,5.0
# Actual Duration (s):,5.05
# REST Calibration:,831.9749657534268,832.2800684931498,831.8001369863033
# MAX Calibration:,884.0000,892.0000,887.0000
# Normalization: MVC-based  (x_norm = (x - REST) / (MAX - REST))
sample_idx,EMG1,EMG2,EMG3
0,-0.01874,-0.021435,0.003621
1,-0.01874,0.012055,0.039853
2,-0.037962,-0.00469,-0.014495
3,0.000481,-0.021435,-0.032611
4,-0.037962,-0.00469,-0.050727
5,0.000481,-0.00469,0.021737
6,-0.01874,0.012055,-0.014495
7,0.038924,0.012055,0.021737
8,0.000481,-0.021435,0.057969
9,-0.01874,-0.00469,0.003621
10,-0.037962,0.012055,0.003621
11,0.000481,-0.00469,0.021737
12,0.000481,0.0288,-0.032611
13,0.000481,-0.021435,-0.050727
14,-0.01874,-0.021435,0.003621
15,0.000481,-0.038179,-0.014495
16,-0.01874,-0.054924,0.003621
17,0.019703,-0.021435,-0.032611
18,0.000481,-0.038179,-0.032611
19,-0.01874,-0.021435,-0.032611
20,0.000481,-0.021435,-0.032611
21,-0.01874,0.045545,-0.050727
22,0.000481,0.045545,-0.032611
23,0.000481,0.0288,-0.014495
24,0.019703,-0.00469,-0.014495
25,-0.01874,-0.00469,0.003621
26,0.000481,-0.00469,0.003621
27,-0.01874,-0.054924,-0.032611
28,-0.01874,-0.088414,0.039853
29,-0.01874,-0.071669,-0.014495
30,0.000481,-0.105159,-0.032611
31,-0.01874,-0.054924,-0.032611
32,-0.01874,0.012055,-0.014495
33,-0.037962,0.045545,-0.014495
34,0.000481,0.06229,-0.014495
35,0.019703,0.079034,0.021737
36,0.019703,0.0288,0.021737
37,0.019703,0.012055,0.021737
38,0.000481,-0.00469,0.021737
39,0.000481,-0.00469,-0.032611
40,-0.01874,-0.00469,-0.032611
41,0.000481,-0.021435,0.003621
42,-0.037962,0.0288,-0.050727
43,0.019703,0.06229,0.003621
44,0.019703,0.079034,0.021737
45,0.019703,0.0288,0.021737
46,-0.01874,0.045545,0.039853
47,0.000481,0.012055,0.003621
48,0.000481,0.012055,0.003621
49,0.000481,0.012055,-0.014495
50,0.000481,0.012055,-0.014495
51,0.019703,0.012055,-0.014495
52,0.019703,0.012055,0.039853
53,-0.01874,-0.021435,0.021737
54,0.000481,-0.00469,-0.014495
55,0.000481,0.012055,0.039853
56,-0.01874,-0.00469,0.021737
57,0.019703,-0.054924,-0.014495
58,0.019703,-0.038179,-0.014495
59,-0.01874,-0.021435,-0.014495
60,0.019703,-0.021435,0.057969
61,-0.01874,-0.038179,0.003621
62,-0.01874,-0.038179,-0.014495
63,-0.037962,-0.021435,-0.068843
64,0.000481,-0.00469,0.003621
65,-0.01874,0.06229,-0.014495
66,0.000481,0.0288,-0.050727
67,0.000481,0.0288,-0.014495
68,0.000481,0.045545,-0.050727
69,0.000481,0.012055,0.003621
70,-0.037962,0.0288,0.021737
71,-0.01874,0.0288,0.021737
72,0.000481,-0.00469,0.021737
73,0.019703,-0.00469,0.003621
74,-0.01874,-0.038179,-0.014495
75,0.019703,-0.021435,-0.014495
76,0.000481,0.012055,-0.032611
77,0.019703,0.045545,-0.032611
78,-0.01874,-0.00469,0.003621
79,-0.01874,0.012055,0.039853
80,0.000481,-0.021435,0.039853
81,0.019703,-0.021435,0.039853
82,0.019703,-0.038179,0.003621
83,0.038924,-0.00469,-0.014495
84,0.000481,-0.00469,-0.014495
85,0.000481,-0.00469,0.021737
86,-0.01874,-0.00469,-0.050727
87,-0.01874,-0.00469,0.003621
88,-0.01874,0.0288,0.039853
89,0.000481,0.0288,0.003621
90,-0.01874,0.012055,0.003621
91,0.019703,0.0288,0.021737
92,0.000481,0.012055,-0.014495
93,0.000481,0.0288,-0.032611
94,-0.01874,-0.00469,-0.014495
95,-0.01874,0.012055,0.003621
96,-0.01874,0.012055,0.057969
97,0.000481,0.012055,0.076085
98,0.019703,0.0288,0.003621
99,0.000481,0.0288,0.021737
100,0.000481,0.0288,0.021737
101,0.000481,0.012055,-0.032611
102,-0.01874,-0.00469,-0.032611
103,-0.037962,-0.00469,-0.068843
104,0.000481,-0.00469,-0.086959
105,0.000481,-0.00469,-0.032611
106,0.000481,0.012055,0.021737
107,0.019703,-0.00469,-0.032611
108,0.000481,-0.00469,0.003621
109,0.038924,-0.00469,-0.014495
110,-0.01874,0.012055,-0.032611
111,0.000481,0.012055,0.003621
112,0.000481,-0.00469,0.003621
113,-0.01874,-0.00469,0.003621
114,0.000481,-0.00469,0.003621
115,0.000481,-0.00469,0.021737
116,0.000481,-0.038179,0.021737
117,0.000481,-0.00469,0.003621
118,0.019703,0.012055,-0.014495
119,-0.037962,0.0288,-0.014495
120,0.000481,0.012055,0.003621
121,0.000481,-0.021435,-0.032611
122,0.019703,-0.038179,0.003621
123,0.000481,-0.038179,0.057969
124,-0.037962,-0.054924,0.003621
125,0.000481,-0.054924,0.003621
126,-0.01874,-0.054924,0.003621
127,0.000481,-0.021435,-0.032611
128,0.000481,0.0288,-0.050727
129,0.019703,0.06229,0.039853
130,0.019703,0.112524,-0.032611
131,0.000481,0.079034,0.039853
132,-0.01874,0.0288,0.039853
133,0.000481,-0.00469,-0.032611
134,-0.01874,-0.071669,0.057969
135,0.019703,-0.071669,-0.014495
136,-0.01874,-0.054924,-0.014495
137,0.000481,-0.054924,-0.032611
138,-0.01874,-0.00469,-0.032611
139,-0.01874,0.0288,-0.068843
140,0.000481,0.095779,-0.050727
141,0.000481,0.079034,0.039853
142,0.019703,-0.00469,0.003621
143,-0.01874,-0.00469,0.039853
144,0.000481,-0.00469,0.003621
145,-0.01874,0.012055,-0.032611
146,0.000481,0.012055,-0.014495
147,0.000481,0.0288,-0.032611
148,0.019703,0.045545,0.003621
149,-0.01874,0.06229,0.039853
150,-0.01874,0.045545,0.003621
151,0.000481,0.012055,0.003621
152,0.000481,0.0288,0.003621
153,0.000481,0.0288,-0.014495
154,0.000481,0.012055,0.021737
155,0.019703,0.0288,0.021737
156,0.000481,-0.00469,-0.014495
157,-0.01874,-0.00469,0.021737
158,0.000481,-0.00469,0.039853
159,-0.01874,-0.00469,0.003621
160,0.000481,0.045545,0.003621
161,0.019703,0.0288,0.021737
162,0.000481,-0.00469,-0.050727
163,-0.01874,0.012055,-0.050727
164,-0.01874,0.012055,0.003621
165,0.000481,-0.00469,-0.068843
166,0.000481,-0.054924,-0.050727
167,-0.01874,-0.021435,-0.014495
168,0.000481,-0.021435,-0.032611
169,-0.01874,-0.021435,0.021737
170,0.000481,-0.021435,0.003621
171,-0.01874,-0.021435,0.003621
172,0.000481,0.012055,0.003621
173,0.019703,-0.00469,0.039853
174,0.000481,0.0288,0.021737
175,0.019703,0.045545,0.076085
176,0.000481,0.0288,0.057969
177,0.000481,0.012055,0.057969
178,-0.01874,0.0288,0.039853
179,0.019703,0.0288,0.003621
180,-0.01874,0.012055,0.003621
181,0.000481,-0.00469,-0.068843
182,0.000481,0.012055,0.003621
183,0.000481,-0.00469,-0.014495
184,-0.01874,-0.00469,0.021737
185,0.000481,0.012055,0.021737
186,0.000481,-0.00469,-0.032611
187,-0.01874,0.012055,0.003621
188,0.000481,-0.021435,-0.014495
189,-0.01874,-0.00469,-0.014495
190,0.000481,0.012055,-0.068843
191,0.000481,-0.00469,-0.014495
192,0.000481,0.012055,-0.068843
193,0.019703,-0.00469,0.021737
194,0.038924,0.012055,0.039853
195,0.000481,-0.00469,0.021737
196,-0.01874,-0.00469,0.003621
197,0.000481,-0.00469,-0.014495
198,-0.01874,-0.021435,-0.050727
199,0.000481,-0.00469,-0.032611
200,-0.037962,0.012055,0.003621
201,-0.01874,-0.00469,0.003621
202,0.000481,-0.00469,0.003621
203,-0.037962,-0.00469,0.021737
204,-0.037962,-0.00469,0.021737
205,0.000481,-0.021435,0.021737
206,0.000481,0.012055,0.039853
207,-0.01874,0.0288,0.003621
208,-0.01874,0.012055,0.003621
209,0.000481,0.0288,-0.032611
210,0.000481,-0.00469,-0.014495
211,-0.01874,-0.00469,0.003621
212,-0.01874,0.012055,0.003621
213,-0.01874,0.012055,-0.032611
214,0.000481,-0.021435,0.021737
215,0.000481,-0.00469,0.003621
216,0.000481,-0.00469,-0.014495
217,0.000481,-0.021435,-0.014495
218,0.000481,-0.038179,-0.068843
219,0.019703,-0.021435,-0.032611
220,0.019703,-0.054924,-0.014495
221,0.000481,-0.054924,0.039853
222,-0.01874,-0.088414,0.003621
223,-0.01874,-0.105159,0.003621
224,-0.01874,-0.071669,0.021737
225,0.000481,-0.054924,-0.032611
226,0.000481,0.0288,0.003621
227,-0.01874,0.045545,-0.014495
228,0.000481,0.095779,0.039853
229,0.000481,0.129269,0.003621
230,0.000481,0.146014,0.021737
231,0.019703,0.112524,0.057969
232,0.000481,0.0288,0.057969
233,0.000481,-0.00469,0.021737
234,0.000481,-0.00469,-0.014495
235,0.000481,-0.00469,-0.014495
236,0.000481,-0.00469,-0.014495
237,0.000481,-0.038179,-0.032611
238,0.019703,-0.00469,0.021737
239,0.019703,0.0288,0.057969
240,0.000481,0.0288,0.039853
241,0.019703,0.012055,0.039853
242,-0.01874,0.0288,-0.032611
243,-0.01874,0.0288,-0.050727
244,0.000481,0.045545,-0.032611
245,0.000481,0.045545,-0.068843
246,0.000481,0.045545,-0.050727
247,0.000481,0.0288,0.003621
248,0.000481,-0.021435,-0.032611
249,0.000481,-0.00469,0.003621
250,-0.01874,-0.00469,0.003621
251,-0.01874,-0.00469,0.003621
252,0.000481,0.0288,-0.014495
253,-0.01874,-0.021435,0.021737
254,-0.01874,0.012055,-0.014495
255,-0.037962,-0.038179,0.021737
256,-0.01874,-0.038179,0.021737
257,-0.01874,-0.054924,0.003621
258,0.000481,-0.038179,0.039853
259,0.000481,-0.021435,0.039853
260,0.000481,-0.021435,0.039853
261,0.000481,-0.00469,0.039853
262,-0.01874,0.012055,0.021737
263,0.000481,0.0288,0.039853
264,0.000481,0.06229,0.039853
265,0.000481,0.0288,0.076085
266,0.019703,0.0288,0.039853
267,0.000481,0.012055,0.057969
268,0.000481,0.012055,0.057969
269,0.019703,-0.00469,0.003621
270,-0.01874,-0.00469,-0.032611
271,0.000481,-0.038179,-0.086959
272,-0.037962,-0.038179,-0.068843
273,-0.01874,-0.038179,-0.068843
274,-0.01874,-0.00469,-0.050727
275,0.000481,-0.00469,-0.032611
276,0.000481,0.0288,0.003621
277,-0.01874,-0.00469,-0.014495
278,-0.01874,0.0288,-0.032611
279,-0.037962,-0.021435,0.003621
280,-0.037962,-0.00469,-0.014495
281,0.000481,-0.00469,0.003621
282,0.000481,0.012055,0.057969
283,0.000481,-0.00469,0.039853
284,0.019703,-0.038179,0.021737
285,-0.01874,0.012055,0.039853
286,-0.01874,0.012055,0.039853
287,0.038924,0.012055,0.003621
288,-0.037962,-0.00469,0.021737
289,0.000481,0.012055,-0.014495
290,-0.01874,-0.021435,-0.032611
291,-0.01874,-0.00469,0.003621
292,0.000481,-0.00469,-0.068843
293,-0.01874,-0.00469,-0.014495
294,0.000481,-0.00469,0.003621
295,0.000481,0.0288,-0.014495
296,-0.01874,-0.00469,-0.014495
297,-0.01874,-0.00469,-0.014495
298,0.000481,-0.00469,0.003621
299,0.000481,-0.054924,-0.032611
300,-0.01874,-0.054924,-0.032611
301,0.000481,-0.021435,-0.068843
302,0.019703,-0.00469,0.039853
303,0.000481,-0.00469,0.003621
304,0.019703,-0.00469,0.021737
305,0.000481,0.012055,-0.014495
306,0.000481,0.045545,-0.032611
307,0.019703,0.045545,-0.014495
308,0.000481,0.0288,-0.032611
309,0.019703,0.012055,0.003621
310,0.000481,0.0288,-0.050727
311,0.000481,0.045545,0.003621
312,0.000481,0.045545,0.039853
313,-0.01874,0.012055,-0.032611
314,0.019703,-0.054924,0.003621
315,-0.01874,-0.038179,0.021737
316,-0.01874,-0.038179,-0.014495
317,-0.037962,-0.00469,-0.050727
318,-0.01874,0.012055,0.094201
319,-0.01874,0.045545,-0.014495
320,-0.01874,0.06229,0.039853
321,0.000481,0.045545,0.057969
322,0.000481,0.045545,0.039853
323,0.000481,0.0288,0.057969
324,0.038924,-0.00469,0.021737
325,0.000481,0.012055,0.003621
326,-0.01874,0.012055,-0.032611
327,0.019703,-0.00469,0.003621
328,-0.01874,0.0288,-0.032611
329,0.000481,-0.00469,0.003621
330,0.019703,-0.00469,0.021737
331,-0.01874,0.012055,-0.014495
332,-0.01874,-0.021435,-0.014495
333,0.000481,-0.021435,-0.032611
334,-0.01874,-0.00469,-0.014495
335,0.000481,0.012055,0.003621
336,0.000481,-0.00469,-0.014495
337,0.000481,-0.00469,-0.068843
338,-0.01874,-0.021435,-0.050727
339,0.000481,-0.038179,0.021737
340,-0.01874,-0.021435,-0.014495
341,-0.037962,-0.021435,0.021737
342,0.019703,-0.021435,0.003621
343,-0.01874,-0.00469,-0.014495
344,0.000481,-0.00469,-0.032611
345,0.000481,0.045545,-0.014495
346,0.000481,0.0288,0.003621
347,-0.01874,0.0288,0.039853
348,0.000481,-0.021435,0.039853
349,-0.01874,-0.054924,0.021737
350,-0.01874,-0.021435,0.094201
351,0.019703,-0.021435,0.021737
352,0.019703,-0.00469,-0.032611
353,0.000481,0.0288,0.003621
354,-0.037962,0.045545,-0.014495
355,-0.037962,0.06229,-0.032611
356,0.000481,0.079034,0.003621
357,0.019703,0.045545,0.039853
358,0.000481,0.0288,0.039853
359,0.000481,0.0288,0.039853
360,0.000481,0.0288,-0.014495
361,0.000481,0.012055,-0.032611
362,-0.01874,0.012055,-0.032611
363,0.000481,0.012055,-0.050727
364,0.000481,0.0288,-0.032611
365,0.000481,0.012055,0.021737
366,-0.01874,-0.021435,-0.032611
367,0.000481,0.012055,0.021737
368,-0.01874,-0.00469,0.057969
369,0.019703,-0.038179,0.003621
370,0.000481,-0.00469,-0.014495
371,-0.01874,-0.021435,0.003621
372,0.019703,-0.00469,-0.014495
373,0.000481,-0.021435,-0.032611
374,0.000481,-0.021435,0.003621
375,0.019703,0.012055,-0.014495
376,0.000481,-0.021435,-0.014495
377,0.000481,-0.021435,0.003621
378,0.000481,-0.054924,-0.014495
379,-0.01874,-0.054924,-0.050727
380,-0.037962,-0.038179,-0.050727
381,-0.01874,-0.054924,-0.050727
382,0.000481,-0.038179,-0.068843
383,-0.01874,-0.00469,-0.014495
384,-0.01874,-0.00469,-0.014495
385,-0.01874,-0.00469,-0.032611
386,-0.01874,0.0288,0.021737
387,0.000481,-0.00469,0.021737
388,0.000481,0.06229,0.003621
389,0.019703,0.0288,0.039853
390,0.019703,0.0288,0.021737
391,0.000481,0.0288,-0.014495
392,0.000481,0.0288,0.039853
393,0.019703,0.012055,0.094201
394,0.019703,0.0288,0.039853
395,-0.01874,-0.038179,0.076085
396,0.000481,-0.054924,0.003621
397,0.000481,-0.054924,-0.032611
398,-0.01874,-0.021435,0.021737
399,-0.01874,-0.00469,-0.014495
400,-0.037962,-0.00469,-0.014495
401,-0.01874,0.012055,0.021737
402,0.000481,0.079034,-0.032611
403,0.000481,0.045545,0.021737
404,-0.01874,0.06229,-0.014495
405,0.038924,-0.038179,-0.050727
406,-0.01874,-0.038179,-0.032611
407,-0.01874,-0.054924,-0.032611
408,0.000481,-0.038179,-0.014495
409,-0.01874,-0.021435,0.003621
410,-0.037962,0.06229,0.021737
411,0.000481,0.0288,0.021737
412,0.019703,0.045545,0.076085
413,0.019703,0.06229,0.057969
414,0.019703,0.045545,0.021737
415,-0.01874,0.06229,-0.050727
416,0.000481,-0.00469,-0.014495
417,0.000481,-0.00469,-0.050727
418,-0.01874,-0.021435,-0.014495
419,-0.01874,-0.00469,-0.014495
420,-0.01874,0.012055,-0.032611
421,-0.037962,-0.021435,0.021737
422,-0.01874,-0.00469,0.057969
423,-0.01874,-0.021435,0.003621
424,-0.01874,-0.00469,0.039853
425,0.019703,-0.038179,0.039853
426,-0.01874,-0.021435,-0.032611
427,0.000481,-0.00469,0.021737
428,-0.01874,0.012055,0.094201
429,-0.037962,-0.00469,0.003621
430,-0.01874,-0.00469,0.021737
431,0.000481,-0.021435,0.039853
432,-0.01874,-0.038179,-0.032611
433,-0.037962,-0.021435,0.003621
434,-0.01874,0.012055,-0.014495
435,0.000481,-0.00469,-0.014495
436,0.000481,0.06229,-0.014495
437,0.019703,0.012055,0.003621
438,0.000481,0.0288,-0.014495
439,0.000481,0.012055,0.021737
440,0.000481,-0.00469,0.039853
441,0.000481,0.012055,0.021737
442,-0.01874,0.012055,0.003621
443,0.000481,-0.021435,-0.050727
444,-0.01874,0.079034,-0.032611
445,0.000481,-0.00469,-0.032611
446,-0.01874,-0.00469,-0.032611
447,-0.01874,-0.021435,0.003621
448,-0.01874,0.012055,0.003621
449,-0.01874,-0.021435,0.057969
450,0.019703,-0.021435,0.021737
451,0.000481,0.0288,0.057969
452,0.000481,-0.038179,0.021737
453,0.019703,-0.054924,-0.014495
454,-0.01874,-0.054924,-0.014495
455,0.000481,-0.038179,-0.014495
456,0.000481,-0.00469,-0.032611
457,0.000481,-0.00469,0.003621
458,0.000481,0.012055,0.003621
459,-0.01874,0.079034,-0.014495
460,0.000481,-0.00469,0.003621
461,-0.01874,-0.038179,-0.050727
462,0.000481,-0.054924,-0.068843
463,-0.01874,-0.054924,0.003621
464,-0.01874,-0.071669,-0.014495
465,-0.037962,-0.021435,0.003621
466,-0.01874,0.045545,0.039853
467,-0.01874,0.0288,0.057969
468,0.038924,0.079034,0.021737
469,0.000481,0.06229,0.021737
470,0.000481,0.06229,0.021737
471,-0.01874,0.012055,0.039853
472,0.019703,0.045545,0.039853
473,0.019703,0.012055,-0.014495
474,0.019703,0.012055,0.003621
475,0.000481,0.012055,0.057969
476,0.000481,0.0288,0.003621
477,0.000481,0.0288,0.003621
478,0.019703,0.012055,0.003621
479,0.000481,0.012055,-0.032611
480,0.000481,-0.021435,-0.068843
481,0.019703,-0.00469,0.003621
482,-0.037962,0.0288,-0.050727
483,-0.01874,-0.00469,0.003621
484,0.000481,0.012055,0.021737
485,0.000481,-0.00469,-0.014495
486,0.000481,-0.021435,0.039853
487,-0.01874,0.012055,-0.014495
488,-0.01874,-0.021435,-0.032611
489,-0.01874,0.012055,-0.050727
490,0.000481,-0.00469,-0.014495
491,0.000481,0.012055,-0.032611
492,0.019703,-0.00469,0.021737
493,0.000481,-0.021435,0.094201
494,0.000481,-0.00469,0.003621
495,-0.01874,0.06229,0.039853
496,-0.01874,0.012055,-0.032611
497,-0.01874,-0.021435,-0.032611
498,-0.01874,-0.021435,-0.050727
499,0.000481,-0.038179,-0.068843
500,0.000481,-0.054924,-0.068843
501,-0.037962,-0.054924,-0.032611
502,-0.037962,-0.071669,-0.014495
503,0.000481,-0.038179,0.003621
504,-0.01874,-0.021435,0.021737
505,0.000481,0.012055,-0.032611
506,-0.037962,0.045545,-0.050727
507,-0.01874,0.06229,-0.032611
508,0.019703,0.06229,-0.068843
509,0.000481,0.0288,0.003621
510,0.000481,0.0288,0.021737
511,0.038924,0.045545,0.039853
512,0.000481,0.045545,0.039853
513,0.000481,0.0288,0.057969
514,0.000481,-0.021435,0.021737
515,-0.037962,0.012055,0.021737
516,-0.01874,-0.00469,0.094201
517,0.000481,-0.00469,-0.032611
518,0.019703,-0.00469,0.003621
519,0.000481,-0.00469,0.021737
520,0.000481,-0.054924,0.039853
521,-0.01874,-0.071669,0.021737
522,-0.01874,-0.038179,0.021737
523,-0.01874,-0.021435,-0.014495
524,-0.037962,-0.021435,0.003621
525,0.000481,-0.00469,-0.014495
526,0.000481,0.012055,-0.050727
527,-0.01874,0.06229,0.021737
528,0.000481,0.06229,0.039853
529,-0.037962,0.012055,0.039853
530,-0.01874,0.012055,0.039853
531,-0.01874,0.012055,0.057969
532,0.019703,0.045545,0.003621
533,0.038924,0.012055,-0.014495
534,0.000481,0.045545,0.039853
535,0.019703,-0.00469,0.003621
536,-0.01874,-0.021435,0.003621
537,0.000481,-0.021435,0.021737
538,-0.01874,0.012055,0.003621
539,0.000481,0.012055,0.021737
540,0.000481,-0.00469,0.057969
541,-0.037962,-0.038179,-0.032611
542,0.019703,-0.00469,0.003621
543,0.019703,0.045545,0.003621
544,0.000481,0.045545,-0.032611
545,0.000481,0.012055,0.021737
546,0.000481,-0.00469,0.021737
547,0.000481,0.012055,0.021737
548,0.000481,-0.00469,0.003621
549,0.019703,0.012055,0.039853
550,0.000481,0.012055,-0.014495
551,-0.01874,-0.00469,0.003621
552,-0.01874,0.0288,-0.032611
553,0.000481,0.0288,-0.014495
554,-0.01874,-0.00469,0.003621
555,-0.01874,0.012055,0.021737
556,0.000481,-0.00469,-0.014495
557,-0.037962,-0.021435,0.003621
558,0.019703,-0.021435,0.003621
559,-0.01874,-0.021435,-0.050727
560,0.000481,-0.021435,-0.086959
561,0.019703,-0.038179,-0.050727
562,0.000481,-0.038179,-0.068843
563,-0.01874,-0.071669,-0.014495
564,-0.037962,-0.121903,0.039853
565,-0.01874,-0.121903,0.003621
566,0.000481,-0.088414,0.003621
567,0.000481,-0.054924,0.039853
568,-0.01874,-0.00469,-0.014495
569,-0.01874,0.06229,-0.032611
570,0.000481,0.095779,0.003621
571,0.000481,0.095779,-0.032611
572,0.000481,0.112524,0.003621
573,-0.037962,0.095779,0.039853
574,-0.01874,0.045545,0.039853
575,0.000481,0.012055,0.057969
576,-0.01874,-0.00469,0.039853
577,0.000481,0.012055,0.003621
578,0.019703,-0.021435,0.039853
579,0.019703,0.012055,0.021737
580,0.000481,0.0288,-0.014495
581,0.000481,0.012055,0.021737
582,0.019703,0.045545,0.094201
583,0.038924,0.012055,0.003621
584,-0.01874,0.045545,0.003621
585,0.000481,-0.00469,0.003621
586,-0.01874,-0.038179,-0.032611
587,-0.01874,-0.038179,0.003621
588,-0.01874,-0.054924,-0.050727
589,0.000481,-0.021435,-0.068843
590,0.000481,-0.038179,-0.050727
591,0.000481,-0.00469,0.003621
592,-0.01874,0.0288,0.003621
593,-0.01874,0.045545,0.057969
594,0.019703,0.079034,0.039853
595,0.000481,0.045545,0.021737
596,0.019703,0.012055,0.057969
597,-0.01874,0.012055,0.057969
598,0.000481,0.012055,0.003621
599,0.000481,0.045545,0.021737
600,0.000481,0.0288,-0.032611
601,-0.01874,0.012055,0.003621
602,-0.01874,-0.021435,0.021737
603,-0.01874,-0.054924,-0.014495
604,-0.01874,-0.054924,-0.032611
605,-0.037962,-0.038179,-0.014495
606,0.019703,-0.021435,0.003621
607,0.000481,0.012055,-0.014495
608,0.000481,0.012055,0.003621
609,-0.01874,0.0288,-0.014495
610,-0.01874,-0.00469,0.021737
611,0.000481,-0.038179,0.076085
612,0.019703,-0.021435,0.039853
613,0.000481,-0.038179,-0.014495
614,0.019703,-0.00469,0.021737
615,0.000481,0.012055,0.003621
616,0.019703,0.045545,-0.014495
617,0.019703,0.045545,0.003621
618,-0.01874,0.0288,-0.014495
619,0.000481,0.0288,0.003621
620,0.000481,-0.021435,0.003621
621,0.019703,-0.00469,-0.032611
622,-0.01874,0.012055,-0.014495
623,-0.01874,0.012055,0.021737
624,0.000481,0.012055,-0.014495
625,0.019703,0.045545,-0.032611
626,0.000481,-0.00469,0.021737
627,0.019703,-0.00469,-0.032611
628,0.000481,0.012055,0.021737
629,0.000481,0.0288,0.021737
630,-0.01874,0.012055,-0.032611
631,-0.01874,-0.00469,-0.032611
632,0.000481,-0.021435,-0.032611
633,0.000481,-0.00469,-0.014495
634,0.000481,-0.021435,-0.068843
635,0.000481,-0.00469,-0.014495
636,0.000481,0.012055,-0.032611
637,0.000481,-0.021435,0.003621
638,-0.01874,-0.021435,0.021737
639,0.000481,-0.021435,-0.050727
640,-0.01874,-0.00469,0.021737
641,-0.01874,0.012055,-0.032611
642,0.000481,-0.021435,-0.032611
643,0.000481,0.0288,-0.068843
644,0.000481,-0.021435,-0.014495
645,-0.01874,0.012055,-0.032611
646,-0.01874,-0.00469,-0.014495
647,0.000481,-0.021435,0.021737
648,-0.01874,-0.00469,-0.014495
649,0.000481,-0.021435,0.003621
650,0.019703,-0.00469,-0.014495
651,0.019703,-0.00469,-0.032611
652,0.000481,-0.00469,-0.050727
653,0.000481,0.012055,0.039853
654,0.000481,0.012055,0.003621
655,0.019703,0.012055,0.094201
656,-0.037962,0.012055,0.094201
657,0.000481,-0.00469,0.112317
658,0.000481,0.045545,0.130433
659,0.000481,0.0288,0.094201
660,0.019703,0.012055,0.003621
661,-0.01874,-0.021435,-0.177539
662,-0.01874,-0.038179,-0.159423
663,0.038924,-0.021435,-0.105075
664,-0.01874,-0.021435,-0.105075
665,-0.01874,-0.021435,-0.032611
666,0.000481,-0.038179,-0.032611
667,0.019703,-0.021435,0.003621
668,-0.01874,-0.038179,-0.050727
669,0.000481,0.012055,-0.014495
670,0.000481,0.012055,0.039853
671,0.000481,0.012055,0.039853
672,0.019703,0.0288,0.076085
673,-0.01874,-0.00469,0.130433
674,0.000481,0.0288,0.148549
675,0.038924,0.045545,0.148549
676,0.038924,0.0288,0.148549
677,0.019703,0.0288,0.076085
678,0.000481,0.0288,0.021737
679,0.000481,0.0288,-0.050727
680,0.038924,-0.00469,-0.177539
681,0.000481,-0.021435,-0.213771
682,-0.037962,-0.038179,-0.123191
683,-0.01874,-0.00469,-0.050727
684,-0.037962,0.012055,-0.014495
685,-0.01874,0.012055,0.039853
686,-0.01874,-0.00469,0.039853
687,0.019703,-0.00469,-0.014495
688,0.019703,0.0288,0.094201
689,0.019703,0.0288,0.057969
690,0.038924,0.06229,0.148549
691,0.058146,0.112524,0.202897
692,0.096589,0.112524,0.275361
693,0.077367,0.112524,0.275361
694,0.077367,0.095779,0.202897
695,0.000481,0.0288,0.057969
696,-0.057183,-0.038179,-0.032611
697,-0.095626,-0.105159,-0.195655
698,-0.114848,-0.138648,-0.340583
699,-0.114848,-0.138648,-0.304351
700,-0.057183,-0.071669,-0.159423
701,-0.037962,-0.021435,-0.068843
702,0.000481,-0.00469,-0.068843
703,-0.01874,-0.021435,-0.068843
704,-0.01874,-0.021435,-0.105075
705,-0.01874,0.012055,-0.032611
706,0.019703,0.045545,0.076085
707,0.038924,0.079034,0.112317
708,0.058146,0.095779,0.184781
709,0.019703,0.045545,0.130433
710,0.038924,0.0288,0.094201
711,0.019703,-0.00469,0.039853
712,-0.037962,-0.038179,-0.086959
713,-0.037962,-0.054924,-0.141307
714,-0.057183,-0.054924,-0.159423
715,-0.037962,-0.00469,-0.123191
716,-0.037962,-0.00469,-0.141307
717,0.019703,-0.00469,-0.068843
718,0.019703,0.0288,0.003621
719,0.019703,-0.00469,0.039853
720,-0.01874,-0.00469,0.057969
721,-0.01874,-0.00469,0.003621
722,0.000481,0.045545,0.003621
723,0.038924,0.012055,-0.050727
724,0.000481,-0.021435,-0.105075
725,-0.076405,-0.054924,-0.105075
726,-0.037962,-0.021435,-0.032611
727,0.000481,0.012055,0.057969
728,0.000481,0.0288,0.057969
729,0.019703,0.0288,0.148549
730,0.058146,0.079034,0.148549
731,0.019703,0.0288,0.148549
732,-0.01874,0.045545,0.130433
733,0.000481,0.012055,0.039853
734,0.038924,0.0288,0.039853
735,0.000481,-0.00469,0.039853
736,-0.076405,-0.071669,-0.105075
737,-0.076405,-0.038179,-0.105075
738,-0.01874,-0.021435,-0.050727
739,-0.01874,0.012055,-0.014495
740,0.019703,0.0288,-0.014495
741,0.038924,0.0288,0.094201
742,0.038924,0.06229,0.202897
743,0.038924,0.095779,0.239129
744,0.058146,0.079034,0.257245
745,0.058146,0.045545,0.202897
746,0.058146,0.045545,0.148549
747,0.11581,0.045545,0.148549
748,-0.01874,-0.038179,-0.068843
749,-0.095626,-0.088414,-0.304351
750,-0.095626,-0.105159,-0.322467
751,-0.057183,-0.088414,-0.322467
752,-0.01874,-0.038179,-0.195655
753,0.019703,-0.021435,-0.086959
754,-0.01874,-0.021435,-0.086959
755,-0.01874,-0.021435,-0.068843
756,0.000481,-0.00469,-0.032611
757,-0.01874,0.012055,-0.032611
758,0.000481,0.012055,0.003621
759,-0.01874,0.0288,0.003621
760,-0.057183,0.012055,0.003621
761,-0.01874,0.012055,0.039853
762,0.019703,0.06229,0.202897
763,0.019703,0.06229,0.184781
764,0.038924,0.0288,0.148549
765,0.000481,-0.00469,0.021737
766,-0.057183,-0.038179,-0.050727
767,-0.057183,-0.038179,-0.068843
768,0.000481,0.012055,-0.014495
769,0.000481,0.012055,-0.032611
770,0.019703,0.0288,0.021737
771,0.038924,0.06229,0.148549
772,0.058146,0.06229,0.094201
773,-0.076405,-0.038179,-0.123191
774,-0.191734,-0.121903,-0.358699
775,-0.153291,-0.105159,-0.358699
776,-0.114848,-0.105159,-0.286235
777,-0.153291,-0.088414,-0.177539
778,-0.057183,-0.038179,-0.123191
779,0.000481,0.012055,0.039853
780,0.038924,0.0288,0.112317
781,0.096589,0.012055,0.130433
782,0.173475,0.079034,0.221013
783,0.173475,0.112524,0.347824
784,0.192696,0.179503,0.384056
785,0.11581,0.146014,0.384056
786,0.11581,0.162759,0.329708
787,0.11581,0.095779,0.166665
788,0.019703,-0.021435,-0.105075
789,-0.095626,-0.188883,-0.449279
790,-0.134069,-0.172138,-0.322467
791,-0.076405,-0.138648,-0.068843
792,-0.01874,-0.00469,0.094201
793,0.038924,-0.00469,0.202897
794,0.038924,0.06229,0.184781
795,0.019703,0.045545,0.148549
796,0.038924,0.095779,0.021737
797,0.038924,0.079034,-0.123191
798,0.038924,0.012055,-0.250003
799,-0.01874,-0.088414,-0.358699
800,-0.037962,-0.105159,-0.231887
801,0.058146,0.012055,-0.050727
802,0.019703,0.012055,-0.050727
803,-0.095626,-0.038179,-0.014495
804,-0.057183,-0.021435,0.094201
805,-0.01874,0.012055,0.166665
806,-0.037962,0.0288,0.057969
807,-0.037962,0.045545,0.094201
808,0.000481,0.079034,0.148549
809,-0.076405,-0.038179,0.021737
810,-0.076405,-0.088414,-0.068843
811,-0.076405,-0.038179,0.021737
812,-0.057183,-0.00469,0.039853
813,-0.01874,-0.021435,-0.032611
814,-0.037962,-0.021435,0.021737
815,0.038924,0.06229,0.057969
816,-0.037962,-0.021435,-0.105075
817,-0.01874,-0.021435,-0.141307
818,0.000481,-0.00469,-0.014495
819,0.000481,0.0288,0.112317
820,0.058146,0.112524,0.184781
821,0.077367,0.095779,0.184781
822,0.11581,0.06229,0.112317
823,0.077367,0.079034,0.239129
824,0.058146,0.079034,0.275361
825,-0.172512,-0.105159,-0.250003
826,-0.230177,-0.205628,-0.286235
827,-0.153291,-0.138648,-0.268119
828,-0.057183,-0.021435,-0.105075
829,-0.037962,-0.00469,-0.086959
830,0.019703,0.012055,-0.014495
831,0.077367,0.079034,0.094201
832,0.077367,0.06229,0.166665
833,0.038924,0.045545,0.130433
834,0.11581,0.06229,0.112317
835,0.058146,-0.054924,-0.105075
836,-0.037962,-0.105159,-0.123191
837,-0.037962,-0.038179,-0.032611
838,-0.01874,0.045545,0.094201
839,-0.076405,0.012055,0.076085
840,-0.095626,-0.00469,0.057969
841,-0.076405,-0.00469,-0.123191
842,-0.01874,-0.00469,-0.213771
843,-0.01874,-0.00469,-0.141307
844,-0.01874,-0.00469,0.021737
845,0.038924,0.0288,0.148549
846,0.135032,0.146014,0.293477
847,0.077367,0.06229,0.039853
848,0.058146,-0.021435,-0.105075
849,0.11581,0.06229,0.112317
850,-0.037962,0.06229,0.003621
851,-0.172512,-0.155393,-0.340583
852,-0.114848,-0.138648,-0.250003
853,-0.172512,-0.138648,-0.177539
854,-0.172512,-0.071669,-0.213771
855,-0.095626,-0.038179,-0.213771
856,-0.01874,-0.021435,-0.123191
857,0.000481,-0.00469,0.021737
858,0.058146,0.095779,0.239129
859,0.077367,0.146014,0.492752
860,0.154253,0.179503,0.474636
861,0.173475,0.146014,0.420288
862,-0.01874,-0.021435,0.039853
863,-0.134069,-0.105159,-0.159423
864,-0.114848,-0.054924,-0.159423
865,-0.134069,-0.105159,-0.286235
866,-0.037962,-0.105159,-0.286235
867,-0.01874,-0.121903,-0.159423
868,-0.037962,-0.00469,-0.068843
869,0.019703,-0.00469,-0.068843
870,0.096589,0.045545,0.039853
871,0.135032,0.095779,0.094201
872,0.096589,0.095779,0.148549
873,0.000481,0.112524,0.311592
874,0.019703,0.06229,0.311592
875,0.077367,0.112524,0.293477
876,0.096589,0.129269,0.257245
877,-0.037962,-0.021435,0.039853
878,-0.249399,-0.222372,-0.413047
879,-0.191734,-0.188883,-0.431163
880,-0.095626,-0.071669,-0.231887
881,0.019703,0.012055,0.003621
882,0.038924,0.0288,0.130433
883,0.077367,0.079034,0.202897
884,0.019703,0.129269,0.275361
885,0.058146,0.112524,0.347824
886,0.11581,0.079034,0.347824
887,0.11581,0.079034,0.402172
888,0.077367,0.012055,0.184781
889,-0.095626,-0.121903,-0.250003
890,-0.230177,-0.188883,-0.449279
891,-0.114848,-0.138648,-0.322467
892,-0.037962,-0.021435,-0.250003
893,-0.037962,-0.054924,-0.322467
894,-0.076405,-0.088414,-0.268119
895,0.019703,0.012055,-0.159423
896,0.077367,0.06229,0.003621
897,0.096589,0.06229,0.112317
898,0.077367,0.06229,0.039853
899,-0.114848,-0.054924,-0.177539
900,-0.172512,-0.071669,-0.177539
901,-0.114848,-0.071669,-0.105075
902,-0.01874,0.0288,0.076085
903,0.077367,0.06229,0.311592
904,0.058146,0.146014,0.420288
905,0.096589,0.129269,0.474636
906,0.019703,0.06229,0.184781
907,-0.037962,-0.054924,-0.050727
908,0.038924,0.012055,-0.123191
909,0.038924,0.0288,-0.086959
910,0.000481,0.012055,-0.086959
911,-0.076405,-0.054924,-0.141307
912,-0.057183,-0.071669,-0.159423
913,-0.076405,-0.071669,-0.105075
914,-0.076405,-0.054924,-0.032611
915,-0.076405,-0.021435,0.003621
916,-0.037962,-0.021435,0.039853
917,0.096589,0.079034,0.166665
918,0.154253,0.146014,0.239129
919,0.077367,0.112524,0.239129
920,0.038924,0.06229,0.184781
921,0.000481,0.045545,0.094201
922,0.058146,0.045545,0.039853
923,0.038924,-0.00469,-0.050727
924,-0.172512,-0.222372,-0.539859
925,-0.191734,-0.188883,-0.594207
926,-0.095626,-0.105159,-0.268119
927,-0.037962,-0.021435,0.003621
928,0.000481,-0.00469,0.112317
929,0.077367,0.0288,0.166665
930,0.058146,0.079034,0.221013
931,0.019703,0.095779,0.221013
932,0.077367,0.095779,0.275361
933,0.058146,0.095779,0.293477
934,0.058146,0.079034,0.057969
935,-0.01874,-0.038179,-0.286235
936,-0.134069,-0.172138,-0.539859
937,-0.153291,-0.088414,-0.286235
938,-0.057183,-0.054924,-0.159423
939,-0.057183,-0.021435,-0.195655
940,0.000481,0.012055,0.021737
941,0.019703,0.0288,0.039853
942,0.019703,0.012055,0.094201
943,0.096589,0.079034,0.184781
944,0.154253,0.079034,0.239129
945,0.173475,0.06229,0.239129
946,-0.01874,-0.00469,0.094201
947,-0.210955,-0.155393,-0.340583
948,-0.114848,-0.105159,-0.340583
949,-0.01874,0.0288,-0.050727
950,0.077367,0.095779,0.221013
951,0.135032,0.146014,0.36594
952,0.077367,0.095779,0.257245
953,-0.037962,-0.121903,-0.177539
954,-0.114848,-0.172138,-0.394931
955,-0.037962,-0.054924,-0.177539
956,-0.01874,0.0288,-0.050727
957,-0.076405,0.012055,-0.014495
958,-0.037962,-0.00469,-0.050727
959,-0.01874,-0.038179,-0.105075
960,0.000481,-0.021435,-0.123191
961,-0.057183,-0.054924,-0.050727
962,-0.01874,-0.00469,-0.032611
963,0.019703,0.0288,0.021737
964,0.000481,0.0288,0.039853
965,0.019703,-0.00469,-0.068843
966,-0.057183,-0.088414,-0.123191
967,-0.037962,-0.071669,-0.032611
968,-0.01874,0.012055,0.076085
969,0.000481,-0.00469,0.112317
970,-0.057183,-0.038179,0.003621
971,-0.076405,-0.038179,-0.050727
972,-0.057183,-0.00469,-0.050727
973,0.000481,0.0288,0.003621
974,0.000481,0.012055,0.021737
975,-0.01874,-0.00469,-0.032611
976,-0.057183,-0.021435,-0.032611
977,-0.057183,-0.038179,0.003621
978,0.000481,-0.00469,0.057969
979,0.019703,0.0288,0.130433
980,0.077367,0.0288,0.221013
981,0.11581,0.095779,0.221013
982,0.077367,0.095779,0.202897
983,0.077367,0.112524,0.112317
984,0.019703,0.06229,0.039853
985,-0.076405,-0.038179,-0.086959
986,-0.037962,0.012055,0.039853
987,-0.057183,-0.038179,-0.086959
988,-0.076405,-0.071669,-0.105075
989,-0.076405,-0.054924,-0.050727
990,0.000481,-0.038179,-0.123191
991,-0.01874,-0.054924,-0.123191
992,0.000481,-0.038179,-0.195655
993,-0.01874,-0.054924,-0.123191
994,-0.057183,-0.054924,-0.123191
995,-0.037962,-0.038179,-0.050727
996,-0.037962,0.012055,0.003621
997,-0.01874,0.012055,0.021737
998,0.000481,-0.00469,0.039853
999,-0.037962,-0.00469,-0.014495
1000,0.038924,0.012055,0.057969
1001,0.096589,0.06229,0.094201
1002,0.019703,0.045545,0.166665
1003,-0.076405,-0.021435,0.094201
1004,-0.01874,0.06229,0.112317
1005,0.019703,0.0288,0.130433
1006,0.000481,-0.00469,0.076085
1007,-0.01874,-0.00469,-0.086959
1008,-0.037962,-0.021435,-0.268119
1009,-0.076405,-0.038179,-0.213771
1010,-0.01874,-0.038179,-0.159423
1011,0.000481,-0.00469,0.021737
1012,0.038924,0.012055,0.021737
1013,0.000481,-0.00469,-0.050727
1014,-0.01874,-0.00469,0.003621
1015,-0.037962,-0.00469,-0.032611
1016,0.000481,0.012055,-0.050727
1017,-0.01874,-0.00469,-0.014495
1018,0.000481,-0.00469,-0.014495
1019,-0.01874,-0.00469,0.003621
1020,-0.037962,0.012055,0.039853
1021,-0.057183,0.012055,0.021737
1022,-0.037962,-0.00469,-0.014495
1023,-0.076405,-0.021435,-0.014495
1024,-0.01874,-0.021435,-0.014495
1025,0.019703,-0.038179,0.021737
1026,0.077367,-0.00469,0.076085
1027,0.11581,0.012055,0.039853
1028,0.077367,0.0288,0.112317
1029,0.038924,0.0288,0.112317
1030,0.058146,0.06229,0.094201
1031,0.019703,0.095779,0.130433
1032,-0.057183,0.079034,0.112317
1033,0.058146,0.079034,0.039853
1034,0.019703,0.0288,-0.050727
1035,0.038924,-0.00469,-0.050727
1036,-0.037962,-0.021435,-0.105075
1037,-0.057183,-0.054924,-0.141307
1038,-0.037962,-0.071669,-0.123191
1039,-0.037962,-0.071669,-0.068843
1040,-0.037962,-0.071669,-0.050727
1041,0.038924,-0.054924,0.021737
1042,0.096589,-0.138648,-0.014495
1043,0.135032,-0.121903,0.003621
1044,0.038924,-0.138648,0.039853
1045,-0.01874,-0.121903,0.003621
1046,-0.095626,-0.038179,0.003621
1047,-0.095626,0.06229,0.039853
1048,-0.114848,0.112524,0.003621
1049,-0.114848,0.146014,0.057969
1050,0.096589,0.162759,-0.014495
1051,0.231139,0.162759,-0.032611
1052,0.211918,0.095779,-0.032611
1053,0.211918,0.095779,-0.014495
1054,0.135032,0.045545,-0.032611
1055,-0.134069,0.012055,-0.014495
1056,-0.191734,0.012055,0.003621
1057,-0.153291,0.0288,0.003621
1058,-0.095626,0.045545,0.112317
1059,-0.037962,0.06229,0.112317
1060,0.038924,0.06229,0.166665
1061,0.077367,0.079034,0.184781
1062,0.077367,0.045545,0.130433
1063,0.000481,-0.00469,0.003621
1064,0.000481,-0.00469,0.057969
1065,0.000481,-0.00469,-0.050727
1066,-0.076405,-0.105159,-0.268119
1067,-0.076405,-0.105159,-0.177539
1068,-0.037962,-0.021435,-0.086959
1069,-0.037962,-0.038179,-0.050727
1070,-0.037962,-0.038179,0.039853
1071,0.000481,-0.038179,-0.032611
1072,0.019703,-0.071669,-0.032611
1073,0.038924,-0.054924,0.021737
1074,0.019703,-0.038179,0.003621
1075,-0.076405,-0.155393,0.003621
1076,-0.172512,-0.306097,0.057969
1077,-0.153291,-0.373076,0.039853
1078,-0.153291,-0.222372,0.021737
1079,-0.210955,-0.172138,0.057969
1080,-0.191734,-0.071669,0.021737
1081,-0.134069,0.045545,0.039853
1082,-0.057183,0.129269,0.039853
1083,-0.01874,0.179503,0.003621
1084,-0.037962,0.196248,-0.032611
1085,-0.114848,0.246483,-0.068843
1086,0.000481,0.263228,-0.086959
1087,0.192696,0.279972,-0.086959
1088,0.231139,0.179503,-0.050727
1089,0.250361,0.045545,-0.050727
1090,0.211918,0.045545,-0.014495
1091,0.154253,0.079034,0.021737
1092,0.096589,0.0288,-0.032611
1093,0.077367,0.06229,0.057969
1094,0.096589,0.06229,0.039853
1095,0.077367,-0.021435,0.021737
1096,0.038924,-0.105159,-0.050727
1097,0.038924,-0.054924,0.003621
1098,0.000481,-0.00469,-0.032611
1099,0.019703,-0.021435,0.003621
1100,0.019703,-0.054924,-0.014495
1101,0.038924,-0.071669,0.003621
1102,0.058146,-0.071669,0.057969
1103,0.058146,-0.071669,0.021737
1104,0.058146,-0.306097,-0.014495
1105,0.038924,-0.322841,0.039853
1106,0.058146,-0.205628,0.094201
1107,0.019703,-0.038179,0.021737
1108,-0.114848,0.095779,0.094201
1109,-0.076405,0.179503,0.057969
1110,-0.076405,0.263228,0.021737
1111,-0.057183,0.363697,0.003621
1112,-0.095626,0.346952,-0.050727
1113,-0.134069,0.296717,-0.068843
1114,-0.114848,0.229738,-0.068843
1115,0.038924,0.146014,-0.105075
1116,0.077367,-0.038179,-0.068843
1117,0.038924,-0.121903,-0.050727
1118,0.000481,-0.105159,-0.050727
1119,0.000481,-0.021435,-0.050727
1120,-0.057183,0.012055,0.003621
1121,-0.037962,-0.00469,-0.032611
1122,0.000481,-0.088414,0.003621
1123,0.019703,-0.088414,0.021737
1124,0.000481,-0.222372,-0.014495
1125,-0.01874,-0.239117,0.039853
1126,-0.037962,-0.255862,0.076085
1127,-0.037962,-0.155393,0.057969
1128,-0.037962,-0.105159,0.057969
1129,-0.01874,-0.038179,0.057969
1130,-0.057183,0.0288,-0.032611
1131,-0.076405,0.095779,-0.014495
1132,0.000481,0.263228,0.039853
1133,0.038924,0.380441,0.003621
1134,0.038924,0.346952,0.003621
1135,0.096589,0.380441,0.057969
1136,0.11581,0.330207,0.057969
1137,0.135032,0.196248,0.094201
1138,0.11581,0.146014,0.076085
1139,0.096589,0.095779,0.076085
1140,0.058146,-0.021435,0.003621
1141,0.000481,-0.121903,-0.086959
1142,-0.01874,-0.088414,-0.123191
1143,-0.037962,-0.105159,-0.050727
1144,-0.037962,-0.121903,-0.050727
1145,-0.057183,-0.289352,-0.123191
1146,-0.057183,-0.306097,-0.105075
1147,-0.037962,-0.322841,-0.032611
1148,-0.057183,-0.205628,-0.032611
1149,-0.057183,-0.038179,-0.014495
1150,-0.037962,-0.105159,0.021737
1151,-0.037962,-0.239117,0.003621
1152,-0.095626,-0.205628,0.076085
1153,-0.076405,-0.188883,0.003621
1154,-0.037962,-0.105159,-0.014495
1155,0.000481,0.079034,0.039853
1156,0.019703,0.246483,0.021737
1157,0.058146,0.296717,-0.014495
1158,0.000481,0.313462,0.003621
1159,0.000481,0.380441,-0.032611
1160,0.000481,0.363697,-0.014495
1161,0.000481,0.313462,-0.014495
1162,0.038924,0.179503,-0.032611
1163,0.058146,0.129269,-0.050727
1164,0.077367,0.0288,-0.032611
1165,0.000481,-0.105159,-0.068843
1166,0.000481,-0.322841,0.003621
1167,-0.01874,-0.406566,0.003621
1168,-0.037962,-0.49029,0.021737
1169,-0.01874,-0.356331,0.057969
1170,-0.037962,-0.255862,0.112317
1171,-0.01874,-0.105159,0.076085
1172,-0.01874,-0.021435,0.003621
1173,-0.076405,-0.00469,0.021737
1174,-0.037962,0.0288,-0.050727
1175,-0.037962,0.212993,-0.032611
1176,-0.037962,0.330207,-0.032611
1177,-0.076405,0.279972,0.003621
1178,-0.01874,0.146014,-0.032611
1179,0.038924,0.079034,0.021737
1180,0.019703,0.079034,-0.050727
1181,0.000481,0.0288,0.021737
1182,0.019703,-0.00469,-0.032611
1183,0.000481,-0.00469,-0.014495
1184,-0.037962,0.012055,-0.014495
1185,-0.01874,0.112524,-0.014495
1186,0.077367,0.162759,-0.086959
1187,0.135032,0.212993,-0.032611
1188,0.077367,0.095779,-0.014495
1189,0.038924,0.0288,-0.050727
1190,0.038924,-0.071669,-0.032611
1191,0.019703,-0.121903,-0.014495
1192,0.019703,-0.121903,0.021737
1193,-0.01874,-0.121903,0.076085
1194,-0.037962,-0.138648,0.112317
1195,-0.037962,-0.138648,0.076085
1196,-0.057183,-0.121903,0.112317
1197,-0.057183,-0.021435,0.057969
1198,-0.037962,-0.105159,0.021737
1199,-0.01874,-0.172138,0.057969
1200,-0.037962,-0.205628,0.003621
1201,-0.057183,-0.105159,-0.014495
1202,-0.057183,0.012055,-0.050727
1203,-0.01874,-0.038179,-0.050727
1204,0.000481,-0.021435,-0.014495
1205,-0.01874,-0.021435,0.021737
1206,0.000481,0.06229,0.021737
1207,0.038924,0.129269,-0.014495
1208,0.038924,0.229738,-0.032611
1209,0.096589,0.196248,-0.014495
1210,0.173475,0.146014,-0.032611
1211,0.173475,0.212993,0.003621
1212,0.173475,0.196248,0.003621
1213,0.11581,0.146014,0.039853
1214,0.019703,0.095779,0.039853
1215,0.000481,-0.00469,0.021737
1216,-0.076405,0.012055,-0.050727
1217,-0.153291,-0.105159,-0.014495
1218,-0.172512,-0.138648,-0.032611
1219,-0.037962,-0.121903,-0.032611
1220,0.000481,-0.088414,-0.014495
1221,-0.01874,-0.038179,-0.014495
1222,-0.037962,-0.038179,0.003621
1223,-0.037962,0.045545,0.021737
1224,-0.057183,0.079034,-0.050727
1225,-0.057183,0.0288,0.021737
1226,0.000481,-0.00469,0.003621
1227,0.000481,-0.038179,-0.032611
1228,0.019703,-0.038179,0.021737
1229,-0.01874,-0.105159,0.039853
1230,-0.037962,-0.088414,0.003621
1231,-0.057183,-0.021435,-0.014495
1232,-0.037962,0.012055,-0.014495
1233,-0.01874,-0.038179,-0.068843
1234,-0.037962,-0.00469,0.003621
1235,-0.037962,0.095779,0.003621
1236,0.019703,0.146014,-0.014495
1237,0.038924,0.06229,0.021737
1238,0.019703,-0.038179,0.076085
1239,0.019703,-0.155393,0.057969
1240,-0.037962,-0.121903,0.003621
1241,-0.01874,-0.021435,0.003621
1242,0.019703,0.079034,-0.050727
1243,0.000481,0.06229,-0.032611
1244,-0.037962,0.0288,-0.050727
1245,-0.01874,0.0288,-0.105075
1246,0.019703,0.146014,-0.068843
1247,0.019703,0.079034,-0.050727
1248,0.000481,0.06229,0.057969
1249,0.038924,0.079034,0.112317
1250,0.038924,0.06229,0.076085
1251,0.019703,0.0288,0.021737
1252,0.000481,0.045545,0.003621
1253,-0.037962,0.012055,-0.032611
1254,-0.037962,-0.021435,-0.068843
1255,-0.037962,-0.038179,-0.068843
1256,-0.037962,-0.071669,-0.086959
1257,-0.037962,-0.138648,-0.086959
1258,-0.01874,-0.239117,-0.050727
1259,-0.057183,-0.255862,-0.068843
1260,0.000481,-0.222372,-0.050727
1261,-0.01874,-0.138648,-0.014495
1262,-0.01874,-0.038179,0.003621
1263,-0.037962,-0.00469,0.003621
1264,-0.057183,-0.021435,0.003621
1265,-0.037962,0.045545,0.003621
1266,-0.01874,0.095779,0.003621
1267,0.000481,0.146014,0.039853
1268,0.058146,0.162759,-0.014495
1269,0.038924,0.079034,0.021737
1270,0.019703,0.112524,-0.014495
1271,-0.01874,0.06229,-0.032611
1272,-0.01874,0.079034,-0.032611
1273,-0.01874,0.079034,0.021737
1274,-0.01874,-0.021435,-0.014495
1275,-0.037962,-0.054924,0.021737
1276,-0.01874,-0.021435,0.039853
1277,0.000481,0.012055,0.003621
1278,0.000481,0.012055,0.039853
1279,0.000481,-0.054924,0.039853
1280,0.000481,-0.021435,-0.014495
1281,-0.01874,0.06229,0.003621
1282,0.000481,0.045545,0.039853
1283,-0.037962,-0.054924,0.021737
1284,-0.01874,-0.088414,0.039853
1285,0.000481,-0.088414,0.021737
1286,0.000481,0.012055,0.021737
1287,-0.01874,0.095779,-0.014495
1288,-0.01874,0.06229,-0.032611
1289,-0.01874,0.06229,-0.014495
1290,0.000481,0.146014,0.003621
1291,0.019703,0.196248,0.021737
1292,0.000481,0.095779,0.003621
1293,-0.037962,0.012055,0.057969
1294,-0.037962,-0.054924,0.039853
1295,-0.037962,-0.054924,-0.014495
1296,0.058146,-0.054924,0.021737
1297,0.058146,-0.00469,-0.032611
1298,0.058146,0.012055,-0.014495
1299,0.019703,0.045545,0.039853
1300,-0.01874,0.079034,-0.014495
1301,-0.01874,0.045545,0.021737
1302,0.019703,0.095779,0.057969
1303,0.038924,0.095779,0.021737
1304,0.019703,0.0288,-0.014495
1305,0.000481,0.0288,-0.014495
1306,0.000481,-0.038179,0.039853
1307,0.000481,-0.00469,0.039853
1308,0.019703,0.012055,0.057969
1309,0.000481,0.095779,0.057969
1310,0.019703,-0.00469,0.094201
1311,0.000481,0.0288,0.094201
1312,0.000481,0.012055,0.003621
1313,-0.01874,-0.054924,0.003621
1314,-0.037962,-0.038179,-0.032611
1315,-0.01874,0.012055,-0.050727
1316,0.000481,-0.021435,-0.014495
1317,-0.01874,-0.038179,0.003621
1318,0.000481,-0.00469,-0.014495
1319,-0.01874,-0.021435,0.003621
1320,-0.01874,-0.038179,-0.032611
1321,0.000481,-0.054924,-0.050727
1322,0.000481,-0.054924,-0.068843
1323,-0.037962,-0.054924,-0.086959
1324,-0.057183,-0.038179,-0.068843
1325,0.000481,-0.00469,-0.032611
1326,0.000481,0.012055,0.021737
1327,0.019703,0.012055,-0.014495
1328,0.000481,0.045545,0.039853
1329,-0.01874,-0.021435,0.021737
1330,0.000481,-0.038179,-0.014495
1331,-0.01874,-0.00469,-0.014495
1332,-0.01874,-0.00469,0.021737
1333,0.019703,-0.00469,0.003621
1334,-0.01874,0.045545,0.021737
1335,-0.01874,0.095779,-0.014495
1336,0.000481,0.079034,0.021737
1337,-0.01874,0.06229,0.039853
1338,-0.01874,0.0288,0.039853
1339,-0.01874,-0.00469,0.021737
1340,0.000481,0.0288,0.039853
1341,0.019703,-0.00469,0.021737
1342,0.038924,-0.00469,0.021737
1343,0.038924,0.0288,0.021737
1344,0.019703,-0.038179,-0.050727
1345,-0.01874,0.012055,-0.050727
1346,-0.01874,-0.00469,-0.050727
1347,0.000481,-0.021435,-0.105075
1348,-0.01874,-0.021435,-0.123191
1349,-0.057183,-0.038179,-0.086959
1350,-0.01874,-0.054924,-0.068843
1351,-0.01874,-0.088414,-0.086959
1352,-0.037962,-0.038179,0.003621
1353,-0.037962,-0.00469,0.039853
1354,-0.01874,0.0288,0.076085
1355,-0.037962,0.0288,0.057969
1356,-0.01874,0.0288,0.021737
1357,0.000481,0.0288,0.021737
1358,-0.01874,0.012055,0.021737
1359,0.019703,0.012055,0.003621
1360,0.019703,0.0288,0.021737
1361,0.000481,-0.00469,0.076085
1362,0.000481,0.0288,0.021737
1363,0.000481,-0.021435,0.039853
1364,0.000481,-0.088414,0.057969
1365,0.019703,-0.121903,-0.014495
1366,0.000481,-0.138648,0.021737
1367,0.000481,-0.088414,0.003621
1368,0.019703,-0.038179,0.021737
1369,0.000481,-0.00469,0.021737
1370,-0.01874,0.045545,0.057969
1371,0.019703,0.095779,0.021737
1372,0.038924,0.129269,0.076085
1373,0.058146,0.095779,0.076085
1374,0.038924,0.012055,0.039853
1375,0.000481,-0.038179,0.021737
1376,0.000481,-0.00469,0.039853
1377,0.038924,0.045545,-0.032611
1378,0.019703,0.112524,0.021737
1379,0.019703,0.079034,-0.032611
1380,0.000481,0.0288,-0.014495
1381,0.038924,-0.038179,0.021737
1382,0.038924,-0.138648,0.021737
1383,0.019703,-0.172138,-0.014495
1384,-0.01874,-0.188883,-0.014495
1385,0.000481,-0.088414,-0.050727
1386,0.000481,0.012055,-0.032611
1387,0.000481,0.095779,0.021737
1388,0.019703,0.196248,0.003621
1389,0.019703,0.246483,0.003621
1390,0.000481,0.179503,0.057969
1391,0.038924,0.079034,0.003621
1392,0.038924,0.0288,0.021737
1393,0.019703,-0.00469,0.003621
1394,-0.01874,-0.021435,-0.050727
1395,-0.037962,-0.054924,-0.068843
1396,0.000481,-0.054924,-0.032611
1397,0.000481,-0.021435,-0.032611
1398,0.000481,-0.00469,0.021737
1399,-0.037962,0.012055,0.057969
1400,-0.01874,0.045545,0.057969
1401,-0.037962,0.045545,0.076085
1402,-0.01874,0.045545,0.021737
1403,0.000481,-0.00469,-0.032611
1404,0.000481,-0.054924,0.021737
1405,-0.01874,-0.054924,0.021737
1406,-0.01874,-0.071669,0.003621
1407,-0.01874,-0.054924,0.021737
1408,0.000481,-0.021435,-0.014495
1409,0.000481,0.06229,0.003621
1410,-0.037962,0.079034,0.021737
1411,-0.037962,0.079034,-0.014495
1412,0.000481,0.045545,-0.014495
1413,0.000481,0.012055,0.003621
1414,-0.037962,-0.038179,0.057969
1415,0.000481,-0.038179,0.021737
1416,-0.01874,-0.038179,0.057969
1417,-0.01874,-0.021435,0.021737
1418,-0.01874,-0.054924,-0.014495
1419,-0.037962,-0.00469,0.003621
1420,0.000481,0.012055,0.003621
1421,0.000481,0.06229,-0.032611
1422,-0.01874,0.045545,-0.032611
1423,-0.01874,0.045545,-0.032611
1424,-0.01874,0.06229,0.003621
1425,0.000481,0.012055,0.021737
1426,0.000481,-0.00469,0.003621
1427,0.000481,-0.00469,-0.050727
1428,0.019703,-0.00469,0.003621
1429,0.000481,-0.021435,-0.032611
1430,0.000481,-0.00469,-0.068843
1431,0.038924,-0.021435,-0.032611
1432,-0.01874,-0.021435,-0.050727
1433,-0.01874,0.012055,0.021737
1434,0.000481,0.012055,0.039853
1435,0.000481,0.012055,0.003621
1436,0.000481,0.012055,0.021737
1437,0.019703,-0.021435,-0.014495
1438,-0.01874,0.012055,-0.050727
1439,0.000481,-0.021435,0.003621
1440,-0.01874,-0.00469,0.039853
1441,0.000481,0.012055,0.003621
1442,0.000481,-0.021435,0.021737
1443,0.019703,-0.00469,0.057969
1444,0.000481,-0.038179,0.003621
1445,0.000481,-0.00469,0.057969
1446,0.000481,0.0288,0.039853
1447,0.019703,0.012055,-0.014495
1448,-0.01874,-0.038179,-0.014495
1449,0.019703,-0.00469,-0.014495
1450,0.038924,-0.00469,0.003621
1451,0.019703,-0.054924,-0.032611
1452,0.019703,-0.088414,0.003621
1453,-0.01874,-0.038179,-0.014495
1454,-0.01874,-0.021435,0.021737
1455,-0.01874,-0.038179,0.021737
1456,-0.01874,-0.00469,-0.014495
1457,0.000481,0.06229,0.003621
1458,0.019703,0.112524,-0.014495
1459,0.000481,0.045545,0.003621
1460,-0.01874,-0.00469,0.039853
1461,0.000481,-0.054924,0.003621
1462,0.000481,-0.021435,-0.014495
1463,0.019703,-0.021435,0.021737
1464,0.000481,-0.038179,0.003621
1465,0.000481,0.0288,0.003621
1466,0.019703,0.0288,0.021737
1467,0.000481,0.0288,-0.032611
1468,-0.01874,0.0288,0.021737
1469,0.038924,0.06229,0.094201
1470,0.000481,0.045545,0.039853
1471,0.019703,0.079034,0.021737
1472,0.019703,0.0288,0.021737
1473,0.000481,0.0288,0.003621
1474,0.019703,0.012055,-0.032611
1475,0.000481,-0.021435,0.003621
1476,-0.01874,-0.021435,-0.050727
1477,0.000481,-0.038179,-0.032611
1478,-0.01874,-0.071669,-0.032611
1479,-0.01874,-0.088414,-0.050727
1480,-0.01874,-0.138648,0.003621
1481,-0.057183,-0.172138,0.003621
1482,-0.057183,-0.155393,-0.068843
1483,-0.037962,-0.105159,0.003621
1484,-0.037962,-0.038179,0.003621
1485,0.000481,0.112524,-0.014495
1486,0.000481,0.212993,-0.032611
1487,0.019703,0.146014,0.021737
1488,0.019703,0.129269,0.003621
1489,0.019703,0.146014,0.057969
1490,0.038924,0.179503,0.021737
1491,0.019703,0.079034,-0.032611
1492,0.019703,0.012055,0.021737
1493,-0.01874,0.0288,0.003621
1494,0.000481,-0.00469,0.003621
1495,-0.01874,0.012055,0.039853
1496,0.000481,0.012055,0.021737
1497,0.000481,-0.00469,-0.014495
1498,0.000481,-0.00469,0.003621
1499,0.019703,-0.021435,0.003621
1500,0.000481,-0.00469,-0.068843
1501,0.000481,-0.00469,0.003621
1502,-0.01874,-0.00469,0.003621
1503,0.019703,-0.00469,0.039853
1504,0.019703,0.012055,0.039853
1505,0.000481,0.0288,0.003621
1506,0.019703,0.0288,0.003621
1507,0.000481,-0.021435,-0.014495
1508,0.000481,0.012055,-0.014495
1509,0.000481,-0.00469,-0.032611
1510,-0.01874,0.012055,-0.014495
1511,-0.01874,-0.021435,-0.050727
1512,-0.01874,-0.00469,0.021737
1513,-0.01874,-0.105159,0.039853
1514,-0.01874,-0.138648,0.003621
1515,-0.01874,-0.105159,0.021737
1516,0.000481,-0.054924,0.003621
1517,0.000481,-0.021435,-0.014495
1518,0.019703,0.045545,-0.032611
1519,0.000481,0.095779,0.003621
1520,0.019703,0.112524,-0.032611
1521,0.000481,0.129269,0.021737
1522,0.038924,0.012055,0.021737
1523,0.000481,0.012055,0.021737
1524,0.000481,-0.054924,0.021737
1525,-0.037962,-0.038179,-0.032611
1526,-0.037962,-0.038179,-0.032611
1527,-0.01874,-0.00469,-0.014495
1528,-0.01874,0.0288,-0.014495
1529,0.000481,0.0288,-0.014495
1530,0.000481,0.045545,0.039853
1531,0.000481,0.06229,0.039853
1532,0.000481,0.0288,0.003621
1533,-0.01874,0.012055,0.039853
1534,0.000481,-0.00469,0.003621
1535,0.000481,0.012055,0.021737
1536,0.019703,0.0288,0.039853
1537,-0.01874,-0.021435,0.021737
1538,0.000481,-0.00469,-0.014495
1539,0.000481,-0.021435,0.039853
1540,0.019703,-0.00469,0.003621
1541,-0.01874,-0.021435,-0.032611
1542,-0.01874,-0.038179,-0.014495
1543,-0.01874,-0.00469,-0.050727
1544,0.000481,-0.00469,-0.068843
1545,-0.01874,0.012055,-0.032611
1546,-0.01874,0.012055,-0.050727
1547,0.000481,0.012055,-0.014495
1548,0.000481,0.06229,0.021737
1549,-0.037962,0.0288,0.003621
1550,0.000481,0.0288,0.021737
1551,0.000481,-0.038179,0.021737
1552,0.000481,-0.088414,-0.014495
1553,0.000481,-0.088414,-0.014495
1554,0.000481,-0.138648,0.003621
1555,-0.01874,-0.071669,0.021737
1556,-0.01874,-0.038179,0.076085
1557,-0.01874,-0.021435,0.094201
1558,0.000481,0.079034,0.021737
1559,0.000481,0.112524,-0.014495
1560,0.019703,0.112524,-0.014495
1561,0.019703,0.079034,-0.032611
1562,0.019703,0.045545,-0.032611
1563,0.000481,0.0288,0.003621
1564,-0.01874,0.012055,-0.014495
1565,-0.01874,-0.00469,0.021737
1566,-0.01874,-0.00469,-0.014495
1567,-0.01874,0.0288,-0.014495
1568,-0.01874,0.012055,-0.050727
1569,0.000481,-0.00469,-0.050727
1570,-0.01874,0.012055,-0.050727
1571,0.019703,-0.00469,0.021737
1572,-0.01874,-0.088414,0.021737
1573,-0.01874,-0.105159,-0.014495
1574,0.000481,-0.105159,0.003621
1575,-0.037962,-0.088414,-0.032611
1576,-0.037962,-0.021435,-0.032611
1577,-0.01874,0.0288,0.003621
1578,-0.01874,0.079034,-0.014495
1579,0.019703,0.112524,0.039853
1580,0.019703,0.146014,0.039853
1581,-0.037962,0.06229,0.057969
1582,0.000481,0.06229,0.039853
1583,0.019703,-0.00469,0.039853
1584,0.019703,0.012055,0.021737
1585,0.019703,0.012055,0.003621
1586,0.000481,-0.00469,-0.014495
1587,-0.037962,0.012055,-0.032611
1588,0.000481,-0.00469,0.003621
1589,0.000481,-0.00469,0.039853
1590,0.000481,-0.00469,-0.014495
1591,-0.01874,-0.00469,-0.014495
1592,-0.01874,0.0288,0.003621
1593,-0.037962,-0.00469,-0.068843
1594,-0.01874,-0.00469,-0.050727
1595,0.000481,-0.021435,-0.014495
1596,0.000481,-0.00469,-0.032611
1597,-0.01874,-0.00469,0.039853
1598,-0.01874,-0.038179,0.057969
1599,0.000481,-0.00469,0.039853
1600,-0.01874,-0.00469,0.021737
1601,-0.01874,-0.071669,0.003621
1602,0.019703,-0.054924,-0.014495
1603,-0.01874,-0.021435,-0.014495
1604,-0.01874,-0.021435,-0.014495
1605,0.000481,-0.021435,-0.050727
1606,-0.01874,0.012055,0.021737
1607,0.000481,0.045545,0.021737
1608,0.000481,0.079034,0.039853
1609,0.019703,0.079034,0.057969
1610,0.000481,0.012055,0.021737
1611,0.000481,-0.00469,-0.014495
1612,0.000481,-0.00469,-0.014495
1613,-0.01874,0.012055,0.003621
1614,0.038924,0.012055,-0.014495
1615,0.000481,-0.021435,-0.014495
1616,-0.037962,-0.071669,-0.032611
1617,-0.037962,-0.054924,-0.032611
1618,-0.01874,-0.00469,0.021737
1619,0.000481,0.012055,0.003621
1620,0.000481,0.0288,-0.014495
1621,0.000481,0.045545,0.021737
1622,-0.01874,0.0288,-0.032611
1623,0.000481,0.012055,-0.014495
1624,0.000481,-0.021435,0.057969
1625,-0.01874,-0.038179,0.021737
1626,0.000481,0.012055,0.003621
1627,0.019703,-0.00469,0.003621
1628,0.019703,-0.00469,-0.014495
1629,0.000481,0.012055,-0.032611
1630,-0.01874,0.012055,0.003621
1631,0.000481,0.012055,-0.014495
1632,0.000481,0.0288,0.003621
1633,0.000481,0.012055,0.021737
1634,0.000481,0.0288,0.003621
1635,0.000481,-0.038179,0.003621
1636,-0.01874,-0.038179,0.003621
1637,0.000481,-0.071669,0.003621
1638,-0.01874,-0.071669,-0.014495
1639,0.000481,-0.071669,-0.050727
1640,-0.01874,-0.021435,-0.032611
1641,-0.01874,0.012055,-0.014495
1642,-0.01874,0.045545,0.039853
1643,-0.01874,0.06229,0.003621
1644,-0.01874,0.06229,0.039853
1645,-0.01874,0.045545,0.021737
1646,0.000481,-0.00469,0.003621
1647,0.019703,-0.054924,0.021737
1648,0.000481,-0.021435,0.003621
1649,0.000481,-0.021435,-0.050727
1650,-0.01874,-0.054924,-0.014495
1651,0.000481,0.012055,0.039853
1652,0.019703,0.012055,0.039853
1653,0.000481,0.0288,0.057969
1654,0.000481,0.06229,0.039853
1655,0.000481,0.079034,-0.032611
1656,-0.01874,0.045545,-0.032611
1657,0.019703,0.0288,-0.050727
1658,-0.01874,0.0288,0.003621
1659,-0.037962,0.045545,0.003621
1660,-0.01874,0.0288,0.094201
1661,0.000481,-0.00469,0.039853
1662,0.000481,-0.021435,0.021737
1663,-0.037962,-0.00469,0.003621
1664,0.019703,0.012055,-0.014495
1665,0.000481,0.012055,0.003621
1666,0.000481,0.012055,-0.032611
1667,0.000481,0.012055,-0.014495
1668,-0.01874,-0.00469,0.021737
1669,-0.01874,-0.038179,-0.032611
1670,-0.01874,-0.054924,0.003621
1671,-0.01874,-0.038179,-0.032611
1672,-0.01874,-0.038179,-0.086959
1673,-0.037962,0.012055,-0.050727
1674,0.019703,0.06229,0.003621
1675,0.000481,0.012055,-0.014495
1676,-0.01874,0.045545,0.021737
1677,0.019703,0.045545,0.094201
1678,0.019703,0.045545,0.021737
1679,0.038924,-0.021435,0.094201
1680,0.019703,-0.038179,0.039853
1681,0.000481,-0.021435,0.021737
1682,-0.01874,-0.071669,-0.014495
1683,-0.037962,-0.054924,-0.014495
1684,0.000481,-0.038179,-0.032611
1685,0.019703,0.0288,-0.014495
1686,0.000481,0.06229,0.003621
1687,0.000481,0.095779,-0.032611
1688,0.000481,0.079034,0.039853
1689,-0.01874,0.012055,-0.032611
1690,-0.01874,0.012055,-0.014495
1691,0.000481,0.012055,-0.014495
1692,-0.01874,-0.00469,-0.032611
1693,-0.01874,0.0288,-0.014495
1694,0.000481,0.012055,0.039853
1695,0.019703,-0.021435,0.021737
1696,-0.01874,-0.021435,0.021737
1697,0.019703,-0.00469,0.039853
1698,-0.01874,0.0288,-0.032611
1699,-0.01874,-0.00469,-0.068843
1700,0.019703,-0.021435,0.003621
1701,-0.01874,0.045545,0.021737
1702,0.000481,0.0288,0.003621
1703,0.000481,0.012055,0.039853
1704,0.019703,-0.021435,-0.014495
1705,0.000481,0.0288,0.039853
1706,0.000481,-0.00469,0.021737
1707,0.000481,-0.00469,-0.014495
1708,-0.01874,-0.021435,-0.032611
1709,0.000481,-0.00469,0.003621
1710,0.019703,-0.021435,-0.014495
1711,0.000481,-0.00469,0.021737
1712,0.000481,-0.00469,0.039853
1713,-0.01874,-0.00469,0.039853
1714,-0.037962,-0.00469,0.021737
1715,-0.01874,0.045545,0.021737
1716,0.000481,-0.00469,-0.014495
1717,0.019703,0.0288,-0.014495
1718,0.000481,-0.00469,-0.032611
1719,0.000481,-0.088414,0.021737
1720,0.038924,-0.071669,0.021737
1721,-0.01874,-0.054924,0.039853
1722,-0.01874,-0.054924,-0.032611
1723,0.000481,0.0288,0.039853
1724,0.000481,0.045545,-0.014495
1725,0.000481,0.06229,-0.032611
1726,0.000481,0.095779,0.003621
1727,0.000481,0.095779,0.021737
1728,0.000481,0.0288,-0.014495
1729,0.000481,0.0288,0.003621
1730,0.019703,0.012055,0.021737
1731,0.038924,0.012055,0.021737
1732,0.038924,-0.00469,0.003621
1733,0.000481,0.012055,-0.014495
1734,0.000481,-0.00469,-0.068843
1735,0.000481,-0.021435,-0.050727
1736,-0.01874,-0.00469,-0.014495
1737,-0.01874,-0.00469,0.003621
1738,0.000481,-0.021435,0.003621
1739,0.019703,-0.00469,0.039853
1740,0.019703,0.0288,0.039853
1741,0.019703,0.012055,0.021737
1742,-0.01874,-0.00469,-0.014495
1743,-0.037962,-0.00469,-0.050727
1744,0.019703,-0.021435,-0.050727
1745,-0.01874,-0.038179,-0.032611
1746,-0.01874,-0.071669,0.003621
1747,0.000481,-0.038179,0.021737
1748,-0.01874,-0.038179,0.021737
1749,0.000481,-0.021435,0.021737
1750,0.019703,-0.038179,0.039853
1751,0.019703,-0.00469,0.003621
1752,-0.01874,-0.00469,-0.032611
1753,-0.01874,0.012055,0.003621
1754,0.038924,0.0288,-0.032611
1755,0.019703,0.045545,0.039853
1756,0.019703,0.06229,0.076085
1757,0.019703,0.06229,0.003621
1758,0.019703,0.012055,0.039853
1759,-0.01874,-0.038179,-0.032611
1760,-0.01874,-0.054924,-0.050727
1761,-0.037962,-0.071669,-0.050727
1762,-0.01874,-0.054924,-0.050727
1763,0.000481,-0.038179,-0.032611
1764,-0.01874,0.0288,-0.014495
1765,-0.01874,-0.00469,0.003621
1766,-0.037962,-0.00469,-0.032611
1767,-0.01874,0.06229,0.021737
1768,0.000481,0.095779,0.003621
1769,0.000481,0.079034,-0.014495
1770,0.019703,0.045545,-0.014495
1771,0.000481,0.06229,0.003621
1772,0.000481,0.0288,-0.014495
1773,-0.01874,0.012055,-0.014495
1774,-0.01874,-0.00469,0.039853
1775,-0.01874,0.012055,0.021737
1776,0.000481,0.0288,0.003621
1777,-0.01874,-0.021435,0.003621
1778,0.000481,0.012055,-0.050727
1779,0.000481,-0.00469,-0.014495
1780,-0.01874,-0.00469,0.003621
1781,0.000481,-0.021435,-0.014495
1782,0.019703,-0.021435,0.021737
1783,0.000481,-0.021435,0.057969
1784,0.019703,0.012055,0.003621
1785,-0.01874,0.012055,0.021737
1786,-0.037962,0.012055,0.039853
1787,0.019703,0.0288,0.021737
1788,0.000481,0.06229,0.076085
1789,0.019703,0.045545,0.021737
1790,0.000481,-0.021435,0.039853
1791,0.019703,-0.054924,0.039853
1792,0.038924,-0.038179,0.057969
1793,-0.01874,-0.038179,0.003621
1794,0.000481,-0.054924,-0.050727
1795,-0.037962,-0.038179,-0.123191
1796,0.000481,-0.021435,-0.141307
1797,0.000481,-0.00469,-0.068843
1798,0.000481,0.012055,-0.068843
1799,0.000481,0.012055,-0.014495
1800,0.000481,0.012055,0.021737
1801,0.000481,-0.038179,-0.050727
1802,0.019703,-0.00469,0.003621
1803,0.000481,-0.00469,0.003621
1804,0.000481,0.0288,-0.032611
1805,0.000481,-0.00469,-0.032611
1806,-0.01874,0.0288,-0.014495
1807,0.019703,0.0288,-0.032611
1808,0.000481,0.012055,-0.014495
1809,0.000481,0.0288,0.039853
1810,0.019703,0.012055,0.057969
1811,-0.037962,0.0288,0.057969
1812,0.000481,0.045545,0.003621
1813,0.000481,0.045545,-0.014495
1814,0.019703,0.0288,-0.032611
1815,0.000481,0.012055,-0.014495
1816,0.000481,-0.00469,-0.050727
1817,0.000481,-0.00469,0.039853
1818,-0.01874,0.012055,-0.014495
1819,0.000481,-0.00469,-0.014495
1820,-0.01874,-0.021435,0.057969
1821,0.000481,-0.054924,0.003621
1822,0.000481,-0.038179,-0.032611
1823,-0.01874,-0.071669,-0.032611
1824,-0.01874,-0.021435,-0.032611
1825,0.000481,-0.00469,-0.014495
1826,-0.01874,0.0288,0.039853
1827,0.019703,0.06229,0.057969
1828,0.000481,0.079034,0.039853
1829,0.000481,0.045545,0.021737
1830,0.019703,0.012055,0.003621
1831,0.000481,0.012055,-0.032611
1832,0.000481,-0.00469,0.003621
1833,-0.01874,-0.00469,-0.068843
1834,0.000481,-0.00469,-0.032611
1835,-0.01874,-0.021435,0.003621
1836,-0.01874,0.012055,-0.014495
1837,-0.01874,-0.021435,-0.014495
1838,-0.01874,-0.021435,0.039853
1839,0.000481,-0.021435,0.021737
1840,-0.01874,-0.00469,-0.032611
1841,0.000481,-0.00469,-0.050727
1842,0.000481,-0.021435,-0.068843
1843,0.019703,0.012055,0.003621
1844,0.000481,0.0288,0.021737
1845,0.000481,0.012055,0.003621
1846,0.000481,0.012055,0.003621
1847,-0.01874,0.012055,0.039853
1848,0.000481,-0.00469,0.021737
1849,-0.01874,0.012055,-0.032611
1850,-0.037962,-0.021435,-0.032611
1851,-0.01874,-0.038179,-0.032611
1852,-0.01874,-0.105159,0.021737
1853,-0.01874,-0.088414,0.003621
1854,-0.01874,-0.121903,0.003621
1855,-0.01874,-0.071669,0.039853
1856,-0.01874,-0.021435,0.021737
1857,-0.01874,0.012055,0.021737
1858,-0.01874,0.06229,0.003621
1859,-0.01874,0.129269,0.021737
1860,0.000481,0.162759,0.003621
1861,0.038924,0.095779,-0.014495
1862,0.019703,-0.021435,0.021737
1863,0.019703,-0.038179,0.021737
1864,0.000481,-0.038179,0.021737
1865,0.000481,-0.00469,-0.032611
1866,0.000481,0.045545,-0.032611
1867,0.000481,0.06229,-0.032611
1868,0.000481,0.045545,-0.032611
1869,-0.037962,0.012055,-0.014495
1870,0.000481,0.012055,0.021737
1871,-0.01874,-0.021435,0.057969
1872,0.000481,0.012055,-0.014495
1873,0.019703,0.012055,0.003621
1874,0.000481,0.045545,-0.014495
1875,-0.01874,0.0288,-0.050727
1876,0.000481,0.0288,-0.014495
1877,-0.01874,-0.00469,-0.032611
1878,0.019703,0.012055,0.021737
1879,-0.01874,-0.00469,0.003621
1880,-0.01874,0.012055,0.021737
1881,-0.01874,-0.021435,-0.014495
1882,-0.01874,-0.00469,0.021737
1883,0.000481,-0.00469,-0.032611
1884,0.000481,0.012055,-0.050727
1885,0.019703,-0.021435,-0.014495
1886,-0.01874,-0.021435,-0.032611
1887,0.000481,-0.021435,0.003621
1888,-0.037962,-0.00469,0.039853
1889,-0.01874,-0.021435,0.057969
1890,0.000481,0.012055,0.039853
1891,0.000481,0.0288,0.039853
1892,0.000481,0.0288,0.057969
1893,0.019703,0.012055,0.021737
1894,0.000481,-0.00469,0.003621
1895,0.000481,-0.021435,-0.050727
1896,0.019703,-0.021435,-0.050727
1897,-0.037962,-0.038179,-0.050727
1898,-0.01874,-0.038179,-0.032611
1899,-0.01874,-0.00469,-0.014495
1900,-0.01874,-0.00469,0.003621
1901,0.000481,-0.00469,0.003621
1902,-0.01874,-0.021435,-0.032611
1903,-0.037962,-0.021435,-0.014495
1904,-0.01874,-0.021435,-0.014495
1905,0.019703,0.012055,0.039853
1906,0.000481,-0.00469,0.021737
1907,0.000481,-0.021435,0.003621
1908,-0.01874,-0.038179,0.003621
1909,-0.01874,-0.021435,0.039853
1910,-0.01874,-0.038179,-0.032611
1911,-0.01874,-0.021435,0.003621
1912,-0.01874,-0.021435,0.021737
1913,0.000481,-0.021435,-0.032611
1914,0.000481,0.012055,0.003621
1915,0.000481,0.045545,-0.014495
1916,-0.01874,0.0288,0.003621
1917,0.000481,0.012055,0.039853
1918,0.000481,0.012055,0.003621
1919,0.019703,0.012055,0.003621
1920,-0.01874,-0.00469,0.021737
1921,-0.01874,-0.021435,-0.014495
1922,-0.01874,-0.021435,0.003621
1923,0.000481,0.0288,0.039853
1924,-0.01874,-0.00469,0.057969
1925,0.000481,-0.00469,-0.014495
1926,-0.01874,0.012055,0.021737
1927,0.019703,0.012055,-0.032611
1928,-0.037962,-0.00469,-0.050727
1929,-0.037962,-0.021435,0.003621
1930,0.000481,-0.021435,-0.050727
1931,0.000481,-0.038179,-0.032611
1932,0.000481,-0.021435,-0.032611
1933,-0.01874,-0.00469,0.021737
1934,-0.01874,-0.00469,0.021737
1935,-0.01874,0.012055,0.021737
1936,0.000481,0.0288,-0.032611
1937,0.000481,0.0288,-0.050727
1938,0.000481,-0.00469,-0.014495
1939,0.000481,0.012055,-0.050727
1940,-0.01874,-0.00469,-0.014495
1941,0.000481,-0.038179,0.003621
1942,-0.01874,-0.021435,-0.014495
1943,-0.01874,-0.021435,-0.014495
1944,-0.01874,0.012055,0.039853
1945,0.000481,0.045545,-0.014495
1946,0.019703,0.0288,-0.032611
1947,0.000481,0.012055,0.021737
1948,-0.01874,0.012055,-0.050727
1949,0.000481,-0.021435,0.039853
1950,0.000481,-0.071669,0.057969
1951,0.019703,-0.071669,0.039853
1952,-0.01874,-0.054924,0.076085
1953,0.000481,-0.038179,0.039853
1954,0.000481,0.012055,0.003621
1955,0.019703,0.0288,-0.032611
1956,0.019703,0.06229,0.039853
1957,0.000481,0.095779,-0.014495
1958,0.000481,0.079034,-0.014495
1959,-0.01874,0.0288,0.021737
1960,-0.01874,0.0288,-0.014495
1961,-0.01874,0.012055,-0.014495
1962,0.000481,0.012055,-0.032611
1963,-0.01874,0.012055,-0.032611
1964,-0.01874,0.012055,-0.050727
1965,-0.01874,-0.038179,-0.086959
1966,-0.01874,-0.038179,-0.050727
1967,0.000481,-0.054924,-0.050727
1968,0.000481,-0.054924,0.003621
1969,0.019703,-0.00469,0.021737
1970,-0.01874,-0.038179,0.021737
1971,-0.01874,-0.00469,-0.014495
1972,-0.01874,0.0288,-0.014495
1973,0.000481,0.045545,0.003621
1974,0.000481,0.045545,0.003621
1975,0.019703,0.06229,0.003621
1976,0.000481,0.045545,0.057969
1977,0.019703,0.045545,0.039853
1978,0.000481,0.012055,0.021737
1979,-0.01874,-0.021435,0.076085
1980,-0.01874,-0.00469,0.039853
1981,0.000481,-0.00469,-0.032611
1982,0.019703,-0.00469,0.021737
1983,0.000481,0.012055,0.003621
1984,0.019703,0.045545,-0.014495
1985,0.000481,0.045545,-0.014495
1986,0.019703,0.0288,-0.032611
1987,0.000481,0.012055,0.021737
1988,0.000481,-0.00469,0.039853
1989,0.000481,0.0288,-0.050727
1990,0.000481,-0.00469,-0.050727
1991,0.000481,-0.021435,-0.014495
1992,0.000481,-0.021435,0.003621
1993,0.000481,0.012055,-0.014495
1994,0.019703,0.012055,0.039853
1995,-0.01874,-0.038179,-0.050727
1996,-0.01874,-0.021435,-0.014495
1997,-0.01874,-0.021435,0.003621
1998,0.000481,-0.00469,-0.014495
1999,0.000481,-0.00469,-0.050727
2000,-0.01874,-0.021435,-0.014495
2001,0.000481,-0.038179,-0.032611
2002,-0.01874,-0.021435,-0.032611
2003,0.000481,-0.021435,-0.032611
2004,0.019703,-0.00469,-0.050727
2005,0.000481,0.012055,-0.014495
2006,0.000481,0.012055,0.039853
2007,0.019703,0.012055,-0.050727
2008,0.000481,0.012055,0.039853
2009,-0.01874,-0.021435,0.021737
2010,0.000481,0.012055,-0.050727
2011,-0.01874,0.012055,-0.014495
2012,0.000481,-0.00469,0.003621
2013,0.000481,0.012055,-0.014495
2014,0.000481,0.012055,0.021737
2015,0.000481,0.012055,0.003621
2016,0.019703,-0.00469,-0.050727
2017,0.000481,-0.00469,0.021737
2018,-0.01874,-0.00469,0.003621
2019,-0.01874,-0.00469,-0.068843
2020,0.000481,-0.021435,0.003621
2021,0.000481,0.012055,-0.014495
2022,-0.01874,-0.00469,-0.032611
2023,-0.01874,-0.00469,0.021737
2024,-0.01874,0.012055,0.057969
2025,0.000481,-0.00469,0.021737
2026,-0.01874,0.012055,0.057969
2027,-0.01874,-0.00469,-0.032611
2028,0.000481,-0.00469,-0.032611
2029,0.000481,0.0288,0.057969
2030,0.019703,-0.021435,0.003621
2031,0.000481,0.012055,0.057969
2032,0.019703,-0.021435,0.021737
2033,-0.01874,0.012055,0.003621
2034,0.000481,-0.00469,0.021737
2035,-0.01874,0.012055,0.039853
2036,-0.01874,-0.00469,0.003621
2037,0.000481,0.012055,-0.014495
2038,0.000481,0.012055,-0.014495
2039,0.019703,0.012055,-0.032611
2040,0.000481,0.012055,0.003621
2041,-0.01874,0.0288,0.021737
2042,-0.01874,-0.00469,0.021737
2043,-0.01874,0.0288,0.003621
2044,-0.01874,-0.021435,0.003621
2045,0.000481,-0.00469,-0.014495
2046,0.000481,-0.00469,-0.032611
2047,0.000481,-0.021435,0.003621
2048,-0.01874,-0.00469,-0.050727
2049,-0.01874,-0.021435,0.021737
2050,0.000481,0.079034,0.039853
2051,0.000481,0.012055,0.021737
2052,0.019703,0.012055,0.021737
2053,-0.01874,-0.038179,0.021737
2054,0.019703,-0.00469,0.003621
2055,0.000481,-0.038179,-0.032611
2056,0.019703,-0.00469,0.003621
2057,-0.01874,-0.021435,-0.032611
2058,-0.01874,-0.00469,0.003621
2059,-0.01874,0.012055,0.003621
2060,0.000481,0.0288,0.003621
2061,0.000481,0.012055,0.021737
2062,-0.01874,0.045545,0.003621
2063,0.000481,0.0288,-0.032611
2064,0.000481,0.012055,-0.032611
2065,0.000481,0.012055,0.003621
2066,-0.01874,0.012055,-0.032611
2067,0.000481,0.045545,-0.014495
2068,-0.01874,-0.021435,-0.032611
2069,-0.037962,-0.021435,-0.032611
2070,-0.01874,-0.00469,0.057969
2071,0.000481,-0.00469,0.057969
2072,-0.01874,0.0288,-0.014495
2073,0.000481,0.012055,0.003621
2074,0.000481,-0.00469,-0.014495
2075,0.000481,-0.00469,0.039853
2076,0.000481,-0.00469,0.076085
2077,-0.037962,0.012055,0.057969
2078,0.000481,0.0288,0.003621
2079,0.000481,-0.00469,0.021737
2080,-0.037962,0.0288,-0.032611
2081,-0.037962,-0.021435,-0.014495
2082,-0.01874,-0.00469,-0.014495
2083,-0.01874,-0.00469,-0.032611
2084,-0.037962,-0.021435,0.003621
2085,-0.01874,-0.00469,0.021737
2086,-0.01874,0.0288,0.003621
2087,-0.01874,-0.021435,-0.032611
2088,0.019703,-0.038179,0.021737
2089,0.000481,-0.038179,0.003621
2090,0.000481,-0.071669,0.021737
2091,0.000481,-0.038179,0.003621
2092,0.019703,-0.071669,-0.050727
2093,0.000481,-0.00469,0.003621
2094,0.019703,0.0288,0.039853
2095,-0.01874,0.06229,0.021737
2096,-0.01874,0.112524,0.076085
2097,-0.01874,0.0288,0.003621
2098,0.000481,0.045545,-0.014495
2099,0.019703,-0.021435,-0.014495
2100,0.000481,-0.021435,0.003621
2101,0.000481,-0.021435,-0.014495
2102,-0.01874,0.012055,0.003621
2103,-0.037962,-0.021435,0.003621
2104,0.000481,0.0288,-0.014495
2105,0.000481,0.06229,0.021737
2106,-0.037962,0.079034,-0.014495
2107,-0.01874,0.06229,-0.014495
2108,0.000481,0.0288,-0.032611
2109,-0.01874,-0.021435,0.021737
2110,0.000481,-0.054924,-0.050727
2111,0.019703,0.012055,0.003621
2112,0.019703,0.012055,0.021737
2113,0.019703,-0.021435,0.003621
2114,-0.01874,-0.00469,0.021737
2115,0.000481,-0.00469,0.003621
2116,0.000481,-0.021435,-0.032611
2117,0.019703,0.012055,-0.032611
2118,-0.01874,-0.00469,-0.032611
2119,-0.037962,0.012055,-0.050727
2120,0.000481,-0.021435,-0.014495
2121,0.000481,-0.038179,0.057969
2122,0.000481,0.012055,-0.032611
2123,0.000481,0.012055,0.057969
2124,0.000481,-0.00469,0.021737
2125,-0.01874,-0.021435,-0.032611
2126,0.000481,-0.00469,0.003621
2127,-0.01874,-0.054924,-0.032611
2128,-0.037962,-0.00469,0.021737
2129,0.000481,-0.00469,0.003621
2130,0.019703,0.012055,0.039853
2131,0.000481,-0.00469,-0.014495
2132,-0.037962,0.012055,0.057969
2133,-0.01874,-0.00469,0.003621
2134,-0.01874,0.0288,-0.032611
2135,-0.01874,-0.00469,0.003621
2136,0.000481,-0.00469,-0.032611
2137,0.000481,-0.00469,-0.014495
2138,0.019703,-0.021435,0.003621
2139,-0.01874,0.0288,0.021737
2140,0.019703,-0.00469,0.039853
2141,-0.01874,-0.00469,0.021737
2142,0.019703,0.012055,-0.032611
2143,0.000481,-0.00469,-0.068843
2144,0.000481,0.045545,-0.014495
2145,0.038924,-0.021435,-0.032611
2146,0.000481,0.012055,0.039853
2147,-0.01874,-0.00469,0.039853
2148,0.000481,-0.00469,0.021737
2149,-0.01874,-0.00469,0.039853
2150,0.000481,-0.021435,0.039853
2151,0.000481,-0.00469,-0.014495
2152,0.058146,0.012055,-0.032611
2153,0.019703,-0.00469,0.003621
2154,0.019703,0.012055,-0.050727
2155,0.000481,-0.00469,-0.014495
2156,-0.01874,-0.00469,0.003621
2157,0.000481,-0.021435,-0.014495
2158,0.038924,0.0288,0.003621
2159,0.000481,0.0288,-0.032611
2160,0.019703,-0.00469,-0.032611
2161,0.000481,-0.00469,-0.032611
2162,0.019703,0.0288,0.021737
2163,0.000481,0.012055,0.003621
2164,0.019703,0.0288,0.003621
2165,-0.01874,-0.021435,0.003621
2166,-0.037962,-0.021435,0.003621
2167,-0.037962,-0.021435,0.003621
2168,-0.01874,0.0288,-0.032611
2169,0.019703,-0.00469,-0.014495
2170,-0.01874,-0.00469,0.003621
2171,-0.01874,-0.021435,-0.050727
2172,0.000481,-0.00469,0.003621
2173,0.038924,0.012055,0.076085
2174,0.019703,0.012055,0.057969
2175,0.000481,-0.00469,0.003621
2176,0.000481,-0.00469,0.039853
2177,-0.01874,0.012055,-0.032611
2178,0.000481,0.012055,-0.032611
2179,0.000481,0.045545,0.021737
2180,0.000481,-0.021435,0.003621
2181,-0.01874,-0.00469,-0.014495
2182,-0.01874,0.012055,0.003621
2183,0.000481,-0.00469,-0.032611
2184,0.000481,-0.021435,0.021737
2185,0.000481,-0.00469,-0.014495
2186,-0.01874,-0.00469,0.003621
2187,-0.01874,-0.00469,-0.032611
2188,0.000481,-0.00469,0.003621
2189,0.000481,-0.00469,-0.050727
2190,0.019703,-0.00469,-0.014495
2191,-0.01874,-0.054924,-0.014495
2192,-0.037962,-0.071669,-0.068843
2193,-0.01874,-0.071669,0.021737
2194,0.000481,-0.071669,-0.032611
2195,-0.01874,-0.088414,-0.068843
2196,-0.01874,-0.038179,-0.032611
2197,0.019703,0.0288,0.039853
2198,0.019703,0.045545,0.039853
2199,-0.01874,0.06229,0.076085
2200,0.000481,0.045545,0.094201
2201,0.019703,0.079034,0.021737
2202,0.019703,0.095779,0.076085
2203,0.000481,0.06229,0.021737
2204,0.019703,0.06229,-0.014495
2205,0.019703,0.06229,-0.032611
2206,0.000481,-0.00469,-0.050727
2207,0.000481,-0.00469,-0.050727
2208,-0.037962,0.012055,-0.032611
2209,-0.01874,0.0288,-0.032611
2210,0.000481,0.045545,-0.050727
2211,-0.01874,0.012055,0.003621
2212,-0.01874,-0.00469,-0.032611
2213,-0.01874,0.012055,0.003621
2214,-0.037962,0.012055,0.003621
2215,0.000481,0.045545,-0.014495
2216,-0.01874,0.012055,0.003621
2217,-0.01874,-0.00469,0.057969
2218,0.000481,0.0288,-0.014495
2219,0.019703,0.012055,-0.032611
2220,0.019703,0.012055,0.021737
2221,0.019703,-0.021435,0.003621
2222,-0.01874,0.012055,0.021737
2223,-0.01874,0.012055,0.039853
2224,0.000481,-0.00469,0.003621
2225,-0.01874,0.012055,0.021737
2226,0.019703,-0.00469,0.021737
2227,0.000481,0.012055,0.003621
2228,0.000481,-0.038179,0.039853
2229,-0.01874,-0.021435,-0.014495
2230,0.019703,-0.00469,-0.050727
2231,0.000481,-0.00469,0.003621
2232,0.000481,-0.00469,-0.014495
2233,0.019703,0.012055,-0.032611
2234,0.000481,-0.021435,-0.032611
2235,0.000481,-0.00469,0.003621
2236,-0.01874,-0.00469,-0.014495
2237,-0.037962,-0.021435,0.003621
2238,-0.01874,-0.00469,-0.032611
2239,0.000481,0.012055,-0.068843
2240,0.000481,-0.00469,-0.014495
2241,-0.01874,-0.00469,0.003621
2242,0.000481,-0.021435,-0.050727
2243,-0.01874,-0.00469,-0.014495
2244,0.000481,-0.00469,-0.032611
2245,0.000481,-0.00469,-0.032611
2246,-0.01874,-0.054924,0.003621
2247,0.000481,-0.00469,-0.014495
2248,0.000481,-0.00469,0.039853
2249,-0.01874,0.0288,0.057969
2250,0.000481,0.0288,0.021737
2251,0.000481,0.045545,0.057969
2252,0.000481,0.0288,0.076085
2253,-0.01874,0.0288,0.076085
2254,0.019703,0.0288,0.094201
2255,0.000481,0.012055,0.039853
2256,0.019703,-0.00469,0.021737
2257,0.000481,0.012055,0.003621
2258,0.000481,0.012055,0.021737
2259,0.000481,0.0288,0.021737
2260,0.000481,-0.00469,0.021737
2261,0.000481,-0.00469,-0.014495
2262,-0.037962,-0.00469,-0.068843
2263,-0.037962,-0.021435,-0.050727
2264,-0.01874,-0.021435,-0.050727
2265,-0.037962,-0.021435,-0.068843
2266,0.000481,-0.00469,-0.014495
2267,0.000481,-0.021435,0.021737
2268,0.000481,0.012055,-0.032611
2269,-0.01874,0.012055,0.003621
2270,-0.01874,0.012055,0.003621
2271,0.000481,0.012055,-0.050727
2272,-0.01874,0.012055,-0.050727
2273,0.000481,-0.00469,-0.050727
2274,0.000481,-0.00469,-0.032611
2275,0.000481,0.012055,0.003621
2276,0.019703,-0.00469,0.021737
2277,0.000481,0.012055,-0.014495
2278,0.019703,-0.00469,0.039853
2279,-0.037962,-0.038179,0.039853
2280,-0.01874,0.012055,-0.032611
2281,0.000481,-0.00469,-0.014495
2282,0.000481,-0.00469,-0.050727
2283,-0.01874,-0.00469,0.039853
2284,0.000481,-0.00469,0.003621
2285,0.019703,-0.00469,0.039853
2286,0.000481,0.0288,0.021737
2287,0.000481,-0.00469,0.057969
2288,-0.01874,-0.00469,0.003621
2289,0.000481,-0.021435,-0.014495
2290,0.000481,-0.021435,-0.032611
2291,0.000481,-0.021435,-0.032611
2292,0.019703,0.06229,-0.014495
2293,0.000481,0.0288,0.021737
2294,0.000481,0.012055,-0.050727
2295,-0.037962,-0.071669,0.003621
2296,-0.01874,-0.038179,-0.050727
2297,-0.01874,-0.038179,-0.032611
2298,-0.037962,-0.021435,-0.032611
2299,-0.01874,-0.021435,0.003621
2300,0.000481,-0.00469,-0.032611
2301,0.000481,-0.038179,0.021737
2302,0.000481,-0.054924,0.057969
2303,0.000481,-0.038179,0.057969
2304,-0.01874,-0.038179,0.039853
2305,0.000481,-0.038179,0.057969
2306,-0.01874,-0.00469,0.003621
2307,-0.01874,0.012055,0.021737
2308,0.000481,0.06229,-0.014495
2309,0.000481,0.162759,-0.032611
2310,0.019703,0.112524,0.003621
2311,0.000481,0.045545,0.003621
2312,0.000481,0.012055,0.021737
2313,0.000481,0.012055,0.039853
2314,0.000481,0.045545,0.021737
2315,0.000481,0.0288,0.003621
2316,0.000481,0.0288,0.021737
2317,0.019703,0.012055,0.003621
2318,0.000481,-0.00469,-0.014495
2319,0.000481,0.0288,0.021737
2320,0.019703,0.012055,0.003621
2321,0.000481,0.012055,0.003621
2322,-0.01874,-0.00469,0.021737
2323,0.019703,-0.00469,0.021737
2324,0.000481,0.012055,-0.068843
2325,0.000481,-0.00469,-0.050727
2326,0.000481,-0.00469,-0.014495
2327,0.000481,0.012055,-0.050727
2328,-0.01874,-0.021435,0.021737
2329,0.000481,-0.021435,0.003621
2330,0.000481,-0.038179,0.021737
2331,0.019703,-0.038179,-0.014495
2332,0.000481,-0.021435,-0.050727
2333,0.000481,-0.00469,-0.032611
2334,0.000481,-0.00469,-0.050727
2335,0.000481,-0.021435,-0.032611
2336,0.019703,-0.00469,0.003621
2337,0.019703,0.012055,0.021737
2338,-0.01874,-0.038179,0.003621
2339,-0.01874,-0.00469,-0.014495
2340,-0.01874,-0.00469,-0.032611
2341,0.019703,-0.021435,-0.032611
2342,0.000481,-0.021435,0.094201
2343,-0.01874,-0.00469,-0.032611
2344,-0.01874,-0.021435,0.021737
2345,-0.01874,-0.00469,0.021737
2346,0.000481,-0.00469,0.039853
2347,-0.01874,-0.00469,0.003621
2348,0.000481,0.012055,0.039853
2349,-0.01874,-0.00469,-0.014495
2350,-0.037962,-0.021435,-0.014495
2351,0.019703,-0.038179,0.021737
2352,0.019703,-0.021435,-0.032611
2353,0.019703,-0.00469,0.003621
2354,0.000481,0.012055,0.003621
2355,0.000481,-0.00469,-0.032611
2356,-0.01874,-0.00469,0.003621
2357,-0.01874,0.012055,0.021737
2358,-0.037962,0.0288,-0.032611
2359,-0.037962,0.012055,-0.050727
2360,0.000481,-0.00469,0.003621
2361,0.000481,-0.021435,-0.032611
2362,0.019703,-0.021435,0.003621
2363,-0.01874,-0.00469,0.039853
2364,-0.01874,-0.00469,0.039853
2365,0.019703,-0.00469,0.057969
2366,0.000481,-0.00469,0.021737
2367,0.000481,0.012055,0.021737
2368,-0.01874,0.012055,0.003621
2369,0.000481,0.012055,-0.014495
2370,0.000481,-0.00469,-0.050727
2371,0.000481,-0.00469,0.003621
2372,0.000481,-0.021435,0.003621
2373,0.000481,-0.00469,-0.014495
2374,0.000481,-0.021435,0.003621
2375,0.019703,-0.00469,-0.014495
2376,-0.037962,-0.00469,-0.014495
2377,0.000481,-0.021435,0.003621
2378,-0.01874,-0.00469,-0.032611
2379,0.000481,-0.021435,0.003621
2380,0.019703,0.079034,0.021737
2381,0.000481,0.012055,0.039853
2382,0.038924,-0.00469,0.021737
2383,0.000481,-0.00469,0.003621
2384,0.000481,-0.00469,0.003621
2385,-0.01874,0.012055,-0.032611
2386,-0.01874,-0.021435,-0.032611
2387,0.019703,-0.021435,-0.032611
2388,-0.01874,-0.021435,-0.014495
2389,0.000481,-0.021435,0.057969
2390,-0.01874,-0.00469,0.021737
2391,0.000481,0.012055,0.021737
2392,0.000481,-0.00469,0.039853
2393,0.019703,-0.00469,0.021737
2394,-0.01874,-0.021435,-0.014495
2395,0.000481,-0.00469,0.003621
2396,0.000481,-0.021435,-0.032611
2397,0.000481,-0.021435,0.003621
2398,0.000481,0.012055,0.003621
2399,-0.01874,-0.021435,-0.014495
2400,-0.01874,-0.00469,0.021737
2401,0.000481,-0.021435,0.021737
2402,0.000481,-0.00469,-0.014495
2403,0.000481,-0.00469,-0.068843
2404,0.000481,0.0288,-0.014495
2405,-0.01874,0.012055,-0.032611
2406,0.000481,-0.00469,0.003621
2407,0.000481,-0.00469,0.039853
2408,-0.01874,-0.021435,-0.050727
2409,-0.01874,-0.00469,-0.014495
2410,0.019703,-0.00469,-0.050727
2411,-0.01874,-0.00469,-0.050727
2412,-0.01874,-0.021435,-0.050727
2413,0.000481,-0.00469,-0.014495
2414,0.000481,0.012055,0.021737
2415,0.000481,-0.00469,0.057969
2416,0.000481,-0.021435,0.094201
2417,0.000481,-0.054924,0.076085
2418,0.000481,-0.071669,0.112317
2419,-0.01874,-0.054924,0.039853
2420,-0.01874,-0.054924,-0.050727
2421,-0.01874,-0.038179,-0.014495
2422,-0.01874,-0.00469,-0.032611
2423,0.000481,0.0288,0.021737
2424,0.000481,0.045545,0.057969
2425,0.019703,0.112524,0.003621
2426,-0.01874,0.079034,0.039853
2427,0.000481,0.079034,0.057969
2428,0.000481,0.0288,0.003621
2429,-0.01874,-0.00469,-0.014495
2430,-0.01874,0.0288,0.003621
2431,-0.01874,-0.021435,-0.014495
2432,0.000481,-0.021435,-0.014495
2433,0.000481,-0.038179,0.057969
2434,-0.01874,-0.021435,-0.014495
2435,-0.01874,-0.00469,0.003621
2436,-0.01874,-0.021435,-0.014495
2437,-0.01874,0.012055,-0.050727
2438,0.019703,0.0288,-0.086959
2439,0.000481,0.012055,-0.050727
2440,-0.01874,-0.021435,-0.068843
2441,-0.01874,0.0288,-0.014495
2442,-0.01874,-0.021435,-0.014495
2443,0.000481,-0.00469,-0.014495
2444,0.000481,-0.00469,0.021737
2445,0.000481,0.012055,0.003621
2446,-0.01874,-0.038179,-0.014495
2447,-0.01874,0.012055,-0.032611
2448,-0.01874,-0.00469,0.021737
2449,-0.01874,-0.00469,-0.014495
2450,0.000481,-0.00469,0.021737
2451,0.019703,-0.00469,0.021737
2452,0.000481,0.012055,-0.032611
2453,0.000481,0.0288,0.039853
2454,-0.01874,0.0288,0.039853
2455,0.000481,0.012055,0.003621
2456,0.019703,-0.00469,-0.014495
2457,0.000481,0.012055,-0.014495
2458,0.019703,-0.021435,0.003621
2459,-0.01874,-0.021435,0.003621
2460,0.019703,-0.00469,0.003621
2461,0.000481,-0.00469,-0.050727
2462,-0.01874,-0.021435,-0.032611
2463,0.000481,-0.00469,-0.014495
2464,0.000481,0.012055,-0.068843
2465,0.000481,-0.00469,-0.068843
2466,-0.037962,-0.00469,-0.068843
2467,0.000481,-0.038179,-0.050727
2468,-0.01874,-0.021435,0.003621
2469,0.000481,-0.021435,0.076085
2470,-0.01874,-0.00469,0.057969
2471,0.000481,0.0288,0.076085
2472,0.000481,-0.00469,0.057969
2473,0.000481,0.012055,0.057969
2474,0.000481,0.012055,0.076085
2475,0.019703,0.012055,0.021737
2476,0.000481,0.0288,0.021737
2477,0.000481,0.0288,0.021737
2478,0.000481,-0.00469,0.021737
2479,0.000481,0.012055,0.003621
2480,0.019703,-0.00469,0.039853
2481,0.000481,0.0288,-0.050727
2482,0.000481,-0.00469,-0.032611
2483,0.000481,-0.00469,0.021737
2484,0.000481,-0.021435,0.003621
2485,0.000481,-0.00469,0.003621
2486,-0.01874,-0.00469,0.003621
2487,0.019703,0.012055,-0.014495
2488,0.019703,-0.00469,0.021737
2489,-0.01874,0.012055,-0.014495
2490,-0.01874,-0.00469,-0.014495
2491,0.019703,-0.021435,-0.032611
2492,0.000481,-0.021435,-0.032611
2493,0.019703,0.0288,-0.032611
2494,0.000481,0.0288,0.021737
2495,0.000481,0.012055,0.039853
2496,0.000481,-0.00469,-0.014495
2497,0.000481,-0.00469,0.057969
2498,0.000481,-0.00469,0.021737
2499,0.019703,-0.021435,-0.014495
2500,0.000481,-0.00469,0.003621
2501,-0.01874,-0.00469,0.003621
2502,0.000481,-0.00469,-0.014495
2503,0.019703,0.012055,0.003621
2504,0.019703,0.012055,-0.014495
2505,-0.01874,0.012055,0.021737
2506,-0.01874,0.0288,0.039853
2507,0.000481,-0.021435,-0.014495
2508,0.000481,-0.00469,0.003621
2509,0.019703,-0.00469,-0.050727
2510,0.000481,0.012055,-0.032611
2511,-0.01874,0.012055,-0.068843
2512,-0.01874,-0.021435,-0.032611
2513,-0.01874,0.012055,-0.032611
2514,-0.01874,-0.021435,-0.032611
2515,-0.037962,-0.00469,-0.032611
2516,0.000481,-0.021435,-0.050727
2517,-0.01874,0.012055,-0.050727
2518,0.000481,-0.00469,-0.032611
2519,-0.01874,-0.00469,0.003621
2520,0.000481,0.012055,-0.032611
2521,0.038924,-0.00469,0.057969
2522,0.019703,0.012055,0.112317
2523,0.019703,0.0288,0.076085
2524,0.000481,0.012055,0.112317
2525,0.000481,0.0288,0.076085
2526,0.000481,0.012055,0.003621
2527,0.000481,0.0288,0.003621
2528,0.000481,0.045545,0.003621
2529,0.000481,0.079034,-0.050727
2530,-0.01874,-0.00469,-0.014495
2531,-0.01874,-0.00469,0.003621
2532,0.000481,-0.00469,-0.032611
2533,0.000481,0.0288,0.021737
2534,0.000481,0.012055,-0.014495
2535,-0.01874,0.012055,-0.014495
2536,0.000481,-0.00469,-0.068843
2537,0.000481,-0.038179,-0.032611
2538,-0.037962,0.012055,-0.068843
2539,0.019703,-0.00469,0.003621
2540,-0.037962,0.012055,0.021737
2541,0.000481,0.012055,0.039853
2542,-0.01874,-0.021435,0.021737
2543,0.019703,0.012055,0.003621
2544,0.000481,0.012055,-0.014495
2545,0.038924,0.012055,0.003621
2546,-0.01874,0.012055,-0.032611
2547,0.000481,-0.00469,-0.014495
2548,-0.01874,0.012055,-0.032611
2549,0.000481,-0.00469,0.021737
2550,0.000481,0.012055,0.021737
2551,0.038924,0.012055,0.021737
2552,0.000481,-0.00469,-0.014495
2553,-0.01874,-0.021435,0.003621
2554,0.000481,0.012055,-0.014495
2555,0.000481,-0.00469,-0.068843
2556,0.019703,0.012055,0.003621
2557,0.000481,-0.00469,0.021737
2558,-0.01874,-0.021435,0.021737
2559,0.000481,-0.00469,0.039853
2560,-0.01874,0.0288,0.021737
2561,0.019703,-0.00469,-0.014495
2562,0.000481,-0.00469,-0.032611
2563,0.000481,0.012055,-0.014495
2564,-0.01874,-0.00469,-0.014495
2565,-0.01874,0.045545,-0.032611
2566,0.000481,-0.00469,0.003621
2567,-0.01874,0.012055,-0.014495
2568,0.000481,-0.00469,0.003621
2569,0.000481,-0.021435,0.003621
2570,-0.01874,-0.00469,0.021737
2571,0.000481,-0.00469,-0.014495
2572,0.019703,-0.00469,-0.032611
2573,-0.01874,0.0288,-0.032611
2574,-0.01874,0.012055,-0.050727
2575,-0.01874,0.012055,0.003621
2576,0.000481,-0.00469,0.003621
2577,0.000481,-0.00469,-0.014495
2578,-0.01874,-0.021435,0.039853
2579,0.000481,-0.00469,-0.032611
2580,0.000481,-0.038179,-0.032611
2581,0.000481,-0.00469,-0.014495
2582,0.000481,-0.00469,-0.032611
2583,0.019703,-0.021435,-0.032611
2584,-0.037962,-0.00469,0.021737
2585,-0.01874,-0.021435,0.003621
2586,-0.01874,-0.00469,0.021737
2587,0.000481,0.012055,0.057969
2588,0.000481,0.012055,0.021737
2589,0.019703,0.012055,0.094201
2590,0.038924,0.0288,0.021737
2591,-0.01874,0.0288,0.021737
2592,0.000481,0.0288,0.057969
2593,0.019703,0.012055,0.094201
2594,-0.01874,0.012055,0.021737
2595,-0.01874,0.012055,0.021737
2596,-0.01874,-0.00469,0.021737
2597,-0.01874,-0.00469,-0.014495
2598,0.019703,-0.038179,-0.014495
2599,-0.01874,-0.071669,-0.014495
2600,-0.01874,-0.038179,-0.032611
2601,0.000481,-0.054924,-0.032611
2602,0.000481,-0.00469,-0.014495
2603,-0.01874,0.012055,-0.032611
2604,0.000481,-0.00469,-0.014495
2605,0.000481,0.0288,0.003621
2606,0.000481,0.06229,0.003621
2607,-0.01874,0.095779,0.021737
2608,-0.01874,0.0288,-0.050727
2609,0.000481,0.045545,0.003621
2610,-0.01874,0.0288,0.039853
2611,0.019703,0.012055,-0.014495
2612,0.000481,0.045545,0.021737
2613,0.000481,-0.00469,0.057969
2614,-0.037962,0.012055,0.039853
2615,0.000481,0.045545,0.003621
2616,0.000481,-0.00469,-0.014495
2617,0.000481,0.012055,0.003621
2618,0.000481,0.012055,0.003621
2619,0.000481,0.0288,0.003621
2620,-0.01874,0.012055,-0.014495
2621,0.019703,-0.021435,-0.032611
2622,0.019703,0.012055,0.057969
2623,0.019703,0.012055,-0.014495
2624,0.019703,-0.00469,0.003621
2625,0.000481,-0.00469,-0.014495
2626,-0.01874,-0.021435,0.003621
2627,0.019703,-0.00469,-0.050727
2628,-0.037962,-0.00469,-0.032611
2629,-0.01874,0.012055,-0.050727
2630,0.000481,0.0288,-0.032611
2631,0.019703,0.012055,-0.014495
2632,0.000481,-0.00469,-0.032611
2633,0.019703,-0.00469,0.003621
2634,0.000481,0.012055,-0.032611
2635,-0.01874,0.012055,-0.050727
2636,0.000481,0.012055,-0.014495
2637,-0.01874,-0.021435,-0.014495
2638,0.000481,-0.00469,-0.050727
2639,-0.01874,-0.00469,-0.014495
2640,0.000481,-0.021435,0.057969
2641,-0.01874,-0.00469,0.003621
2642,-0.037962,0.012055,0.021737
2643,0.000481,0.0288,0.003621
2644,0.000481,0.045545,-0.014495
2645,-0.01874,0.012055,0.021737
2646,-0.01874,-0.021435,0.021737
2647,-0.01874,0.012055,-0.032611
2648,-0.01874,-0.021435,0.057969
2649,0.000481,0.012055,0.039853
2650,-0.01874,0.0288,0.003621
2651,-0.01874,-0.00469,0.039853
2652,0.000481,0.0288,-0.014495
2653,-0.01874,-0.00469,-0.014495
2654,-0.01874,-0.021435,-0.014495
2655,0.000481,-0.00469,-0.014495
2656,0.019703,0.012055,-0.014495
2657,0.000481,-0.00469,-0.014495
2658,0.000481,-0.00469,0.003621
2659,0.000481,0.012055,-0.014495
2660,0.000481,-0.021435,0.021737
2661,-0.01874,-0.021435,-0.032611
2662,-0.01874,-0.00469,-0.032611
2663,0.000481,-0.00469,-0.014495
2664,0.000481,-0.00469,-0.032611
2665,0.000481,0.012055,0.003621
2666,0.000481,0.012055,0.039853
2667,0.000481,-0.00469,0.039853
2668,-0.037962,0.012055,-0.014495
2669,-0.01874,-0.00469,0.003621
2670,0.000481,-0.021435,-0.032611
2671,0.000481,-0.021435,-0.032611
2672,-0.01874,-0.00469,-0.014495
2673,0.000481,0.012055,-0.050727
2674,0.000481,0.0288,-0.014495
2675,0.019703,-0.00469,0.003621
2676,0.000481,-0.00469,0.003621
2677,0.000481,0.012055,0.021737
2678,0.000481,0.045545,0.039853
2679,-0.037962,-0.00469,-0.014495
2680,0.000481,-0.021435,-0.032611
2681,0.000481,-0.00469,0.021737
2682,0.000481,0.012055,-0.032611
2683,0.019703,0.0288,0.003621
2684,0.000481,0.012055,-0.014495
2685,-0.037962,-0.021435,0.003621
2686,-0.01874,-0.00469,0.021737
2687,0.019703,-0.00469,0.021737
2688,0.000481,-0.00469,0.039853
2689,0.000481,0.012055,-0.014495
2690,0.000481,0.012055,0.039853
2691,-0.01874,0.012055,0.003621
2692,0.000481,-0.00469,0.039853
2693,0.000481,-0.038179,0.021737
2694,-0.01874,-0.071669,-0.014495
2695,-0.01874,-0.038179,0.021737
2696,-0.037962,-0.038179,-0.014495
2697,-0.01874,-0.071669,0.003621
2698,-0.037962,-0.071669,-0.068843
2699,-0.01874,-0.038179,-0.014495
2700,0.000481,0.012055,-0.086959
2701,0.000481,0.095779,-0.014495
2702,-0.01874,0.112524,0.003621
2703,0.000481,0.079034,0.094201
2704,-0.01874,0.06229,0.003621
2705,0.000481,0.06229,0.003621
2706,-0.01874,0.06229,-0.050727
2707,0.000481,0.012055,-0.014495
2708,0.000481,-0.021435,0.003621
2709,-0.01874,-0.021435,-0.032611
2710,0.000481,-0.021435,-0.032611
2711,-0.01874,0.0288,0.021737
2712,-0.01874,0.012055,0.021737
2713,0.019703,0.012055,0.021737
2714,0.000481,0.045545,-0.014495
2715,0.000481,0.0288,0.003621
2716,0.000481,0.0288,-0.014495
2717,0.019703,0.012055,0.021737
2718,0.000481,0.0288,-0.014495
2719,0.000481,0.012055,-0.014495
2720,0.000481,-0.00469,0.057969
2721,0.000481,0.012055,0.021737
2722,0.000481,0.012055,0.057969
2723,0.000481,-0.00469,0.003621
2724,-0.01874,-0.00469,-0.032611
2725,-0.037962,-0.00469,-0.014495
2726,-0.01874,-0.00469,-0.014495
2727,-0.01874,0.012055,-0.014495
2728,-0.01874,-0.00469,-0.014495
2729,0.019703,-0.00469,0.021737
2730,-0.01874,-0.00469,0.003621
2731,-0.01874,-0.00469,0.003621
2732,-0.01874,-0.00469,-0.014495
2733,0.000481,-0.00469,-0.014495
2734,0.000481,-0.00469,0.021737
2735,0.019703,-0.00469,-0.032611
2736,0.019703,-0.021435,0.003621
2737,0.000481,-0.00469,0.021737
2738,0.000481,0.012055,0.003621
2739,0.000481,-0.00469,0.021737
2740,0.000481,0.0288,0.021737
2741,0.000481,-0.00469,-0.032611
2742,0.000481,-0.021435,-0.050727
2743,0.000481,-0.00469,-0.032611
2744,0.000481,-0.00469,-0.032611
2745,0.000481,0.012055,-0.014495
2746,0.000481,-0.038179,0.003621
2747,-0.01874,-0.00469,-0.014495
2748,0.019703,0.012055,0.003621
2749,0.000481,-0.00469,0.003621
2750,0.000481,0.012055,-0.068843
2751,0.019703,0.0288,-0.068843
2752,0.019703,0.012055,-0.014495
2753,-0.01874,-0.00469,-0.032611
2754,-0.037962,-0.021435,-0.050727
2755,-0.01874,-0.021435,-0.014495
2756,0.000481,-0.021435,-0.032611
2757,-0.01874,-0.00469,0.003621
2758,0.000481,-0.00469,0.003621
2759,0.000481,0.012055,-0.032611
2760,0.000481,-0.00469,0.003621
2761,0.000481,0.012055,-0.032611
2762,-0.037962,-0.00469,-0.014495
2763,0.000481,0.012055,0.057969
2764,0.000481,-0.00469,0.094201
2765,-0.01874,-0.00469,0.057969
2766,0.000481,0.012055,0.057969
2767,-0.01874,0.012055,0.003621
2768,-0.01874,0.012055,0.003621
2769,-0.01874,-0.00469,0.021737
2770,0.000481,0.0288,-0.014495
2771,-0.01874,-0.00469,0.021737
2772,0.019703,0.012055,0.003621
2773,0.019703,0.012055,0.021737
2774,0.019703,-0.00469,0.039853
2775,-0.01874,0.012055,0.021737
2776,0.000481,-0.021435,-0.032611
2777,0.000481,-0.00469,-0.086959
2778,-0.01874,-0.00469,-0.014495
2779,0.000481,-0.00469,-0.050727
2780,-0.01874,-0.00469,-0.032611
2781,0.000481,-0.038179,0.003621
2782,0.000481,-0.00469,-0.032611
2783,0.000481,-0.00469,0.003621
2784,0.000481,-0.021435,0.003621
2785,0.000481,-0.00469,-0.032611
2786,-0.01874,-0.021435,-0.032611
2787,-0.01874,-0.021435,0.021737
2788,0.000481,-0.00469,0.021737
2789,0.000481,0.012055,0.057969
2790,0.019703,-0.00469,0.003621
2791,0.000481,0.012055,0.003621
2792,0.019703,0.0288,0.039853
2793,0.000481,0.045545,0.003621
2794,-0.01874,0.012055,-0.032611
2795,-0.01874,0.012055,-0.068843
2796,-0.037962,-0.00469,-0.032611
2797,-0.01874,-0.021435,-0.050727
2798,0.019703,-0.021435,0.003621
2799,0.019703,-0.00469,0.039853
2800,-0.01874,0.012055,-0.014495
2801,-0.01874,0.012055,0.021737
2802,-0.01874,0.0288,0.003621
2803,0.000481,0.0288,-0.014495
2804,0.019703,-0.00469,-0.014495
2805,0.000481,0.0288,-0.032611
2806,-0.01874,-0.00469,0.003621
2807,0.019703,-0.00469,0.003621
2808,0.000481,-0.00469,0.021737
2809,-0.01874,-0.021435,0.003621
2810,-0.037962,-0.00469,0.003621
2811,0.000481,-0.00469,0.021737
2812,0.000481,0.012055,-0.014495
2813,0.000481,0.0288,-0.032611
2814,0.000481,-0.00469,-0.032611
2815,-0.01874,-0.00469,0.021737
2816,-0.01874,-0.00469,0.039853
2817,0.000481,-0.00469,0.039853
2818,0.000481,-0.00469,0.057969
2819,0.000481,-0.00469,0.021737
2820,0.000481,0.0288,0.021737
2821,0.000481,0.012055,-0.014495
2822,-0.01874,0.0288,-0.014495
2823,0.019703,-0.021435,-0.014495
2824,0.000481,-0.00469,0.003621
2825,0.000481,0.012055,0.021737
2826,0.000481,-0.021435,-0.014495
2827,0.000481,0.012055,0.039853
2828,0.000481,-0.00469,-0.014495
2829,-0.01874,0.012055,-0.050727
2830,0.019703,0.0288,-0.014495
2831,-0.037962,0.012055,-0.032611
2832,0.000481,0.0288,-0.050727
2833,0.000481,-0.021435,-0.014495
2834,-0.01874,-0.00469,0.003621
2835,-0.037962,-0.00469,-0.068843
2836,0.000481,-0.021435,-0.014495
2837,0.000481,-0.038179,-0.032611
2838,0.000481,-0.021435,-0.068843
2839,0.000481,-0.00469,-0.014495
2840,-0.01874,-0.00469,-0.050727
2841,-0.01874,-0.021435,0.039853
2842,-0.01874,-0.00469,0.039853
2843,0.000481,-0.00469,0.076085
2844,-0.01874,-0.00469,0.039853
2845,0.019703,0.012055,0.076085
2846,0.000481,0.012055,0.021737
2847,0.000481,0.012055,-0.014495
2848,0.019703,0.0288,0.039853
2849,0.019703,0.012055,0.003621
2850,0.000481,0.0288,0.057969
2851,0.000481,0.0288,0.039853
2852,0.019703,0.0288,0.003621
2853,0.000481,0.012055,0.057969
2854,-0.01874,-0.021435,0.003621
2855,0.000481,-0.00469,-0.014495
2856,0.000481,-0.054924,-0.014495
2857,0.000481,-0.021435,0.021737
2858,-0.01874,-0.00469,-0.032611
2859,-0.01874,0.012055,-0.032611
2860,0.000481,0.012055,0.003621
2861,0.000481,0.0288,-0.050727
2862,0.000481,0.0288,0.021737
2863,0.000481,0.012055,-0.014495
2864,-0.01874,0.0288,-0.032611
2865,0.000481,0.0288,0.039853
2866,0.019703,0.0288,0.039853
2867,-0.01874,0.0288,-0.014495
2868,0.000481,0.012055,0.003621
2869,-0.01874,-0.00469,0.021737
2870,0.000481,0.012055,-0.014495
2871,-0.01874,0.0288,0.039853
2872,0.000481,0.012055,0.003621
2873,0.000481,0.079034,-0.014495
2874,0.000481,-0.00469,0.003621
2875,0.000481,-0.00469,-0.050727
2876,-0.037962,-0.021435,-0.032611
2877,0.000481,0.0288,0.039853
2878,0.000481,-0.00469,0.003621
2879,0.019703,-0.021435,-0.032611
2880,-0.01874,-0.00469,0.003621
2881,0.000481,-0.00469,-0.032611
2882,-0.01874,0.012055,-0.032611
2883,0.000481,0.0288,0.003621
2884,0.000481,0.0288,-0.032611
2885,0.000481,-0.021435,0.039853
2886,0.000481,-0.00469,0.057969
2887,0.000481,0.012055,-0.014495
2888,-0.01874,-0.021435,-0.014495
2889,-0.01874,-0.038179,0.094201
2890,-0.01874,-0.00469,-0.014495
2891,-0.01874,0.012055,-0.014495
2892,0.000481,0.012055,0.021737
2893,-0.01874,0.012055,-0.032611
2894,-0.01874,-0.00469,0.021737
2895,-0.037962,-0.00469,0.003621
2896,-0.01874,0.012055,0.003621
2897,0.000481,-0.00469,0.039853
2898,-0.01874,-0.021435,0.003621
2899,0.000481,-0.038179,-0.032611
2900,0.000481,-0.054924,-0.014495
2901,0.000481,-0.021435,0.021737
2902,0.000481,-0.038179,0.021737
2903,-0.01874,-0.021435,0.039853
2904,-0.01874,-0.00469,0.039853
2905,-0.01874,-0.00469,-0.014495
2906,-0.01874,-0.00469,0.057969
2907,0.000481,-0.00469,-0.014495
2908,0.000481,0.06229,-0.050727
2909,0.019703,0.06229,0.039853
2910,-0.01874,0.012055,0.021737
2911,-0.01874,0.012055,0.021737
2912,-0.01874,-0.054924,-0.032611
2913,0.019703,-0.021435,0.003621
2914,0.019703,-0.00469,-0.014495
2915,0.000481,0.012055,0.021737
2916,-0.01874,0.0288,0.003621
2917,0.019703,0.0288,-0.050727
2918,-0.037962,0.045545,0.003621
2919,0.000481,0.045545,-0.032611
2920,-0.01874,0.045545,-0.014495
2921,0.019703,0.0288,0.021737
2922,0.019703,0.012055,-0.014495
2923,0.000481,-0.021435,0.003621
2924,-0.01874,-0.00469,0.039853
2925,0.000481,-0.00469,0.003621
2926,0.019703,-0.00469,-0.014495
2927,0.000481,0.012055,0.021737
2928,0.019703,0.012055,0.003621
2929,0.019703,0.045545,0.003621
2930,0.000481,-0.00469,0.057969
2931,0.000481,0.012055,0.021737
2932,0.000481,0.012055,0.003621
2933,0.000481,0.0288,0.021737
2934,0.000481,0.045545,-0.014495
2935,0.019703,0.06229,0.003621
2936,0.000481,0.0288,0.021737
2937,0.000481,-0.00469,0.003621
2938,0.000481,0.0288,0.039853
2939,-0.01874,-0.021435,0.021737
2940,0.000481,-0.038179,0.003621
2941,-0.01874,-0.038179,0.039853
2942,0.000481,-0.00469,-0.050727
2943,-0.01874,-0.00469,-0.050727
2944,0.019703,0.0288,-0.032611
2945,-0.01874,-0.00469,0.057969
2946,0.019703,0.0288,0.003621
2947,0.000481,0.012055,0.039853
2948,-0.01874,0.012055,0.003621
2949,0.000481,-0.021435,-0.032611
2950,-0.01874,-0.00469,-0.032611
2951,0.019703,-0.021435,-0.068843
2952,0.000481,-0.00469,-0.086959
2953,0.000481,0.012055,-0.032611
2954,0.000481,0.012055,0.021737
2955,0.000481,0.0288,0.021737
2956,-0.01874,-0.021435,0.039853
2957,0.000481,-0.00469,0.003621
2958,-0.037962,-0.00469,-0.014495
2959,-0.01874,0.012055,0.021737
2960,0.000481,0.0288,-0.014495
2961,0.000481,-0.021435,-0.014495
2962,0.000481,0.0288,-0.032611
2963,0.000481,-0.038179,-0.086959
2964,-0.01874,-0.021435,-0.032611
2965,0.000481,0.012055,0.021737
2966,0.019703,0.012055,0.003621
2967,0.000481,-0.071669,-0.068843
2968,-0.01874,-0.021435,-0.014495
2969,0.000481,-0.038179,-0.014495
2970,0.000481,-0.038179,-0.032611
2971,0.000481,-0.021435,0.021737
2972,0.019703,0.045545,0.021737
2973,0.019703,0.0288,-0.014495
2974,0.000481,0.045545,0.003621
2975,0.019703,0.06229,-0.050727
2976,0.019703,0.045545,-0.032611
2977,0.019703,0.012055,-0.032611
2978,0.000481,0.012055,-0.014495
2979,-0.01874,-0.00469,-0.014495
2980,-0.037962,0.012055,0.003621
2981,-0.01874,-0.021435,0.003621
2982,0.000481,-0.021435,0.039853
2983,0.000481,-0.00469,0.039853
2984,0.019703,-0.00469,-0.032611
2985,0.000481,-0.038179,0.003621
2986,0.000481,0.0288,-0.032611
2987,0.000481,0.012055,-0.032611
2988,0.000481,-0.021435,0.021737
2989,-0.01874,-0.054924,0.057969
2990,-0.01874,-0.038179,-0.014495
2991,-0.01874,-0.038179,0.039853
2992,0.000481,0.012055,0.021737
2993,0.000481,0.06229,-0.032611
2994,-0.01874,0.06229,-0.014495
2995,0.000481,0.095779,-0.032611
2996,0.019703,0.045545,-0.014495
2997,0.000481,-0.00469,-0.032611
2998,0.000481,-0.054924,0.039853
2999,0.000481,-0.00469,0.021737
3000,-0.01874,0.0288,0.076085
3001,0.000481,0.0288,0.003621
3002,0.000481,0.0288,0.003621
3003,0.000481,0.0288,0.021737
3004,0.000481,0.012055,-0.050727
3005,0.000481,-0.054924,-0.014495
3006,0.000481,-0.088414,0.003621
3007,0.019703,-0.088414,-0.032611
3008,0.000481,-0.038179,-0.014495
3009,-0.01874,-0.038179,0.021737
3010,-0.01874,0.0288,-0.032611
3011,0.000481,0.06229,0.003621
3012,-0.01874,0.06229,0.021737
3013,-0.037962,0.079034,-0.014495
3014,-0.037962,0.112524,0.021737
3015,0.000481,0.079034,0.057969
3016,-0.01874,0.0288,0.021737
3017,0.019703,0.045545,0.003621
3018,0.019703,0.012055,0.003621
3019,0.000481,0.012055,-0.032611
3020,0.038924,0.012055,-0.050727
3021,0.019703,-0.021435,-0.014495
3022,0.000481,-0.021435,-0.050727
3023,-0.01874,-0.00469,0.021737
3024,-0.01874,-0.021435,0.057969
3025,-0.01874,-0.021435,0.057969
3026,0.000481,0.012055,0.076085
3027,0.019703,0.045545,0.057969
3028,0.019703,0.012055,-0.032611
3029,0.000481,0.012055,0.003621
3030,0.000481,-0.00469,-0.032611
3031,0.019703,-0.00469,-0.014495
3032,0.019703,-0.00469,0.003621
3033,-0.01874,-0.021435,0.003621
3034,0.000481,0.012055,-0.014495
3035,0.000481,0.0288,0.039853
3036,0.000481,-0.021435,0.003621
3037,-0.037962,0.012055,-0.014495
3038,0.000481,-0.00469,-0.032611
3039,-0.037962,-0.021435,-0.050727
3040,-0.01874,-0.00469,-0.050727
3041,0.000481,-0.00469,-0.014495
3042,-0.01874,-0.00469,0.003621
3043,0.019703,-0.00469,0.021737
3044,0.019703,-0.00469,0.003621
3045,0.000481,-0.021435,0.021737
3046,0.019703,-0.00469,-0.032611
3047,-0.01874,0.012055,-0.032611
3048,-0.01874,-0.021435,-0.014495
3049,0.000481,-0.00469,-0.050727
3050,-0.01874,0.012055,0.021737
3051,0.000481,0.0288,0.003621
3052,0.000481,0.0288,0.003621
3053,0.000481,0.012055,0.039853
3054,0.000481,0.012055,0.003621
3055,0.019703,-0.021435,0.003621
3056,0.000481,-0.00469,-0.014495
3057,-0.01874,-0.021435,-0.032611
3058,0.000481,-0.038179,-0.032611
3059,-0.01874,-0.00469,0.003621
3060,-0.01874,-0.038179,0.003621
3061,-0.01874,-0.021435,0.021737
3062,-0.037962,-0.00469,-0.032611
3063,-0.01874,0.0288,-0.068843
3064,0.019703,-0.021435,-0.068843
3065,0.000481,-0.00469,-0.032611
3066,0.000481,-0.00469,-0.014495
3067,-0.01874,0.012055,0.021737
3068,-0.01874,-0.00469,0.021737
3069,-0.01874,-0.00469,0.021737
3070,0.000481,0.0288,0.039853
3071,-0.01874,0.045545,0.021737
3072,0.000481,0.0288,0.021737
3073,-0.037962,-0.00469,0.021737
3074,0.000481,0.012055,0.021737
3075,-0.01874,-0.00469,-0.032611
3076,0.000481,-0.00469,0.003621
3077,-0.01874,0.012055,0.003621
3078,0.000481,0.0288,0.021737
3079,0.019703,0.045545,0.039853
3080,0.000481,0.012055,-0.014495
3081,-0.01874,0.012055,-0.032611
3082,0.000481,-0.00469,0.003621
3083,-0.01874,0.0288,0.003621
3084,0.000481,0.045545,0.003621
3085,0.000481,0.0288,0.021737
3086,0.000481,0.012055,0.039853
3087,0.000481,-0.00469,0.039853
3088,0.000481,-0.00469,0.057969
3089,0.000481,-0.088414,-0.014495
3090,-0.037962,-0.105159,-0.032611
3091,0.000481,-0.088414,-0.032611
3092,-0.01874,-0.088414,-0.050727
3093,-0.037962,-0.071669,-0.014495
3094,0.000481,-0.038179,0.021737
3095,-0.01874,-0.054924,-0.050727
3096,-0.057183,0.012055,-0.032611
3097,0.000481,0.095779,0.021737
3098,0.000481,0.095779,-0.032611
3099,0.000481,0.095779,-0.050727
3100,0.000481,0.112524,0.021737
3101,0.019703,0.112524,-0.032611
3102,0.000481,0.06229,0.021737
3103,0.000481,0.06229,-0.014495
3104,0.000481,0.0288,0.003621
3105,0.000481,0.012055,0.021737
3106,0.000481,-0.00469,0.039853
3107,-0.01874,-0.00469,0.003621
3108,0.019703,0.012055,-0.014495
3109,-0.01874,0.012055,0.003621
3110,-0.01874,-0.00469,-0.014495
3111,0.019703,0.012055,0.021737
3112,0.000481,-0.00469,0.003621
3113,0.000481,-0.021435,0.003621
3114,-0.037962,-0.00469,0.039853
3115,-0.01874,-0.00469,0.021737
3116,-0.01874,-0.00469,-0.032611
3117,0.000481,-0.00469,0.003621
3118,0.019703,0.012055,0.021737
3119,0.019703,-0.00469,-0.032611
3120,0.000481,-0.038179,0.021737
3121,0.019703,-0.038179,0.021737
3122,0.000481,-0.00469,0.021737
3123,-0.01874,-0.00469,-0.032611
3124,0.000481,0.012055,0.003621
3125,0.000481,-0.021435,0.003621
3126,0.000481,-0.00469,-0.014495
3127,0.000481,0.012055,-0.014495
3128,0.019703,0.012055,0.003621
3129,0.000481,-0.00469,0.003621
3130,-0.01874,-0.00469,0.057969
3131,-0.01874,0.012055,0.039853
3132,0.000481,0.012055,0.003621
3133,0.000481,0.0288,-0.032611
3134,0.000481,-0.00469,-0.068843
3135,0.000481,-0.038179,0.003621
3136,-0.01874,-0.021435,-0.032611
3137,0.000481,-0.071669,-0.014495
3138,-0.01874,-0.038179,-0.014495
3139,-0.037962,-0.038179,-0.032611
3140,-0.01874,-0.00469,0.003621
3141,0.000481,0.0288,0.003621
3142,0.019703,0.079034,0.021737
3143,0.019703,0.0288,-0.014495
3144,0.000481,0.012055,0.021737
3145,-0.01874,0.0288,0.003621
3146,0.000481,0.012055,0.003621
3147,0.000481,0.012055,0.039853
3148,0.000481,0.012055,0.094201
3149,0.000481,-0.021435,0.039853
3150,0.000481,0.012055,0.003621
3151,0.000481,0.012055,-0.032611
3152,0.000481,-0.00469,-0.032611
3153,0.000481,0.0288,-0.032611
3154,0.000481,-0.00469,-0.050727
3155,-0.01874,0.0288,0.003621
3156,0.000481,-0.00469,0.003621
3157,0.000481,-0.00469,-0.032611
3158,0.000481,0.012055,0.003621
3159,0.000481,-0.038179,-0.014495
3160,-0.037962,-0.021435,-0.032611
3161,0.000481,-0.00469,0.021737
3162,-0.01874,-0.00469,-0.014495
3163,-0.01874,-0.00469,-0.050727
3164,-0.01874,-0.00469,-0.032611
3165,0.000481,0.0288,0.003621
3166,-0.01874,-0.00469,0.021737
3167,-0.01874,-0.00469,0.057969
3168,-0.01874,0.079034,0.039853
3169,-0.01874,-0.00469,-0.014495
3170,0.000481,-0.00469,0.021737
3171,-0.037962,0.012055,-0.014495
3172,0.000481,-0.00469,0.003621
3173,-0.037962,0.0288,0.021737
3174,-0.01874,0.0288,0.021737
3175,0.019703,0.012055,0.003621
3176,0.019703,0.012055,0.039853
3177,-0.01874,0.0288,0.003621
3178,0.000481,-0.021435,0.021737
3179,0.000481,0.012055,0.003621
3180,-0.01874,-0.00469,-0.032611
3181,-0.01874,-0.038179,0.021737
3182,0.000481,-0.038179,0.039853
3183,-0.01874,-0.038179,-0.014495
3184,0.000481,-0.021435,0.003621
3185,0.019703,-0.00469,-0.014495
3186,0.000481,0.0288,-0.014495
3187,0.019703,0.045545,-0.032611
3188,-0.01874,0.045545,-0.032611
3189,-0.01874,0.012055,-0.032611
3190,-0.037962,0.0288,0.021737
3191,0.000481,0.012055,0.021737
3192,0.000481,-0.00469,0.003621
3193,0.000481,-0.00469,0.021737
3194,0.000481,-0.038179,0.003621
3195,-0.01874,-0.038179,-0.014495
3196,-0.01874,-0.054924,-0.068843
3197,0.000481,-0.054924,-0.050727
3198,-0.01874,-0.054924,-0.032611
3199,-0.01874,-0.021435,-0.014495
3200,-0.01874,0.0288,0.039853
3201,0.000481,0.0288,0.003621
3202,0.000481,0.0288,0.039853
3203,0.000481,0.012055,0.003621
3204,0.000481,0.045545,-0.050727
3205,0.019703,0.045545,0.003621
3206,0.000481,0.079034,-0.032611
3207,-0.01874,0.0288,0.021737
3208,0.000481,0.012055,0.021737
3209,0.019703,0.0288,0.003621
3210,0.019703,0.012055,0.039853
3211,0.019703,-0.00469,-0.014495
3212,0.000481,0.012055,0.003621
3213,0.000481,-0.021435,-0.050727
3214,0.019703,-0.021435,-0.068843
3215,0.000481,-0.021435,-0.050727
3216,0.000481,-0.021435,-0.014495
3217,-0.01874,-0.021435,0.021737
3218,0.000481,-0.00469,-0.014495
3219,0.000481,0.012055,0.021737
3220,-0.01874,0.045545,0.003621
3221,-0.01874,0.0288,-0.014495
3222,0.000481,0.0288,0.003621
3223,0.000481,-0.021435,0.003621
3224,0.000481,0.012055,0.039853
3225,0.019703,0.012055,0.039853
3226,0.000481,-0.021435,0.039853
3227,-0.01874,0.012055,0.021737
3228,-0.01874,-0.00469,0.057969
3229,0.000481,0.0288,0.003621
3230,-0.01874,0.0288,-0.032611
3231,0.000481,0.012055,0.003621
3232,0.019703,-0.00469,-0.032611
3233,-0.01874,-0.021435,-0.014495
3234,-0.01874,-0.00469,0.021737
3235,-0.01874,0.012055,0.003621
3236,0.000481,-0.021435,0.021737
3237,-0.01874,-0.00469,-0.014495
3238,-0.037962,-0.00469,0.021737
3239,-0.01874,-0.00469,-0.014495
3240,0.000481,0.012055,0.039853
3241,0.000481,-0.00469,-0.014495
3242,-0.01874,0.012055,0.003621
3243,0.000481,-0.00469,0.057969
3244,-0.01874,0.0288,0.003621
3245,0.019703,-0.021435,0.021737
3246,-0.01874,-0.038179,-0.032611
3247,-0.01874,0.012055,-0.032611
3248,0.000481,-0.00469,-0.068843
3249,0.000481,-0.00469,0.003621
3250,-0.01874,-0.021435,-0.014495
3251,0.000481,-0.054924,0.021737
3252,0.000481,-0.038179,0.003621
3253,0.000481,-0.00469,0.021737
3254,-0.01874,0.012055,0.039853
3255,-0.01874,0.0288,0.003621
3256,0.000481,0.079034,-0.014495
3257,-0.01874,0.045545,0.003621
3258,0.019703,0.045545,-0.032611
3259,-0.01874,0.0288,0.021737
3260,0.019703,-0.00469,0.039853
3261,-0.01874,-0.054924,0.003621
3262,0.000481,-0.038179,-0.014495
3263,-0.01874,-0.038179,0.021737
3264,0.000481,-0.00469,-0.014495
3265,0.000481,0.0288,-0.014495
3266,0.000481,0.0288,-0.014495
3267,-0.01874,0.045545,-0.032611
3268,0.019703,0.045545,0.003621
3269,0.000481,0.012055,0.021737
3270,0.019703,0.012055,0.021737
3271,-0.01874,-0.054924,0.021737
3272,-0.01874,-0.038179,0.021737
3273,-0.01874,-0.054924,-0.068843
3274,-0.01874,-0.054924,-0.050727
3275,-0.01874,-0.021435,-0.014495
3276,0.000481,0.0288,-0.032611
3277,0.000481,0.095779,-0.050727
3278,0.019703,0.079034,0.021737
3279,0.000481,0.079034,-0.032611
3280,0.000481,0.0288,0.021737
3281,0.000481,0.0288,-0.014495
3282,-0.01874,0.0288,-0.014495
3283,0.000481,0.012055,0.003621
3284,0.000481,0.012055,0.039853
3285,0.000481,0.012055,-0.014495
3286,-0.01874,-0.00469,0.021737
3287,-0.01874,-0.00469,0.003621
3288,-0.01874,-0.00469,0.003621
3289,0.000481,-0.00469,0.003621
3290,0.019703,-0.00469,0.003621
3291,0.000481,-0.021435,-0.032611
3292,0.000481,-0.00469,-0.032611
3293,-0.01874,-0.00469,0.021737
3294,-0.01874,-0.00469,0.003621
3295,-0.037962,-0.038179,0.003621
3296,0.000481,-0.00469,0.039853
3297,-0.01874,-0.00469,-0.014495
3298,-0.01874,-0.021435,0.021737
3299,0.000481,-0.021435,-0.014495
3300,-0.037962,-0.021435,-0.032611
3301,-0.01874,-0.00469,0.021737
3302,-0.01874,0.012055,0.003621
3303,-0.01874,0.012055,0.021737
3304,0.000481,0.06229,0.039853
3305,0.000481,-0.00469,0.021737
3306,0.000481,-0.038179,-0.014495
3307,-0.01874,-0.00469,-0.014495
3308,0.000481,0.012055,-0.014495
3309,-0.01874,-0.00469,-0.014495
3310,-0.037962,0.012055,0.003621
3311,0.000481,-0.00469,-0.032611
3312,0.000481,-0.00469,0.003621
3313,-0.01874,0.0288,0.039853
3314,0.000481,0.045545,0.003621
3315,0.019703,-0.021435,0.003621
3316,-0.01874,0.012055,0.057969
3317,0.000481,-0.021435,-0.014495
3318,-0.01874,-0.00469,-0.014495
3319,0.000481,0.0288,0.003621
3320,0.000481,-0.00469,0.003621
3321,0.000481,-0.00469,0.021737
3322,0.000481,-0.00469,0.039853
3323,-0.01874,-0.038179,0.021737
3324,0.000481,-0.038179,0.021737
3325,-0.01874,-0.071669,0.021737
3326,-0.01874,-0.038179,-0.014495
3327,-0.01874,-0.021435,-0.014495
3328,0.000481,-0.00469,0.021737
3329,0.019703,0.012055,0.021737
3330,-0.01874,0.012055,0.003621
3331,-0.01874,0.0288,0.021737
3332,-0.01874,0.0288,-0.032611
3333,-0.037962,0.045545,-0.014495
3334,0.019703,0.0288,-0.014495
3335,0.019703,0.0288,-0.050727
3336,0.000481,-0.00469,0.021737
3337,-0.01874,-0.054924,0.039853
3338,-0.01874,-0.038179,0.003621
3339,-0.01874,-0.054924,0.021737
3340,0.000481,-0.021435,-0.014495
3341,0.019703,-0.038179,-0.032611
3342,0.000481,-0.00469,-0.014495
3343,0.019703,0.0288,-0.014495
3344,0.019703,0.112524,0.003621
3345,0.000481,0.095779,0.003621
3346,-0.01874,0.045545,-0.014495
3347,-0.037962,0.0288,0.021737
3348,-0.037962,-0.021435,0.003621
3349,-0.01874,-0.00469,-0.032611
3350,-0.01874,-0.00469,-0.014495
3351,-0.037962,0.0288,0.021737
3352,0.000481,-0.00469,-0.068843
3353,0.019703,-0.00469,-0.050727
3354,0.000481,0.012055,0.003621
3355,-0.01874,-0.00469,0.003621
3356,0.000481,0.0288,0.021737
3357,0.019703,-0.021435,0.021737
3358,0.019703,0.045545,0.021737
3359,0.000481,-0.038179,-0.014495
3360,0.038924,-0.038179,-0.014495
3361,-0.037962,0.012055,-0.014495
3362,0.019703,-0.00469,-0.014495
3363,0.019703,-0.00469,0.039853
3364,-0.01874,0.012055,0.021737
3365,-0.01874,0.0288,0.057969
3366,-0.01874,-0.00469,-0.032611
3367,0.000481,0.012055,-0.014495
3368,-0.01874,-0.00469,0.003621
3369,-0.01874,-0.038179,-0.014495
3370,0.000481,-0.054924,-0.014495
3371,-0.01874,-0.021435,-0.014495
3372,-0.01874,-0.071669,0.003621
3373,-0.037962,-0.054924,-0.032611
3374,0.000481,-0.021435,-0.014495
3375,-0.01874,-0.038179,-0.032611
3376,0.000481,-0.00469,-0.050727
3377,-0.01874,0.045545,0.003621
3378,0.019703,0.045545,0.003621
3379,-0.037962,0.06229,0.021737
3380,0.000481,0.06229,0.039853
3381,0.000481,0.0288,0.021737
3382,0.000481,0.012055,0.057969
3383,-0.037962,0.0288,0.039853
3384,-0.01874,0.0288,0.003621
3385,0.000481,0.012055,0.003621
3386,0.019703,0.012055,0.021737
3387,0.019703,0.012055,-0.032611
3388,0.000481,-0.021435,0.003621
3389,0.019703,0.012055,0.021737
3390,0.019703,-0.00469,-0.050727
3391,-0.01874,0.012055,0.039853
3392,-0.01874,-0.021435,-0.014495
3393,-0.01874,-0.021435,0.003621
3394,-0.037962,-0.00469,-0.050727
3395,0.000481,-0.00469,-0.050727
3396,-0.01874,-0.00469,-0.050727
3397,-0.01874,-0.00469,-0.014495
3398,0.000481,-0.00469,0.003621
3399,-0.01874,-0.00469,0.039853
3400,0.000481,0.012055,0.057969
3401,0.019703,0.012055,0.021737
3402,0.000481,-0.038179,-0.050727
3403,0.019703,-0.00469,-0.050727
3404,0.000481,-0.021435,-0.050727
3405,0.000481,-0.038179,-0.014495
3406,0.019703,0.012055,0.003621
3407,-0.01874,0.0288,0.021737
3408,-0.01874,0.045545,-0.014495
3409,0.000481,0.0288,0.021737
3410,-0.037962,0.0288,-0.014495
3411,0.019703,0.0288,-0.050727
3412,0.000481,0.0288,0.003621
3413,-0.037962,0.012055,-0.014495
3414,-0.01874,0.012055,0.039853
3415,-0.01874,-0.00469,0.003621
3416,0.000481,-0.00469,0.094201
3417,0.019703,-0.038179,0.021737
3418,0.019703,-0.038179,0.057969
3419,0.038924,-0.038179,-0.014495
3420,0.000481,-0.00469,-0.014495
3421,0.000481,-0.038179,-0.032611
3422,-0.01874,-0.00469,-0.014495
3423,-0.01874,-0.00469,0.003621
3424,0.000481,-0.00469,-0.014495
3425,0.019703,-0.00469,-0.050727
3426,0.000481,-0.038179,0.094201
3427,-0.01874,-0.071669,-0.014495
3428,0.000481,-0.00469,-0.050727
3429,-0.01874,-0.00469,-0.050727
3430,-0.01874,0.045545,-0.032611
3431,0.000481,0.045545,0.003621
3432,0.000481,0.012055,0.021737
3433,0.000481,-0.038179,0.003621
3434,-0.01874,-0.021435,0.003621
3435,-0.01874,-0.021435,-0.014495
3436,0.000481,-0.021435,0.003621
3437,0.000481,-0.00469,-0.050727
3438,0.000481,0.0288,0.021737
3439,0.019703,0.0288,-0.014495
3440,-0.01874,0.045545,-0.014495
3441,0.000481,0.045545,0.021737
3442,0.000481,0.0288,0.039853
3443,-0.01874,0.045545,0.057969
3444,0.000481,0.0288,0.021737
3445,0.019703,0.012055,-0.014495
3446,-0.01874,0.045545,-0.014495
3447,0.000481,0.012055,0.003621
3448,0.000481,-0.00469,-0.068843
3449,0.000481,0.012055,0.021737
3450,0.000481,0.0288,0.039853
3451,-0.01874,0.012055,-0.032611
3452,-0.01874,-0.00469,0.039853
3453,0.000481,-0.00469,0.057969
3454,-0.037962,-0.021435,-0.014495
3455,-0.01874,-0.021435,-0.014495
3456,-0.01874,0.012055,-0.014495
3457,0.000481,-0.00469,-0.050727
3458,0.019703,0.012055,0.003621
3459,0.019703,0.012055,0.039853
3460,0.000481,-0.021435,-0.014495
3461,-0.037962,-0.00469,0.039853
3462,0.000481,0.012055,0.003621
3463,0.000481,0.012055,-0.032611
3464,0.000481,-0.00469,-0.032611
3465,0.000481,0.012055,-0.032611
3466,0.000481,-0.00469,-0.014495
3467,0.000481,0.012055,-0.014495
3468,0.000481,-0.021435,0.021737
3469,0.019703,0.012055,0.021737
3470,0.000481,0.0288,0.076085
3471,0.019703,-0.00469,0.021737
3472,0.000481,-0.00469,-0.068843
3473,-0.037962,0.012055,0.003621
3474,-0.037962,0.012055,-0.014495
3475,-0.01874,-0.00469,0.003621
3476,0.000481,-0.021435,0.003621
3477,0.000481,-0.054924,0.021737
3478,-0.01874,-0.021435,-0.068843
3479,0.000481,-0.021435,0.021737
3480,-0.01874,0.012055,0.021737
3481,-0.01874,0.0288,-0.032611
3482,-0.037962,0.06229,0.003621
3483,-0.01874,0.0288,-0.032611
3484,0.000481,-0.00469,-0.032611
3485,0.000481,0.012055,-0.014495
3486,-0.01874,-0.00469,0.039853
3487,-0.01874,0.012055,0.021737
3488,-0.01874,-0.00469,0.003621
3489,0.000481,-0.00469,-0.014495
3490,0.000481,-0.00469,-0.050727
3491,-0.01874,0.012055,-0.014495
3492,0.000481,0.012055,-0.050727
3493,-0.01874,-0.00469,0.003621
3494,0.019703,0.0288,0.039853
3495,-0.01874,-0.00469,0.003621
3496,-0.01874,-0.00469,0.021737
3497,0.000481,0.012055,0.003621
3498,0.000481,-0.021435,-0.014495
3499,0.000481,-0.00469,0.039853
3500,0.000481,-0.021435,0.021737
3501,-0.01874,-0.021435,-0.014495
3502,-0.01874,-0.00469,0.003621
3503,0.000481,-0.00469,0.021737
3504,0.000481,0.012055,0.021737
3505,-0.01874,0.012055,0.039853
3506,0.000481,0.012055,0.003621
3507,-0.01874,0.012055,-0.050727
3508,-0.01874,0.0288,0.003621
3509,0.019703,0.012055,0.003621
3510,0.000481,-0.021435,0.057969
3511,-0.01874,-0.038179,0.094201
3512,0.019703,-0.038179,0.039853
3513,-0.01874,-0.00469,0.003621
3514,0.000481,-0.038179,-0.032611
3515,-0.01874,-0.054924,-0.068843
3516,0.000481,-0.021435,-0.086959
3517,0.000481,0.012055,-0.014495
3518,0.000481,0.012055,-0.068843
3519,0.000481,0.0288,0.003621
3520,0.000481,-0.021435,0.003621
3521,-0.01874,-0.021435,-0.014495
3522,-0.01874,-0.00469,0.003621
3523,-0.01874,-0.00469,-0.014495
3524,0.000481,0.012055,-0.032611
3525,0.000481,0.012055,-0.032611
3526,-0.01874,-0.00469,0.003621
3527,-0.01874,0.0288,-0.032611
3528,-0.01874,0.0288,0.021737
3529,0.019703,0.079034,0.003621
3530,-0.01874,0.012055,0.003621
3531,0.000481,-0.00469,0.057969
3532,-0.01874,0.012055,0.003621
3533,0.000481,0.0288,0.003621
3534,0.000481,0.06229,0.003621
3535,0.000481,0.012055,0.021737
3536,0.000481,0.0288,0.021737
3537,0.000481,-0.021435,0.057969
3538,0.000481,-0.021435,0.039853
3539,0.000481,-0.00469,0.003621
3540,0.038924,-0.00469,0.057969
3541,0.000481,0.012055,0.021737
3542,0.000481,0.012055,-0.014495
3543,-0.01874,-0.00469,0.003621
3544,0.019703,0.06229,-0.032611
3545,0.000481,0.079034,-0.014495
3546,0.000481,0.045545,0.021737
3547,0.000481,-0.00469,0.021737
3548,0.019703,0.012055,-0.014495
3549,0.000481,0.012055,0.003621
3550,0.000481,-0.021435,-0.014495
3551,-0.01874,-0.021435,-0.050727
3552,0.000481,-0.00469,-0.032611
3553,-0.01874,-0.00469,-0.032611
3554,-0.01874,-0.00469,-0.014495
3555,0.000481,0.012055,-0.014495
3556,-0.01874,0.045545,-0.050727
3557,-0.01874,-0.00469,-0.050727
3558,0.000481,-0.038179,-0.014495
3559,0.000481,-0.038179,-0.050727
3560,0.000481,-0.038179,-0.032611
3561,0.019703,-0.00469,-0.014495
3562,0.000481,0.0288,-0.050727
3563,0.000481,0.045545,-0.014495
3564,0.000481,0.045545,0.039853
3565,0.000481,0.0288,0.003621
3566,0.000481,0.0288,0.076085
3567,-0.037962,-0.00469,0.057969
3568,-0.01874,-0.00469,-0.014495
3569,0.000481,0.012055,0.039853
3570,0.000481,-0.00469,0.076085
3571,0.019703,0.012055,0.003621
3572,0.000481,-0.00469,0.021737
3573,0.019703,-0.00469,0.003621
3574,0.019703,-0.00469,-0.014495
3575,-0.01874,-0.00469,0.057969
3576,0.000481,0.0288,-0.014495
3577,0.019703,0.0288,-0.014495
3578,-0.01874,0.012055,0.003621
3579,-0.01874,-0.00469,0.003621
3580,0.000481,-0.021435,0.003621
3581,0.000481,0.012055,0.039853
3582,0.000481,-0.00469,0.039853
3583,-0.01874,0.012055,-0.014495
3584,0.000481,-0.00469,0.021737
3585,-0.01874,-0.021435,0.003621
3586,-0.01874,-0.00469,-0.032611
3587,-0.01874,0.0288,-0.032611
3588,0.000481,0.012055,-0.050727
3589,-0.01874,0.0288,-0.014495
3590,0.000481,-0.021435,0.057969
3591,-0.01874,0.012055,-0.014495
3592,-0.01874,-0.00469,-0.032611
3593,-0.01874,0.012055,0.021737
3594,0.000481,-0.00469,-0.050727
3595,-0.01874,-0.00469,-0.014495
3596,-0.01874,-0.00469,-0.014495
3597,-0.01874,-0.00469,-0.032611
3598,-0.01874,-0.00469,0.003621
3599,0.000481,-0.021435,0.003621
3600,-0.01874,-0.021435,-0.014495
3601,0.000481,-0.00469,-0.050727
3602,0.000481,-0.00469,-0.050727
3603,0.000481,-0.021435,-0.068843
3604,-0.037962,-0.00469,-0.032611
3605,0.000481,-0.021435,-0.014495
3606,-0.037962,-0.00469,-0.032611
3607,-0.01874,-0.00469,0.021737
3608,-0.01874,0.0288,0.021737
3609,0.000481,-0.00469,0.021737
3610,-0.01874,0.012055,0.039853
3611,0.000481,-0.00469,-0.014495
3612,0.000481,-0.00469,0.003621
3613,0.000481,-0.00469,0.003621
3614,-0.01874,-0.021435,0.021737
3615,-0.01874,-0.054924,0.021737
3616,-0.037962,-0.054924,0.039853
3617,0.000481,-0.054924,0.021737
3618,-0.01874,-0.021435,0.003621
3619,0.000481,-0.00469,0.021737
3620,-0.037962,0.012055,0.057969
3621,-0.01874,0.045545,-0.032611
3622,0.019703,0.079034,-0.014495
3623,0.019703,0.095779,0.039853
3624,0.019703,0.06229,0.039853
3625,0.000481,0.012055,0.039853
3626,0.000481,0.012055,0.003621
3627,0.000481,-0.038179,0.003621
3628,-0.01874,-0.038179,0.021737
3629,0.000481,-0.038179,-0.032611
3630,0.000481,-0.038179,-0.050727
3631,-0.01874,-0.021435,-0.032611
3632,0.000481,-0.00469,-0.014495
3633,-0.01874,0.045545,0.021737
3634,0.000481,0.06229,0.039853
3635,0.000481,0.079034,-0.050727
3636,0.019703,0.045545,-0.068843
3637,-0.01874,0.0288,-0.032611
3638,0.000481,0.0288,-0.014495
3639,0.000481,0.079034,0.003621
3640,0.000481,0.012055,0.003621
3641,0.019703,-0.021435,-0.014495
3642,0.019703,-0.021435,0.003621
3643,-0.01874,-0.021435,0.003621
3644,-0.01874,-0.021435,0.003621
3645,0.000481,-0.00469,-0.032611
3646,-0.037962,-0.00469,-0.014495
3647,-0.01874,-0.00469,0.003621
3648,0.019703,-0.021435,0.003621
3649,-0.01874,-0.00469,0.021737
3650,0.000481,-0.071669,0.003621
3651,-0.01874,-0.071669,0.003621
3652,-0.01874,-0.071669,-0.032611
3653,-0.01874,-0.038179,-0.014495
3654,0.000481,-0.021435,0.003621
3655,-0.01874,0.0288,-0.032611
3656,-0.01874,0.012055,-0.068843
3657,-0.01874,0.0288,-0.014495
3658,0.000481,0.0288,-0.014495
3659,0.000481,0.012055,0.021737
3660,0.000481,0.012055,0.039853
3661,-0.01874,0.06229,0.021737
3662,0.000481,0.0288,0.003621
3663,0.019703,0.045545,0.021737
3664,0.000481,0.045545,0.021737
3665,0.038924,0.0288,0.003621
3666,0.019703,0.012055,0.021737
3667,0.019703,-0.00469,0.076085
3668,0.000481,-0.038179,0.003621
3669,-0.01874,-0.038179,0.021737
3670,-0.01874,-0.021435,0.003621
3671,0.000481,-0.038179,-0.014495
3672,0.000481,-0.021435,-0.014495
3673,-0.01874,0.012055,-0.032611
3674,-0.01874,0.0288,-0.050727
3675,0.000481,0.045545,0.003621
3676,0.000481,0.0288,-0.014495
3677,-0.01874,-0.00469,0.003621
3678,0.000481,-0.054924,0.003621
3679,-0.01874,-0.038179,0.003621
3680,-0.037962,-0.021435,-0.032611
3681,0.000481,-0.021435,-0.014495
3682,-0.01874,0.012055,-0.050727
3683,-0.01874,0.045545,0.021737
3684,0.000481,-0.00469,0.039853
3685,0.000481,0.012055,-0.014495
3686,-0.01874,0.012055,0.021737
3687,0.019703,-0.00469,-0.014495
3688,0.019703,0.012055,0.003621
3689,0.000481,-0.038179,-0.032611
3690,0.000481,-0.021435,-0.014495
3691,0.000481,-0.038179,-0.032611
3692,-0.01874,-0.021435,0.021737
3693,0.019703,-0.00469,0.039853
3694,-0.01874,-0.00469,0.003621
3695,-0.01874,-0.00469,0.039853
3696,0.000481,0.0288,0.003621
3697,0.000481,0.012055,-0.050727
3698,-0.01874,-0.00469,-0.032611
3699,0.000481,0.0288,-0.014495
3700,-0.01874,0.012055,-0.032611
3701,-0.01874,-0.00469,0.021737
3702,0.000481,0.012055,0.039853
3703,-0.01874,0.012055,0.003621
3704,0.000481,-0.00469,0.039853
3705,-0.01874,-0.021435,-0.032611
