# Requested Sampling Rate (Hz):,1000
# Actual Sampling Rate (Hz):,998.604
# Requested Duration (s):,5.0
# Actual Duration (s):,5.045
# REST Calibration:,831.9749657534268,832.2800684931498,831.8001369863033
# MAX Calibration:,884.0000,892.0000,887.0000
# Normalization: MVC-based  (x_norm = (x - REST) / (MAX - REST))
sample_idx,EMG1,EMG2,EMG3
0,0.000481,-0.105159,-0.014495
1,0.000481,-0.121903,-0.050727
2,-0.01874,-0.088414,0.021737
3,0.000481,-0.00469,0.003621
4,-0.01874,0.0288,0.003621
5,-0.01874,0.112524,-0.014495
6,0.000481,0.146014,-0.014495
7,0.000481,0.146014,0.021737
8,0.000481,0.129269,0.003621
9,0.000481,0.079034,-0.050727
10,0.000481,0.079034,-0.050727
11,0.000481,0.045545,-0.086959
12,-0.01874,0.0288,-0.014495
13,0.019703,0.0288,0.003621
14,0.000481,-0.00469,0.021737
15,0.019703,-0.00469,0.021737
16,0.000481,-0.021435,0.003621
17,-0.01874,-0.021435,-0.050727
18,-0.01874,-0.00469,-0.032611
19,-0.037962,-0.00469,-0.068843
20,0.000481,0.012055,-0.014495
21,-0.037962,0.045545,0.003621
22,0.000481,0.06229,0.057969
23,0.000481,0.012055,0.057969
24,0.000481,0.012055,0.021737
25,0.000481,0.012055,0.021737
26,0.019703,0.012055,0.003621
27,0.000481,0.012055,0.021737
28,0.000481,-0.038179,-0.032611
29,-0.01874,-0.021435,-0.014495
30,0.000481,-0.021435,0.003621
31,-0.01874,-0.021435,0.039853
32,0.000481,-0.021435,0.021737
33,-0.037962,-0.038179,0.003621
34,-0.01874,-0.00469,-0.032611
35,0.000481,-0.00469,-0.032611
36,-0.01874,0.012055,-0.032611
37,-0.01874,0.012055,-0.068843
38,-0.01874,0.012055,0.003621
39,-0.01874,-0.00469,0.003621
40,0.000481,-0.00469,-0.014495
41,-0.01874,0.0288,0.057969
42,0.000481,0.0288,0.021737
43,0.000481,-0.00469,0.021737
44,0.000481,-0.00469,0.003621
45,0.000481,-0.00469,0.021737
46,0.000481,0.012055,-0.014495
47,0.000481,0.012055,0.021737
48,0.019703,-0.00469,0.039853
49,0.019703,-0.021435,-0.014495
50,-0.01874,-0.021435,0.039853
51,-0.01874,-0.021435,0.003621
52,0.000481,-0.021435,-0.050727
53,0.000481,-0.021435,-0.050727
54,0.000481,-0.00469,-0.032611
55,-0.01874,-0.021435,-0.014495
56,0.000481,-0.00469,-0.032611
57,-0.01874,-0.00469,0.003621
58,0.000481,-0.00469,0.003621
59,-0.01874,0.012055,0.021737
60,-0.01874,0.012055,0.003621
61,-0.01874,0.012055,-0.032611
62,0.000481,-0.00469,-0.014495
63,0.000481,-0.00469,-0.014495
64,0.019703,0.0288,0.003621
65,0.000481,-0.00469,0.057969
66,0.000481,-0.00469,0.003621
67,0.000481,-0.00469,0.057969
68,0.000481,-0.00469,0.003621
69,-0.01874,0.012055,-0.014495
70,-0.037962,-0.021435,-0.032611
71,-0.01874,-0.038179,-0.050727
72,0.000481,-0.038179,-0.032611
73,-0.01874,-0.00469,-0.032611
74,0.000481,-0.00469,0.021737
75,-0.01874,-0.021435,0.003621
76,0.019703,-0.00469,0.039853
77,0.019703,-0.021435,-0.050727
78,-0.01874,-0.021435,-0.032611
79,0.000481,-0.038179,-0.050727
80,-0.01874,-0.021435,-0.050727
81,0.000481,-0.00469,-0.032611
82,-0.01874,-0.021435,-0.014495
83,-0.01874,-0.00469,-0.032611
84,-0.037962,-0.038179,-0.032611
85,-0.01874,-0.00469,-0.014495
86,0.019703,0.012055,-0.032611
87,-0.01874,-0.088414,-0.032611
88,0.000481,-0.121903,0.021737
89,0.000481,-0.121903,0.003621
90,0.000481,-0.054924,0.039853
91,0.000481,0.012055,0.094201
92,0.000481,0.095779,0.094201
93,0.000481,0.146014,0.076085
94,-0.01874,0.162759,0.021737
95,-0.01874,0.179503,-0.068843
96,0.019703,0.095779,-0.086959
97,0.000481,0.045545,-0.050727
98,0.000481,-0.00469,-0.068843
99,-0.01874,-0.054924,-0.014495
100,-0.037962,-0.054924,0.003621
101,-0.01874,-0.038179,-0.014495
102,-0.01874,-0.038179,-0.014495
103,0.000481,0.012055,-0.014495
104,0.000481,-0.00469,-0.032611
105,-0.01874,0.0288,-0.014495
106,0.000481,0.06229,-0.050727
107,0.000481,0.045545,-0.014495
108,0.019703,0.0288,0.021737
109,0.000481,0.045545,0.021737
110,0.000481,0.0288,0.039853
111,0.000481,0.0288,0.057969
112,0.019703,0.045545,0.057969
113,0.000481,0.06229,0.003621
114,0.019703,0.0288,-0.014495
115,0.000481,0.0288,0.003621
116,0.000481,-0.021435,-0.014495
117,0.019703,-0.038179,0.021737
118,0.000481,-0.021435,0.021737
119,0.000481,-0.00469,0.003621
120,-0.01874,-0.021435,0.039853
121,0.000481,-0.038179,0.003621
122,0.019703,-0.00469,-0.050727
123,0.000481,-0.00469,0.003621
124,0.000481,-0.021435,0.003621
125,-0.037962,-0.00469,0.039853
126,0.000481,-0.00469,0.076085
127,0.019703,-0.00469,0.057969
128,0.019703,0.012055,0.039853
129,0.019703,0.0288,0.003621
130,0.000481,0.0288,-0.014495
131,0.000481,-0.00469,-0.050727
132,-0.01874,-0.021435,-0.014495
133,-0.037962,-0.038179,-0.068843
134,-0.01874,-0.00469,-0.014495
135,-0.01874,0.012055,0.021737
136,-0.01874,-0.00469,-0.032611
137,-0.01874,-0.00469,0.003621
138,-0.01874,0.012055,0.003621
139,0.000481,0.012055,-0.032611
140,0.000481,0.012055,0.003621
141,0.000481,-0.00469,0.021737
142,0.000481,0.012055,0.003621
143,0.000481,-0.00469,0.003621
144,0.000481,0.012055,0.057969
145,0.000481,0.012055,-0.014495
146,0.000481,-0.021435,0.039853
147,0.000481,0.012055,-0.032611
148,0.000481,0.012055,-0.014495
149,-0.01874,-0.00469,0.003621
150,0.000481,-0.00469,-0.032611
151,0.000481,-0.00469,0.039853
152,-0.01874,-0.021435,0.021737
153,-0.01874,-0.00469,-0.032611
154,-0.01874,-0.021435,-0.014495
155,0.000481,0.012055,0.021737
156,-0.01874,-0.021435,-0.032611
157,0.000481,0.012055,-0.014495
158,0.000481,0.012055,-0.014495
159,0.000481,-0.021435,-0.032611
160,0.000481,0.012055,0.021737
161,-0.01874,-0.021435,0.021737
162,0.019703,-0.021435,0.076085
163,-0.037962,0.012055,0.021737
164,0.000481,0.012055,0.039853
165,0.000481,-0.00469,-0.014495
166,0.019703,-0.00469,0.003621
167,0.000481,-0.00469,0.021737
168,-0.037962,-0.021435,-0.014495
169,0.000481,0.012055,-0.014495
170,-0.037962,0.012055,0.003621
171,-0.01874,-0.038179,-0.032611
172,-0.01874,-0.038179,0.021737
173,0.000481,-0.021435,-0.050727
174,-0.037962,-0.00469,-0.068843
175,-0.01874,0.06229,-0.014495
176,0.000481,0.06229,0.003621
177,-0.01874,0.045545,0.003621
178,0.019703,0.045545,0.021737
179,0.019703,0.045545,0.003621
180,0.019703,0.0288,-0.032611
181,0.000481,-0.00469,-0.014495
182,0.000481,-0.00469,-0.032611
183,0.000481,0.012055,0.003621
184,0.038924,0.012055,0.021737
185,0.000481,-0.054924,0.039853
186,-0.01874,-0.071669,-0.014495
187,0.000481,-0.054924,0.003621
188,-0.01874,-0.021435,-0.032611
189,0.000481,-0.00469,-0.032611
190,-0.01874,-0.021435,-0.014495
191,0.000481,-0.00469,-0.032611
192,0.000481,0.045545,-0.014495
193,0.000481,-0.00469,-0.014495
194,0.000481,-0.00469,-0.014495
195,0.000481,0.0288,0.057969
196,-0.01874,0.0288,0.021737
197,0.019703,-0.00469,-0.014495
198,-0.01874,-0.021435,0.003621
199,0.019703,-0.021435,0.021737
200,0.000481,-0.054924,0.021737
201,0.019703,-0.038179,0.039853
202,-0.01874,-0.021435,0.021737
203,-0.01874,-0.021435,0.021737
204,-0.01874,0.012055,0.039853
205,0.000481,-0.054924,0.021737
206,0.038924,0.0288,-0.032611
207,0.019703,0.012055,-0.014495
208,0.000481,0.0288,0.003621
209,-0.01874,0.079034,0.039853
210,-0.01874,0.045545,0.039853
211,-0.01874,-0.00469,0.094201
212,0.000481,0.0288,0.021737
213,0.000481,-0.021435,0.039853
214,0.038924,-0.00469,0.003621
215,0.019703,-0.021435,-0.068843
216,0.019703,0.012055,-0.086959
217,-0.037962,0.0288,-0.086959
218,-0.01874,0.045545,-0.050727
219,-0.01874,0.129269,-0.014495
220,-0.037962,0.045545,-0.014495
221,0.000481,0.0288,0.021737
222,0.000481,0.0288,0.003621
223,0.000481,0.012055,0.003621
224,0.000481,0.06229,-0.014495
225,-0.01874,-0.00469,0.003621
226,0.038924,-0.00469,0.003621
227,0.019703,-0.00469,0.039853
228,-0.01874,-0.00469,0.076085
229,0.000481,0.012055,-0.014495
230,0.019703,-0.00469,0.057969
231,0.019703,0.012055,0.003621
232,0.019703,-0.00469,-0.050727
233,0.000481,0.012055,-0.032611
234,-0.01874,-0.00469,-0.050727
235,-0.037962,-0.00469,-0.050727
236,-0.01874,-0.00469,-0.014495
237,-0.01874,-0.038179,0.021737
238,0.000481,0.012055,0.021737
239,0.019703,-0.00469,0.057969
240,-0.01874,-0.00469,0.003621
241,0.000481,-0.00469,-0.032611
242,0.000481,-0.00469,-0.014495
243,0.000481,-0.038179,-0.050727
244,0.000481,0.012055,0.003621
245,-0.01874,-0.00469,0.003621
246,-0.037962,-0.00469,0.021737
247,-0.037962,-0.00469,0.057969
248,0.000481,0.0288,0.021737
249,0.000481,-0.00469,0.003621
250,0.019703,-0.021435,-0.014495
251,-0.01874,-0.00469,0.021737
252,0.000481,0.012055,0.021737
253,0.000481,0.012055,0.039853
254,0.019703,0.045545,0.057969
255,0.019703,0.012055,-0.032611
256,-0.01874,0.012055,0.003621
257,0.019703,-0.00469,0.003621
258,-0.037962,-0.00469,-0.086959
259,-0.01874,-0.021435,-0.032611
260,0.000481,-0.021435,-0.032611
261,0.000481,-0.021435,0.003621
262,0.000481,-0.038179,-0.014495
263,-0.01874,-0.038179,-0.014495
264,-0.01874,-0.00469,-0.014495
265,0.000481,0.012055,0.003621
266,0.000481,0.045545,0.003621
267,0.038924,0.0288,-0.032611
268,0.019703,0.045545,-0.014495
269,0.000481,0.012055,-0.032611
270,-0.01874,0.0288,-0.014495
271,-0.01874,0.012055,0.003621
272,0.000481,0.012055,0.057969
273,0.000481,-0.00469,0.003621
274,-0.037962,-0.021435,0.021737
275,-0.01874,0.0288,0.003621
276,-0.01874,-0.00469,-0.032611
277,0.000481,-0.00469,-0.014495
278,-0.01874,-0.00469,-0.032611
279,-0.01874,-0.021435,0.021737
280,0.000481,-0.021435,0.021737
281,0.000481,-0.054924,-0.032611
282,-0.01874,-0.105159,0.021737
283,-0.01874,-0.088414,-0.032611
284,0.000481,-0.105159,0.003621
285,0.000481,-0.054924,0.003621
286,0.000481,0.012055,-0.014495
287,0.000481,0.095779,-0.032611
288,-0.01874,0.095779,0.021737
289,0.000481,0.045545,0.057969
290,0.019703,0.045545,0.003621
291,0.000481,0.06229,0.039853
292,0.019703,0.079034,0.039853
293,0.019703,0.012055,0.003621
294,-0.01874,-0.054924,0.021737
295,0.000481,-0.054924,0.057969
296,0.019703,-0.00469,0.021737
297,0.000481,0.0288,0.039853
298,0.019703,0.0288,0.039853
299,0.019703,0.06229,0.003621
300,-0.01874,0.112524,0.003621
301,0.000481,0.079034,-0.032611
302,0.019703,0.06229,-0.050727
303,0.038924,0.045545,-0.032611
304,-0.01874,0.012055,-0.068843
305,-0.01874,0.012055,-0.050727
306,-0.037962,-0.00469,0.021737
307,-0.01874,-0.021435,-0.032611
308,0.000481,0.012055,-0.014495
309,0.019703,-0.00469,-0.032611
310,0.019703,0.0288,-0.050727
311,-0.01874,-0.021435,-0.014495
312,0.000481,-0.021435,0.057969
313,0.000481,-0.00469,0.039853
314,-0.01874,0.012055,0.057969
315,0.000481,0.0288,0.057969
316,0.000481,-0.00469,-0.014495
317,0.000481,-0.021435,-0.050727
318,0.000481,-0.038179,-0.014495
319,0.000481,0.012055,-0.032611
320,-0.01874,-0.00469,-0.032611
321,0.000481,-0.021435,0.003621
322,0.000481,-0.021435,-0.014495
323,0.000481,-0.00469,0.003621
324,0.000481,-0.00469,0.021737
325,0.000481,0.0288,0.003621
326,-0.01874,-0.00469,0.021737
327,0.000481,0.012055,0.003621
328,0.019703,0.012055,0.003621
329,0.000481,0.012055,0.003621
330,0.000481,-0.00469,0.039853
331,0.019703,0.012055,0.003621
332,0.000481,-0.038179,0.039853
333,-0.01874,-0.021435,0.003621
334,-0.037962,-0.021435,-0.032611
335,-0.01874,-0.038179,0.003621
336,-0.037962,-0.038179,-0.068843
337,-0.01874,-0.021435,-0.014495
338,-0.01874,-0.038179,0.003621
339,-0.037962,-0.038179,0.003621
340,-0.037962,-0.038179,0.003621
341,-0.01874,-0.00469,-0.014495
342,-0.01874,-0.00469,0.003621
343,0.000481,-0.00469,-0.050727
344,0.000481,0.0288,0.003621
345,-0.01874,0.012055,-0.014495
346,0.000481,0.045545,0.021737
347,0.000481,0.06229,0.003621
348,-0.01874,0.0288,0.021737
349,0.000481,0.0288,0.057969
350,0.019703,-0.00469,-0.014495
351,-0.01874,0.012055,-0.032611
352,-0.01874,0.012055,-0.014495
353,0.000481,0.012055,-0.032611
354,0.000481,0.0288,0.021737
355,-0.01874,0.012055,0.021737
356,0.000481,0.045545,0.039853
357,0.000481,-0.00469,-0.032611
358,0.000481,-0.054924,0.039853
359,0.000481,-0.038179,0.021737
360,-0.01874,-0.054924,0.003621
361,0.000481,-0.038179,0.021737
362,0.019703,-0.021435,0.003621
363,0.000481,-0.021435,0.021737
364,-0.01874,-0.021435,0.039853
365,0.000481,-0.00469,0.039853
366,0.019703,0.045545,0.021737
367,0.000481,0.012055,0.021737
368,-0.037962,0.012055,-0.032611
369,0.000481,0.079034,-0.050727
370,-0.01874,0.079034,-0.032611
371,-0.01874,0.079034,-0.014495
372,0.019703,0.045545,0.003621
373,-0.01874,0.012055,0.021737
374,0.000481,0.045545,-0.032611
375,0.000481,-0.00469,0.003621
376,0.000481,-0.021435,-0.014495
377,-0.01874,-0.021435,-0.032611
378,-0.01874,-0.021435,-0.068843
379,-0.01874,-0.00469,-0.050727
380,-0.01874,-0.021435,-0.050727
381,-0.01874,-0.038179,0.021737
382,-0.037962,-0.054924,-0.014495
383,-0.01874,-0.054924,0.003621
384,0.000481,-0.054924,0.021737
385,0.019703,-0.038179,0.003621
386,-0.037962,-0.038179,-0.050727
387,-0.037962,-0.00469,-0.032611
388,0.000481,-0.00469,-0.068843
389,-0.01874,-0.00469,-0.014495
390,0.000481,-0.038179,0.021737
391,0.000481,-0.00469,0.057969
392,0.000481,0.012055,0.021737
393,0.019703,0.045545,0.039853
394,0.000481,0.079034,-0.014495
395,0.019703,0.079034,-0.014495
396,0.038924,0.079034,0.094201
397,0.019703,0.012055,-0.032611
398,0.000481,0.079034,0.003621
399,0.019703,0.045545,0.003621
400,0.019703,0.012055,0.021737
401,0.000481,0.0288,-0.032611
402,0.019703,-0.00469,0.039853
403,-0.01874,-0.00469,0.003621
404,-0.01874,-0.00469,-0.014495
405,-0.01874,-0.021435,0.003621
406,0.000481,-0.038179,-0.014495
407,0.000481,-0.038179,0.076085
408,0.000481,-0.021435,0.076085
409,-0.01874,-0.038179,-0.014495
410,-0.01874,-0.038179,0.039853
411,-0.01874,-0.038179,0.003621
412,-0.037962,-0.021435,0.003621
413,0.000481,0.0288,-0.032611
414,0.019703,0.045545,-0.032611
415,0.000481,0.045545,-0.032611
416,0.000481,-0.00469,-0.014495
417,0.000481,0.012055,0.021737
418,0.000481,0.012055,-0.014495
419,-0.01874,-0.00469,0.021737
420,-0.01874,-0.00469,-0.014495
421,0.000481,-0.00469,-0.032611
422,0.000481,-0.021435,-0.032611
423,-0.01874,-0.00469,-0.014495
424,0.000481,-0.00469,0.021737
425,0.000481,0.012055,0.039853
426,-0.01874,0.012055,0.039853
427,0.000481,0.012055,0.057969
428,-0.01874,0.012055,0.039853
429,0.000481,-0.00469,-0.014495
430,0.019703,0.012055,0.003621
431,0.019703,-0.021435,-0.014495
432,0.019703,-0.021435,-0.032611
433,0.019703,-0.00469,-0.014495
434,0.000481,-0.021435,0.021737
435,0.000481,0.012055,0.021737
436,0.000481,-0.00469,0.021737
437,0.000481,-0.00469,0.003621
438,0.000481,-0.00469,-0.014495
439,-0.01874,0.0288,-0.050727
440,-0.037962,-0.00469,0.021737
441,-0.01874,0.012055,-0.050727
442,-0.01874,-0.038179,-0.014495
443,-0.01874,-0.038179,0.021737
444,0.000481,-0.021435,0.003621
445,0.000481,-0.038179,0.039853
446,0.000481,-0.038179,0.003621
447,0.000481,-0.021435,-0.050727
448,-0.037962,0.012055,-0.014495
449,-0.01874,-0.00469,-0.032611
450,-0.01874,-0.00469,0.003621
451,-0.01874,-0.021435,0.003621
452,0.000481,-0.038179,0.057969
453,0.019703,-0.00469,-0.014495
454,0.019703,0.012055,-0.014495
455,0.000481,0.012055,-0.014495
456,-0.01874,0.012055,0.021737
457,0.000481,-0.00469,0.039853
458,-0.01874,0.0288,0.021737
459,0.000481,0.012055,0.039853
460,-0.01874,-0.00469,0.039853
461,0.000481,0.0288,-0.014495
462,-0.01874,0.0288,0.003621
463,0.000481,0.06229,-0.014495
464,-0.01874,0.045545,-0.032611
465,0.000481,0.045545,-0.032611
466,-0.01874,0.0288,-0.032611
467,0.000481,-0.00469,-0.050727
468,0.000481,-0.054924,0.003621
469,0.000481,-0.054924,0.021737
470,0.000481,-0.038179,-0.014495
471,0.019703,-0.00469,-0.014495
472,-0.01874,0.012055,0.021737
473,-0.01874,0.0288,-0.032611
474,-0.01874,0.045545,0.003621
475,0.000481,0.045545,0.003621
476,-0.01874,0.0288,0.003621
477,0.000481,-0.00469,0.057969
478,-0.01874,-0.021435,0.021737
479,0.000481,-0.021435,-0.014495
480,-0.01874,-0.021435,0.003621
481,0.000481,-0.038179,-0.032611
482,-0.037962,-0.038179,-0.032611
483,-0.01874,-0.038179,0.003621
484,0.000481,-0.038179,0.003621
485,0.000481,-0.021435,0.021737
486,-0.01874,-0.021435,-0.014495
487,-0.01874,-0.00469,0.003621
488,0.000481,-0.00469,-0.050727
489,0.000481,0.0288,-0.014495
490,-0.01874,0.06229,-0.014495
491,0.019703,0.012055,-0.032611
492,0.000481,0.012055,0.003621
493,0.000481,0.0288,0.039853
494,0.000481,0.012055,0.039853
495,0.019703,0.012055,0.057969
496,0.000481,-0.071669,0.003621
497,-0.01874,-0.088414,0.021737
498,0.000481,-0.105159,0.039853
499,-0.037962,-0.054924,-0.032611
500,-0.037962,-0.021435,0.021737
501,-0.01874,0.012055,0.021737
502,-0.01874,0.045545,-0.014495
503,0.000481,0.079034,0.021737
504,-0.01874,0.112524,0.003621
505,-0.01874,0.112524,-0.014495
506,-0.01874,0.06229,-0.032611
507,0.000481,0.06229,-0.014495
508,0.000481,0.0288,-0.050727
509,0.019703,0.012055,0.003621
510,0.019703,0.0288,0.021737
511,0.019703,0.0288,0.021737
512,0.019703,-0.00469,0.076085
513,0.019703,-0.00469,0.021737
514,0.000481,-0.00469,-0.014495
515,-0.01874,-0.00469,0.003621
516,0.000481,-0.021435,0.003621
517,0.019703,-0.021435,-0.014495
518,-0.01874,0.012055,0.021737
519,-0.01874,0.012055,0.039853
520,0.019703,0.012055,0.057969
521,0.000481,0.012055,0.039853
522,0.019703,-0.00469,-0.014495
523,-0.01874,-0.038179,-0.050727
524,0.000481,-0.038179,0.003621
525,0.000481,-0.038179,-0.050727
526,0.000481,-0.00469,0.003621
527,-0.01874,0.012055,0.003621
528,-0.01874,0.012055,-0.032611
529,0.000481,0.045545,0.021737
530,0.000481,0.012055,-0.032611
531,-0.037962,-0.054924,-0.014495
532,-0.037962,-0.054924,-0.014495
533,0.000481,-0.054924,-0.032611
534,0.000481,-0.038179,-0.014495
535,0.000481,-0.054924,0.003621
536,0.000481,-0.021435,0.039853
537,-0.01874,0.079034,0.003621
538,0.000481,0.06229,0.021737
539,0.000481,0.06229,0.003621
540,0.000481,0.045545,-0.068843
541,0.000481,0.045545,0.003621
542,0.000481,0.045545,-0.032611
543,-0.01874,-0.00469,0.003621
544,0.019703,-0.071669,0.039853
545,-0.01874,-0.071669,0.039853
546,0.000481,-0.054924,0.003621
547,0.019703,-0.00469,0.021737
548,0.019703,0.012055,0.021737
549,0.000481,0.045545,-0.032611
550,0.000481,0.06229,0.003621
551,0.000481,0.079034,-0.032611
552,-0.01874,0.0288,-0.050727
553,-0.037962,-0.00469,0.003621
554,0.000481,0.012055,-0.014495
555,0.000481,-0.00469,0.021737
556,-0.01874,0.012055,0.021737
557,-0.01874,0.0288,0.003621
558,0.019703,-0.00469,-0.050727
559,0.019703,0.012055,0.021737
560,0.019703,-0.00469,-0.014495
561,0.000481,-0.021435,0.003621
562,-0.01874,0.012055,0.003621
563,-0.01874,-0.00469,0.021737
564,-0.037962,-0.054924,0.039853
565,-0.037962,-0.071669,0.003621
566,0.019703,-0.071669,-0.014495
567,-0.01874,-0.071669,0.003621
568,0.000481,-0.054924,-0.032611
569,-0.01874,-0.054924,0.003621
570,-0.01874,-0.021435,0.021737
571,0.000481,0.0288,0.021737
572,-0.01874,0.079034,0.003621
573,0.000481,0.079034,0.057969
574,-0.01874,0.079034,0.003621
575,-0.01874,0.06229,0.003621
576,0.000481,0.0288,0.003621
577,-0.01874,-0.00469,0.003621
578,0.000481,-0.00469,0.021737
579,0.019703,0.012055,0.057969
580,0.000481,-0.00469,0.003621
581,-0.037962,0.0288,-0.014495
582,-0.01874,-0.00469,0.003621
583,0.000481,0.012055,-0.014495
584,-0.01874,0.012055,-0.014495
585,-0.037962,0.012055,-0.014495
586,0.000481,-0.00469,-0.014495
587,0.000481,-0.00469,-0.014495
588,0.019703,-0.021435,0.021737
589,-0.01874,-0.038179,0.003621
590,0.000481,-0.038179,-0.032611
591,0.019703,-0.00469,-0.014495
592,0.000481,0.012055,0.021737
593,-0.037962,-0.00469,0.039853
594,0.019703,0.045545,0.057969
595,0.000481,0.012055,0.021737
596,-0.01874,0.012055,0.021737
597,-0.01874,0.012055,0.057969
598,-0.037962,0.0288,-0.014495
599,-0.037962,0.012055,-0.014495
600,-0.01874,0.012055,0.003621
601,0.038924,0.0288,0.003621
602,0.077367,0.012055,0.021737
603,0.019703,-0.00469,-0.014495
604,-0.01874,-0.021435,-0.014495
605,-0.037962,-0.00469,0.003621
606,-0.01874,0.0288,0.039853
607,0.000481,-0.021435,0.003621
608,0.000481,-0.00469,0.057969
609,0.019703,-0.021435,0.003621
610,0.000481,0.012055,-0.014495
611,-0.01874,0.0288,0.021737
612,-0.01874,-0.038179,0.003621
613,-0.01874,-0.054924,0.003621
614,0.000481,-0.038179,0.039853
615,0.000481,-0.038179,-0.014495
616,-0.01874,-0.021435,-0.014495
617,-0.01874,-0.00469,0.003621
618,0.000481,-0.00469,0.003621
619,0.000481,0.012055,-0.050727
620,-0.037962,0.06229,-0.014495
621,0.000481,0.045545,-0.050727
622,0.000481,0.0288,-0.032611
623,-0.01874,0.012055,0.003621
624,0.019703,-0.021435,-0.014495
625,0.000481,-0.021435,-0.068843
626,0.019703,-0.00469,0.003621
627,0.000481,0.012055,0.003621
628,0.000481,0.012055,-0.032611
629,-0.01874,-0.00469,0.021737
630,0.000481,0.0288,0.003621
631,0.019703,0.0288,0.021737
632,0.000481,0.045545,0.021737
633,0.000481,0.012055,0.003621
634,-0.01874,0.0288,0.039853
635,-0.01874,0.0288,0.039853
636,0.000481,0.012055,-0.014495
637,0.019703,-0.00469,-0.050727
638,0.000481,-0.054924,0.003621
639,0.038924,-0.054924,0.003621
640,-0.01874,-0.021435,0.003621
641,-0.01874,-0.021435,0.021737
642,-0.01874,0.012055,-0.014495
643,0.000481,0.012055,0.039853
644,-0.01874,0.045545,-0.032611
645,0.000481,0.045545,-0.032611
646,0.000481,-0.021435,-0.014495
647,0.038924,-0.071669,-0.014495
648,0.000481,-0.038179,-0.032611
649,0.019703,-0.054924,0.003621
650,-0.01874,-0.021435,0.057969
651,-0.037962,-0.021435,0.021737
652,-0.01874,0.0288,0.057969
653,0.000481,0.012055,0.003621
654,0.019703,0.045545,0.021737
655,0.000481,0.045545,0.003621
656,0.000481,0.045545,0.003621
657,-0.037962,0.012055,0.021737
658,-0.037962,0.012055,0.039853
659,0.000481,-0.038179,0.003621
660,0.038924,-0.00469,0.003621
661,0.019703,-0.00469,-0.014495
662,-0.01874,0.012055,-0.014495
663,-0.01874,0.012055,0.003621
664,-0.01874,0.012055,0.039853
665,0.000481,0.012055,0.003621
666,0.000481,0.0288,0.003621
667,-0.01874,0.012055,0.021737
668,-0.01874,0.0288,-0.014495
669,0.019703,-0.00469,-0.050727
670,-0.01874,0.012055,-0.032611
671,-0.037962,-0.021435,-0.050727
672,0.000481,-0.021435,-0.068843
673,-0.037962,-0.021435,-0.032611
674,-0.037962,-0.021435,-0.068843
675,0.000481,-0.054924,0.003621
676,0.000481,-0.105159,0.003621
677,0.000481,-0.088414,-0.050727
678,-0.037962,-0.105159,-0.032611
679,-0.01874,-0.071669,-0.014495
680,0.000481,-0.054924,-0.032611
681,-0.037962,0.012055,0.003621
682,0.000481,0.079034,0.057969
683,0.019703,0.146014,0.057969
684,0.019703,0.162759,0.076085
685,-0.01874,0.095779,0.039853
686,0.000481,0.045545,0.003621
687,0.019703,0.0288,0.039853
688,0.019703,0.012055,0.003621
689,0.000481,-0.00469,-0.032611
690,-0.01874,0.012055,0.003621
691,-0.01874,0.0288,0.021737
692,-0.01874,0.06229,0.021737
693,-0.01874,0.045545,0.021737
694,0.000481,0.012055,0.021737
695,0.000481,0.0288,-0.014495
696,0.019703,0.012055,-0.014495
697,0.000481,0.012055,-0.032611
698,-0.01874,-0.00469,-0.014495
699,-0.01874,-0.00469,0.003621
700,0.019703,-0.038179,0.003621
701,0.000481,-0.00469,0.003621
702,0.000481,-0.021435,0.039853
703,0.000481,-0.021435,0.003621
704,-0.01874,-0.038179,-0.032611
705,0.000481,0.012055,0.003621
706,0.000481,-0.00469,-0.032611
707,0.000481,0.0288,0.003621
708,-0.01874,-0.00469,-0.032611
709,0.000481,0.012055,-0.068843
710,-0.01874,0.012055,0.003621
711,0.000481,0.0288,0.021737
712,0.019703,0.045545,0.003621
713,0.000481,0.0288,-0.032611
714,-0.01874,0.0288,0.003621
715,0.000481,0.012055,0.003621
716,0.000481,-0.021435,0.003621
717,0.000481,-0.021435,0.039853
718,0.000481,-0.00469,0.039853
719,0.000481,-0.00469,-0.014495
720,0.000481,-0.00469,-0.014495
721,0.000481,-0.00469,-0.032611
722,0.000481,-0.038179,-0.068843
723,0.000481,0.012055,-0.014495
724,0.000481,-0.00469,-0.032611
725,0.000481,-0.021435,0.021737
726,0.000481,-0.00469,0.057969
727,0.000481,0.012055,0.021737
728,0.000481,-0.021435,0.057969
729,0.000481,0.012055,-0.014495
730,0.000481,-0.00469,0.003621
731,-0.01874,-0.00469,0.021737
732,-0.01874,-0.00469,-0.032611
733,-0.01874,0.012055,0.021737
734,-0.01874,0.012055,0.021737
735,0.000481,-0.00469,0.021737
736,-0.01874,-0.038179,0.021737
737,0.000481,-0.038179,0.039853
738,-0.01874,-0.071669,0.003621
739,-0.01874,-0.054924,-0.014495
740,0.019703,-0.054924,0.003621
741,0.000481,-0.038179,-0.032611
742,-0.01874,-0.021435,-0.014495
743,0.000481,0.045545,0.003621
744,-0.01874,0.06229,-0.032611
745,-0.037962,0.0288,0.003621
746,-0.01874,0.045545,-0.014495
747,-0.01874,-0.00469,0.003621
748,0.000481,-0.00469,0.003621
749,-0.01874,-0.021435,0.003621
750,-0.01874,-0.021435,-0.050727
751,0.000481,0.012055,0.021737
752,0.000481,0.012055,0.003621
753,0.000481,0.045545,0.003621
754,0.000481,0.06229,0.057969
755,0.019703,0.045545,0.021737
756,0.000481,0.0288,-0.032611
757,-0.037962,0.045545,0.021737
758,0.000481,0.0288,-0.032611
759,0.000481,0.0288,0.021737
760,0.000481,-0.021435,-0.032611
761,0.000481,-0.00469,0.003621
762,0.019703,-0.021435,-0.014495
763,-0.01874,-0.00469,0.003621
764,-0.01874,-0.038179,-0.014495
765,0.000481,-0.038179,-0.068843
766,-0.01874,-0.071669,-0.014495
767,-0.057183,-0.071669,-0.014495
768,-0.01874,-0.088414,0.021737
769,-0.01874,-0.071669,0.021737
770,-0.037962,-0.088414,0.039853
771,-0.01874,-0.105159,0.039853
772,0.000481,-0.021435,0.021737
773,-0.01874,0.0288,0.021737
774,-0.01874,0.079034,-0.032611
775,0.000481,0.095779,0.003621
776,0.019703,0.129269,0.003621
777,0.000481,0.095779,0.003621
778,0.000481,0.112524,0.021737
779,0.019703,0.06229,0.003621
780,0.038924,0.0288,0.021737
781,-0.01874,0.012055,-0.014495
782,-0.01874,0.012055,-0.050727
783,0.000481,-0.00469,-0.050727
784,0.000481,0.012055,-0.068843
785,-0.01874,-0.021435,-0.032611
786,0.038924,-0.021435,0.021737
787,-0.01874,-0.00469,0.039853
788,-0.01874,-0.00469,0.003621
789,-0.037962,0.045545,0.039853
790,0.000481,-0.071669,0.003621
791,0.000481,-0.021435,-0.014495
792,0.000481,-0.038179,0.021737
793,0.019703,-0.021435,-0.032611
794,0.000481,-0.00469,0.021737
795,-0.01874,0.0288,0.039853
796,-0.01874,0.012055,0.021737
797,-0.01874,0.012055,0.003621
798,0.000481,0.0288,0.003621
799,0.000481,-0.00469,-0.032611
800,0.000481,0.012055,-0.032611
801,0.000481,0.012055,0.003621
802,0.000481,0.012055,-0.032611
803,0.000481,-0.00469,0.021737
804,0.000481,0.012055,0.076085
805,0.000481,0.012055,0.021737
806,0.000481,0.012055,0.039853
807,0.000481,0.0288,0.003621
808,0.000481,0.0288,-0.050727
809,0.000481,-0.00469,-0.032611
810,0.000481,-0.021435,-0.050727
811,-0.01874,-0.00469,-0.014495
812,-0.037962,-0.021435,0.003621
813,-0.01874,-0.00469,0.021737
814,0.000481,-0.00469,-0.014495
815,0.000481,-0.00469,-0.014495
816,0.000481,-0.00469,0.003621
817,-0.01874,-0.021435,-0.050727
818,-0.037962,0.012055,0.003621
819,-0.01874,-0.021435,0.021737
820,-0.01874,-0.00469,0.039853
821,-0.01874,0.012055,0.021737
822,0.000481,-0.00469,0.003621
823,0.000481,-0.00469,0.003621
824,-0.01874,-0.00469,0.021737
825,-0.01874,0.012055,-0.014495
826,0.000481,0.012055,-0.014495
827,0.000481,-0.021435,0.021737
828,0.019703,-0.00469,-0.050727
829,0.000481,0.012055,-0.050727
830,0.000481,0.012055,-0.032611
831,0.000481,0.0288,-0.014495
832,0.000481,-0.021435,-0.050727
833,0.000481,0.012055,-0.014495
834,0.000481,-0.021435,-0.050727
835,0.000481,-0.00469,-0.032611
836,0.000481,0.012055,0.003621
837,0.000481,-0.00469,-0.032611
838,-0.01874,-0.00469,0.039853
839,0.000481,-0.021435,0.112317
840,-0.01874,-0.00469,0.021737
841,-0.01874,-0.00469,0.057969
842,0.019703,-0.00469,0.021737
843,0.000481,-0.00469,-0.014495
844,-0.01874,0.0288,-0.032611
845,-0.01874,-0.021435,-0.014495
846,0.000481,-0.038179,-0.032611
847,0.000481,-0.021435,-0.014495
848,-0.01874,-0.00469,0.021737
849,-0.01874,-0.054924,-0.032611
850,-0.01874,-0.038179,0.021737
851,0.000481,-0.021435,-0.014495
852,-0.01874,-0.021435,-0.014495
853,-0.037962,-0.00469,0.039853
854,-0.01874,0.0288,0.039853
855,0.019703,0.079034,0.039853
856,0.019703,0.079034,0.057969
857,0.019703,0.06229,0.057969
858,0.000481,0.0288,0.021737
859,0.000481,0.012055,0.021737
860,-0.01874,0.012055,-0.014495
861,0.000481,-0.00469,-0.032611
862,0.000481,0.012055,0.003621
863,0.000481,0.0288,0.003621
864,0.000481,0.012055,0.003621
865,0.000481,0.012055,0.039853
866,-0.01874,-0.00469,0.021737
867,-0.01874,-0.00469,-0.014495
868,0.000481,-0.00469,-0.050727
869,0.000481,0.0288,-0.032611
870,0.000481,0.012055,-0.014495
871,0.000481,-0.00469,0.003621
872,0.019703,0.012055,0.003621
873,-0.01874,-0.021435,-0.014495
874,-0.01874,0.012055,0.021737
875,0.000481,-0.00469,0.003621
876,-0.01874,-0.00469,-0.032611
877,0.000481,-0.00469,0.003621
878,0.000481,-0.00469,0.003621
879,0.019703,-0.00469,0.003621
880,-0.01874,-0.00469,0.021737
881,0.000481,-0.00469,0.021737
882,-0.01874,0.012055,0.039853
883,0.000481,0.012055,0.021737
884,-0.01874,0.012055,-0.014495
885,-0.01874,-0.00469,-0.014495
886,-0.01874,-0.00469,0.003621
887,-0.01874,0.012055,-0.032611
888,0.000481,0.012055,0.021737
889,0.019703,-0.00469,0.039853
890,0.000481,0.012055,0.003621
891,0.019703,-0.00469,-0.014495
892,0.000481,-0.00469,0.003621
893,0.000481,-0.021435,-0.032611
894,0.000481,0.012055,-0.014495
895,-0.01874,0.012055,-0.032611
896,0.000481,-0.00469,-0.014495
897,0.000481,-0.00469,0.003621
898,-0.01874,-0.00469,0.039853
899,-0.037962,-0.00469,0.003621
900,-0.01874,-0.00469,0.021737
901,0.000481,-0.021435,0.021737
902,0.000481,0.012055,-0.014495
903,0.000481,-0.00469,-0.014495
904,0.019703,0.0288,0.003621
905,-0.01874,-0.00469,0.021737
906,0.000481,-0.021435,0.021737
907,-0.01874,0.012055,0.003621
908,0.000481,0.012055,-0.014495
909,0.019703,0.012055,0.003621
910,0.000481,0.012055,0.021737
911,0.000481,0.012055,0.003621
912,0.019703,0.012055,-0.014495
913,-0.01874,0.012055,-0.032611
914,0.019703,-0.00469,0.003621
915,0.000481,0.012055,0.057969
916,0.000481,0.012055,0.021737
917,0.000481,0.012055,0.021737
918,-0.01874,-0.00469,0.003621
919,0.000481,-0.00469,-0.050727
920,-0.01874,-0.00469,0.003621
921,0.038924,-0.00469,-0.014495
922,0.000481,0.012055,-0.014495
923,-0.01874,-0.00469,0.039853
924,-0.01874,0.012055,0.021737
925,-0.037962,-0.021435,0.003621
926,-0.01874,-0.00469,-0.050727
927,0.000481,-0.00469,-0.050727
928,0.000481,-0.00469,-0.068843
929,0.000481,0.0288,0.021737
930,0.000481,-0.00469,-0.014495
931,0.019703,0.0288,0.003621
932,0.000481,0.0288,0.039853
933,-0.01874,-0.00469,-0.014495
934,-0.01874,-0.00469,0.003621
935,0.019703,-0.021435,0.003621
936,0.019703,0.012055,-0.032611
937,0.000481,-0.021435,0.003621
938,-0.01874,-0.021435,-0.014495
939,-0.01874,-0.054924,-0.050727
940,-0.01874,-0.00469,0.039853
941,0.000481,0.012055,0.094201
942,0.000481,0.012055,-0.014495
943,-0.037962,-0.00469,0.039853
944,0.000481,-0.021435,0.003621
945,0.000481,-0.021435,-0.032611
946,0.000481,-0.00469,-0.050727
947,-0.01874,-0.021435,-0.032611
948,-0.037962,-0.00469,-0.032611
949,-0.01874,0.045545,0.003621
950,-0.01874,0.012055,0.039853
951,0.019703,-0.021435,-0.014495
952,-0.01874,0.012055,0.021737
953,-0.037962,-0.00469,0.003621
954,0.000481,-0.00469,-0.014495
955,-0.037962,0.0288,0.003621
956,0.000481,0.045545,0.003621
957,0.000481,-0.00469,0.003621
958,0.000481,-0.021435,0.021737
959,0.000481,0.012055,0.094201
960,0.000481,0.012055,0.076085
961,-0.01874,-0.00469,0.094201
962,0.019703,0.045545,0.021737
963,0.000481,0.012055,0.003621
964,0.000481,0.012055,-0.014495
965,0.000481,0.012055,0.021737
966,0.019703,0.0288,0.039853
967,0.000481,0.0288,0.076085
968,0.000481,-0.021435,0.021737
969,0.000481,0.012055,0.039853
970,-0.01874,0.012055,0.039853
971,0.000481,0.0288,0.039853
972,0.019703,0.012055,0.003621
973,-0.037962,-0.00469,-0.032611
974,-0.037962,0.012055,-0.068843
975,0.019703,-0.038179,-0.050727
976,-0.037962,-0.00469,0.003621
977,-0.01874,-0.00469,0.003621
978,0.019703,-0.00469,0.057969
979,0.019703,-0.00469,0.003621
980,0.019703,0.012055,-0.014495
981,0.000481,0.045545,-0.032611
982,0.000481,0.012055,-0.014495
983,0.000481,0.012055,-0.068843
984,0.019703,-0.00469,-0.050727
985,-0.01874,-0.00469,0.003621
986,-0.01874,-0.021435,0.003621
987,0.000481,-0.021435,0.021737
988,-0.037962,-0.00469,-0.032611
989,-0.037962,-0.00469,-0.050727
990,-0.037962,-0.00469,-0.032611
991,-0.01874,-0.00469,0.039853
992,0.019703,-0.021435,0.021737
993,0.000481,0.012055,0.003621
994,0.038924,-0.00469,0.039853
995,0.000481,0.012055,0.003621
996,0.000481,0.012055,0.003621
997,0.038924,0.012055,0.021737
998,0.019703,0.012055,0.003621
999,0.000481,0.012055,0.039853
1000,0.000481,0.0288,0.021737
1001,0.000481,0.0288,0.021737
1002,0.019703,0.0288,0.021737
1003,-0.01874,0.012055,0.003621
1004,-0.057183,-0.038179,0.003621
1005,-0.01874,0.012055,0.039853
1006,-0.01874,-0.00469,0.003621
1007,-0.01874,-0.00469,-0.050727
1008,0.019703,0.012055,0.021737
1009,-0.01874,-0.021435,-0.032611
1010,-0.01874,-0.021435,-0.014495
1011,-0.01874,-0.00469,-0.014495
1012,-0.01874,-0.021435,-0.014495
1013,-0.01874,-0.00469,0.057969
1014,0.000481,0.012055,0.003621
1015,0.038924,-0.00469,-0.032611
1016,0.019703,0.045545,0.003621
1017,0.038924,0.079034,0.003621
1018,0.038924,0.012055,-0.014495
1019,0.019703,0.045545,0.112317
1020,0.038924,0.06229,0.112317
1021,0.058146,0.045545,0.148549
1022,0.038924,0.0288,0.148549
1023,0.000481,0.0288,0.039853
1024,0.000481,0.012055,-0.050727
1025,-0.037962,-0.021435,-0.141307
1026,-0.095626,-0.088414,-0.159423
1027,-0.076405,-0.054924,-0.141307
1028,-0.037962,-0.038179,-0.105075
1029,-0.01874,0.012055,0.003621
1030,0.038924,0.0288,0.039853
1031,0.038924,0.06229,0.112317
1032,0.077367,0.06229,0.094201
1033,0.019703,0.06229,0.039853
1034,-0.01874,0.012055,0.021737
1035,-0.037962,0.012055,-0.014495
1036,-0.037962,-0.038179,0.039853
1037,-0.01874,-0.021435,0.057969
1038,-0.01874,-0.00469,0.057969
1039,-0.01874,0.0288,0.076085
1040,-0.01874,0.012055,0.094201
1041,-0.01874,0.0288,0.130433
1042,-0.01874,0.0288,0.112317
1043,-0.01874,0.0288,0.166665
1044,0.000481,0.079034,0.148549
1045,0.038924,0.079034,0.076085
1046,0.038924,0.0288,0.003621
1047,0.038924,0.012055,-0.032611
1048,0.000481,-0.038179,-0.123191
1049,-0.037962,-0.038179,-0.159423
1050,0.000481,-0.021435,-0.159423
1051,0.038924,-0.054924,-0.086959
1052,0.038924,-0.021435,-0.014495
1053,0.038924,-0.038179,-0.050727
1054,-0.076405,-0.088414,-0.141307
1055,-0.095626,-0.071669,-0.105075
1056,-0.076405,-0.021435,0.057969
1057,-0.037962,0.012055,0.166665
1058,0.000481,0.0288,0.148549
1059,0.000481,-0.00469,0.130433
1060,0.000481,0.0288,0.094201
1061,0.019703,0.0288,0.094201
1062,0.019703,0.0288,-0.014495
1063,0.019703,-0.00469,-0.105075
1064,0.038924,0.045545,-0.050727
1065,0.038924,-0.021435,-0.086959
1066,-0.01874,-0.00469,-0.032611
1067,0.000481,-0.021435,-0.159423
1068,-0.037962,-0.038179,-0.177539
1069,-0.01874,-0.00469,-0.086959
1070,-0.01874,-0.038179,-0.086959
1071,-0.01874,-0.021435,-0.014495
1072,-0.01874,-0.021435,0.021737
1073,0.019703,0.0288,0.130433
1074,0.000481,0.0288,0.112317
1075,0.000481,0.06229,0.094201
1076,0.038924,0.045545,0.076085
1077,0.019703,0.045545,0.076085
1078,0.038924,0.06229,0.112317
1079,0.000481,0.0288,0.094201
1080,0.000481,0.06229,0.057969
1081,0.000481,-0.00469,0.021737
1082,0.000481,-0.021435,-0.032611
1083,0.038924,-0.038179,-0.032611
1084,0.038924,0.0288,0.039853
1085,0.077367,0.06229,0.094201
1086,0.038924,0.045545,0.039853
1087,-0.037962,-0.038179,-0.086959
1088,-0.114848,-0.071669,-0.213771
1089,-0.134069,-0.088414,-0.213771
1090,-0.191734,-0.071669,-0.159423
1091,-0.153291,-0.071669,-0.105075
1092,-0.057183,-0.00469,-0.050727
1093,-0.01874,-0.038179,-0.032611
1094,0.019703,-0.071669,-0.123191
1095,0.154253,0.045545,0.057969
1096,0.211918,0.06229,0.221013
1097,0.154253,0.112524,0.329708
1098,0.135032,0.095779,0.293477
1099,0.058146,-0.021435,0.130433
1100,0.000481,-0.038179,-0.123191
1101,-0.057183,-0.071669,-0.123191
1102,-0.153291,-0.138648,-0.195655
1103,-0.153291,-0.138648,-0.286235
1104,-0.095626,-0.071669,-0.268119
1105,-0.037962,-0.021435,-0.123191
1106,0.000481,-0.054924,-0.032611
1107,-0.01874,-0.00469,0.039853
1108,0.058146,0.06229,0.148549
1109,0.096589,0.06229,0.094201
1110,0.11581,0.112524,0.130433
1111,0.077367,0.129269,0.257245
1112,0.019703,0.095779,0.094201
1113,-0.076405,-0.038179,-0.231887
1114,-0.095626,-0.088414,-0.304351
1115,-0.057183,-0.071669,-0.213771
1116,-0.037962,-0.021435,-0.086959
1117,-0.01874,0.045545,-0.032611
1118,-0.057183,-0.021435,-0.213771
1119,-0.057183,-0.021435,-0.195655
1120,0.000481,0.012055,-0.068843
1121,0.038924,0.079034,0.094201
1122,0.11581,0.079034,0.257245
1123,0.154253,0.079034,0.239129
1124,0.135032,0.112524,0.36594
1125,0.077367,0.045545,0.420288
1126,0.058146,0.045545,0.329708
1127,0.058146,0.06229,0.36594
1128,0.000481,-0.00469,0.148549
1129,-0.037962,-0.021435,0.057969
1130,0.000481,-0.038179,0.057969
1131,0.019703,-0.00469,0.184781
1132,-0.057183,-0.021435,0.130433
1133,-0.153291,-0.054924,0.003621
1134,-0.095626,-0.054924,-0.177539
1135,-0.191734,-0.138648,-0.431163
1136,-0.191734,-0.188883,-0.521743
1137,-0.134069,-0.155393,-0.467395
1138,-0.037962,-0.071669,-0.268119
1139,0.038924,0.0288,-0.068843
1140,0.038924,0.045545,0.039853
1141,0.019703,0.095779,0.094201
1142,0.135032,0.129269,0.239129
1143,0.096589,0.112524,0.221013
1144,0.077367,0.045545,0.166665
1145,0.11581,0.112524,0.293477
1146,0.096589,0.079034,0.130433
1147,-0.037962,-0.071669,-0.141307
1148,-0.01874,-0.038179,-0.105075
1149,-0.037962,-0.038179,-0.123191
1150,-0.191734,-0.121903,-0.213771
1151,-0.153291,-0.121903,-0.123191
1152,-0.095626,-0.071669,-0.014495
1153,-0.037962,-0.021435,0.021737
1154,0.019703,0.012055,0.076085
1155,-0.01874,-0.00469,0.021737
1156,-0.01874,0.0288,0.166665
1157,0.019703,0.06229,0.474636
1158,0.019703,0.06229,0.384056
1159,-0.01874,0.112524,0.384056
1160,0.038924,0.06229,-0.032611
1161,0.000481,-0.054924,-0.394931
1162,0.019703,-0.038179,-0.286235
1163,0.019703,0.012055,-0.159423
1164,0.038924,0.012055,-0.123191
1165,0.000481,-0.038179,-0.086959
1166,-0.01874,-0.021435,-0.086959
1167,0.000481,-0.00469,-0.050727
1168,-0.01874,0.012055,-0.014495
1169,-0.037962,-0.054924,-0.014495
1170,0.038924,0.012055,0.039853
1171,0.038924,0.079034,0.057969
1172,-0.037962,0.012055,-0.068843
1173,-0.095626,-0.105159,-0.195655
1174,-0.037962,-0.088414,-0.177539
1175,-0.076405,-0.054924,0.021737
1176,-0.037962,-0.054924,0.021737
1177,-0.057183,-0.071669,0.057969
1178,-0.01874,-0.00469,0.003621
1179,0.019703,0.079034,-0.068843
1180,0.019703,0.06229,-0.014495
1181,0.038924,0.045545,0.130433
1182,0.000481,0.045545,0.112317
1183,0.019703,0.079034,0.112317
1184,0.11581,0.079034,0.184781
1185,0.058146,0.112524,0.166665
1186,-0.01874,0.079034,0.239129
1187,-0.134069,-0.054924,0.021737
1188,-0.114848,-0.088414,-0.105075
1189,-0.134069,-0.105159,-0.050727
1190,-0.076405,0.0288,-0.086959
1191,0.019703,-0.00469,-0.250003
1192,-0.01874,-0.038179,-0.177539
1193,0.096589,0.0288,-0.068843
1194,0.077367,-0.00469,-0.014495
1195,0.096589,0.045545,0.112317
1196,0.096589,0.0288,0.076085
1197,0.000481,-0.021435,-0.086959
1198,-0.01874,0.0288,-0.014495
1199,0.058146,0.079034,0.094201
1200,0.019703,0.0288,0.003621
1201,-0.057183,-0.054924,-0.250003
1202,-0.095626,-0.138648,-0.394931
1203,-0.076405,-0.105159,-0.286235
1204,-0.114848,-0.088414,-0.086959
1205,-0.095626,-0.021435,-0.014495
1206,-0.057183,0.012055,-0.032611
1207,-0.01874,-0.00469,0.039853
1208,0.019703,0.079034,0.112317
1209,0.077367,0.06229,0.202897
1210,0.058146,0.045545,0.130433
1211,0.038924,0.0288,0.057969
1212,0.077367,0.045545,0.003621
1213,0.038924,-0.038179,-0.050727
1214,0.019703,-0.038179,-0.086959
1215,-0.037962,-0.038179,-0.141307
1216,-0.076405,-0.038179,-0.105075
1217,-0.01874,0.012055,0.003621
1218,0.000481,0.06229,0.112317
1219,0.038924,0.095779,0.257245
1220,0.11581,0.146014,0.293477
1221,-0.037962,-0.021435,0.039853
1222,-0.076405,-0.088414,-0.050727
1223,-0.01874,-0.038179,-0.032611
1224,0.000481,-0.021435,0.057969
1225,0.019703,0.0288,0.076085
1226,-0.01874,0.045545,-0.086959
1227,-0.037962,-0.038179,-0.123191
1228,-0.037962,-0.038179,-0.014495
1229,0.019703,-0.00469,0.076085
1230,0.058146,0.0288,0.184781
1231,0.019703,0.06229,0.112317
1232,-0.037962,0.06229,0.039853
1233,0.019703,0.045545,0.003621
1234,-0.057183,-0.138648,-0.413047
1235,-0.153291,-0.138648,-0.394931
1236,-0.057183,-0.071669,-0.141307
1237,-0.057183,-0.00469,-0.014495
1238,-0.037962,-0.00469,0.003621
1239,-0.037962,0.012055,-0.014495
1240,-0.01874,0.012055,-0.014495
1241,-0.057183,-0.021435,-0.068843
1242,-0.01874,0.012055,-0.032611
1243,-0.01874,0.012055,-0.032611
1244,0.038924,0.0288,-0.014495
1245,0.019703,-0.00469,0.021737
1246,0.000481,-0.00469,-0.032611
1247,0.11581,-0.00469,0.003621
1248,0.154253,0.012055,0.057969
1249,0.058146,-0.00469,0.057969
1250,0.019703,0.0288,0.076085
1251,-0.114848,0.079034,0.148549
1252,-0.095626,0.129269,0.221013
1253,0.000481,0.112524,0.293477
1254,0.077367,0.095779,0.202897
1255,0.135032,-0.00469,-0.050727
1256,0.058146,-0.071669,-0.195655
1257,0.135032,0.0288,0.021737
1258,0.077367,0.012055,0.057969
1259,0.019703,0.012055,-0.014495
1260,-0.153291,-0.121903,-0.286235
1261,-0.26862,-0.105159,-0.231887
1262,-0.172512,-0.00469,0.021737
1263,-0.057183,0.012055,0.094201
1264,0.019703,0.012055,0.057969
1265,-0.057183,-0.038179,-0.050727
1266,-0.114848,-0.071669,-0.213771
1267,-0.037962,-0.054924,-0.195655
1268,0.058146,0.0288,-0.014495
1269,0.077367,0.012055,-0.014495
1270,0.11581,-0.038179,-0.050727
1271,0.11581,-0.00469,0.021737
1272,0.096589,-0.00469,0.112317
1273,0.038924,-0.00469,0.021737
1274,-0.134069,0.0288,0.057969
1275,-0.134069,-0.021435,0.057969
1276,-0.01874,-0.00469,0.148549
1277,0.077367,0.079034,0.202897
1278,0.077367,0.095779,0.166665
1279,0.058146,0.045545,-0.014495
1280,0.019703,-0.00469,0.003621
1281,0.038924,0.0288,0.039853
1282,0.058146,0.045545,0.039853
1283,-0.037962,-0.038179,-0.123191
1284,-0.095626,-0.054924,-0.231887
1285,-0.095626,-0.054924,-0.123191
1286,-0.076405,-0.121903,-0.068843
1287,-0.057183,-0.155393,-0.086959
1288,-0.037962,-0.121903,-0.050727
1289,-0.01874,-0.054924,0.003621
1290,-0.01874,-0.021435,0.003621
1291,-0.037962,0.012055,0.057969
1292,-0.01874,-0.00469,0.057969
1293,0.038924,-0.00469,0.021737
1294,0.077367,0.0288,-0.014495
1295,0.077367,-0.00469,-0.014495
1296,0.096589,0.06229,-0.050727
1297,0.11581,0.045545,-0.014495
1298,0.11581,0.012055,0.021737
1299,0.038924,-0.00469,-0.014495
1300,-0.076405,-0.021435,-0.014495
1301,-0.172512,0.012055,0.003621
1302,-0.172512,0.06229,-0.014495
1303,-0.153291,0.079034,0.021737
1304,-0.076405,0.112524,0.003621
1305,-0.057183,0.079034,0.021737
1306,-0.037962,0.045545,0.039853
1307,-0.076405,0.012055,0.094201
1308,-0.037962,0.045545,0.021737
1309,-0.076405,0.0288,0.057969
1310,0.000481,0.06229,0.076085
1311,-0.01874,0.079034,-0.014495
1312,0.000481,0.06229,0.003621
1313,0.038924,0.0288,-0.032611
1314,0.038924,0.012055,-0.086959
1315,0.038924,-0.105159,0.003621
1316,-0.095626,-0.121903,0.039853
1317,-0.191734,-0.239117,0.039853
1318,-0.037962,-0.188883,0.076085
1319,0.000481,-0.222372,0.039853
1320,-0.076405,-0.205628,-0.014495
1321,-0.057183,-0.155393,0.003621
1322,0.000481,-0.071669,0.003621
1323,0.096589,-0.021435,0.003621
1324,0.058146,-0.00469,0.003621
1325,-0.037962,0.079034,0.039853
1326,0.000481,0.129269,-0.068843
1327,0.231139,0.146014,-0.050727
1328,0.327247,0.263228,-0.105075
1329,0.154253,0.263228,-0.050727
1330,-0.095626,0.212993,0.021737
1331,-0.095626,0.196248,0.003621
1332,-0.057183,0.146014,0.076085
1333,0.019703,0.129269,0.130433
1334,0.077367,0.112524,0.166665
1335,0.077367,0.079034,0.094201
1336,0.058146,0.045545,-0.014495
1337,0.038924,0.079034,-0.068843
1338,0.000481,-0.038179,-0.177539
1339,-0.01874,-0.138648,-0.141307
1340,-0.01874,-0.105159,-0.086959
1341,-0.01874,-0.121903,-0.014495
1342,-0.037962,-0.222372,0.003621
1343,-0.076405,-0.239117,0.021737
1344,-0.057183,-0.239117,0.057969
1345,0.000481,-0.205628,0.003621
1346,0.077367,-0.155393,0.003621
1347,0.058146,-0.205628,0.057969
1348,0.019703,-0.188883,0.039853
1349,0.038924,-0.071669,0.021737
1350,-0.01874,0.0288,0.021737
1351,-0.037962,0.095779,0.039853
1352,-0.057183,0.079034,-0.014495
1353,0.038924,0.146014,0.021737
1354,0.038924,0.162759,-0.032611
1355,-0.114848,0.079034,-0.086959
1356,-0.210955,0.06229,-0.050727
1357,-0.057183,0.229738,-0.014495
1358,0.077367,0.179503,0.003621
1359,0.11581,0.112524,0.039853
1360,0.077367,0.06229,0.039853
1361,0.019703,0.012055,0.021737
1362,-0.037962,-0.00469,0.057969
1363,-0.057183,-0.00469,0.003621
1364,-0.153291,-0.054924,-0.050727
1365,-0.076405,0.012055,-0.050727
1366,0.000481,0.012055,-0.032611
1367,0.058146,0.0288,-0.014495
1368,0.077367,0.045545,-0.014495
1369,0.000481,0.012055,-0.014495
1370,-0.01874,-0.038179,0.039853
1371,-0.076405,-0.105159,0.021737
1372,-0.076405,-0.205628,0.021737
1373,-0.095626,-0.42331,0.003621
1374,-0.076405,-0.42331,0.021737
1375,0.019703,-0.255862,0.021737
1376,0.038924,-0.105159,0.039853
1377,0.038924,-0.155393,0.003621
1378,0.000481,-0.105159,-0.014495
1379,0.000481,-0.038179,-0.050727
1380,0.000481,0.112524,-0.032611
1381,-0.037962,0.296717,-0.123191
1382,0.038924,0.497655,-0.086959
1383,0.038924,0.564634,-0.050727
1384,0.038924,0.5144,-0.068843
1385,0.019703,0.48091,0.039853
1386,-0.01874,0.447421,0.094201
1387,-0.037962,0.413931,0.130433
1388,0.038924,0.313462,0.148549
1389,0.077367,0.146014,0.039853
1390,0.096589,0.012055,-0.014495
1391,0.077367,-0.088414,-0.050727
1392,0.019703,-0.306097,-0.123191
1393,0.000481,-0.389821,-0.068843
1394,-0.01874,-0.523779,0.003621
1395,-0.01874,-0.49029,0.021737
1396,-0.01874,-0.339586,0.003621
1397,-0.076405,-0.172138,0.003621
1398,-0.095626,0.012055,-0.014495
1399,-0.114848,0.095779,-0.068843
1400,-0.134069,0.212993,-0.014495
1401,-0.095626,0.313462,-0.032611
1402,-0.01874,0.447421,0.003621
1403,0.019703,0.397186,0.021737
1404,0.077367,0.229738,0.057969
1405,0.096589,0.179503,0.039853
1406,0.058146,0.095779,0.039853
1407,0.096589,0.095779,0.021737
1408,0.11581,0.079034,-0.014495
1409,0.096589,0.0288,0.021737
1410,0.058146,0.012055,0.003621
1411,0.038924,-0.021435,0.003621
1412,0.000481,-0.038179,0.021737
1413,0.019703,-0.088414,-0.068843
1414,-0.037962,-0.054924,-0.014495
1415,-0.01874,-0.088414,-0.032611
1416,0.019703,-0.105159,-0.050727
1417,-0.037962,-0.071669,-0.086959
1418,-0.01874,-0.071669,-0.068843
1419,-0.01874,-0.138648,-0.032611
1420,-0.037962,-0.222372,0.003621
1421,-0.01874,-0.222372,0.021737
1422,-0.037962,-0.155393,0.003621
1423,-0.01874,-0.121903,0.021737
1424,-0.037962,-0.138648,-0.014495
1425,-0.037962,-0.205628,-0.014495
1426,-0.076405,-0.105159,0.003621
1427,-0.057183,-0.054924,0.003621
1428,-0.01874,0.079034,0.021737
1429,0.038924,0.112524,0.039853
1430,0.096589,0.112524,0.057969
1431,0.11581,0.095779,0.039853
1432,0.077367,0.112524,0.021737
1433,0.058146,0.179503,0.003621
1434,0.154253,0.212993,-0.050727
1435,0.11581,-0.155393,0.021737
1436,-0.057183,-0.507035,-0.050727
1437,-0.076405,-0.507035,-0.014495
1438,-0.037962,-0.306097,0.021737
1439,-0.076405,-0.172138,-0.032611
1440,-0.191734,-0.088414,-0.014495
1441,-0.230177,0.012055,0.003621
1442,-0.191734,0.162759,-0.014495
1443,-0.172512,0.296717,-0.032611
1444,-0.095626,0.279972,-0.032611
1445,-0.057183,0.162759,-0.014495
1446,-0.095626,0.012055,0.057969
1447,-0.114848,0.06229,0.021737
1448,0.019703,0.129269,-0.014495
1449,0.11581,0.229738,0.039853
1450,0.11581,0.196248,-0.032611
1451,0.173475,0.212993,-0.050727
1452,0.192696,0.179503,-0.014495
1453,0.173475,0.146014,-0.014495
1454,0.173475,0.179503,0.057969
1455,0.154253,0.079034,0.094201
1456,0.077367,0.012055,0.076085
1457,0.000481,-0.00469,0.076085
1458,-0.037962,-0.038179,0.039853
1459,-0.01874,-0.021435,0.039853
1460,0.038924,-0.021435,0.021737
1461,0.019703,-0.054924,0.039853
1462,0.000481,-0.121903,0.021737
1463,0.038924,-0.138648,0.021737
1464,0.000481,-0.121903,0.039853
1465,-0.095626,-0.105159,-0.014495
1466,-0.114848,-0.105159,-0.014495
1467,-0.114848,-0.188883,-0.032611
1468,-0.057183,-0.172138,-0.068843
1469,-0.057183,-0.155393,-0.068843
1470,0.019703,-0.088414,-0.032611
1471,0.038924,-0.038179,0.003621
1472,0.000481,0.079034,0.003621
1473,0.000481,0.079034,-0.014495
1474,0.019703,0.095779,-0.014495
1475,0.000481,0.162759,0.039853
1476,-0.01874,0.196248,0.003621
1477,-0.037962,0.112524,-0.014495
1478,-0.057183,0.079034,0.003621
1479,0.038924,0.045545,0.003621
1480,0.058146,0.0288,0.021737
1481,0.058146,0.06229,0.057969
1482,0.058146,0.079034,0.076085
1483,0.038924,0.045545,-0.014495
1484,0.000481,0.045545,-0.014495
1485,0.000481,-0.00469,-0.068843
1486,-0.01874,-0.00469,-0.123191
1487,-0.076405,-0.088414,-0.123191
1488,-0.095626,-0.088414,-0.123191
1489,-0.076405,-0.105159,0.003621
1490,-0.037962,-0.105159,0.039853
1491,-0.037962,-0.071669,0.039853
1492,-0.01874,-0.071669,0.039853
1493,-0.037962,-0.038179,0.039853
1494,0.000481,0.012055,0.021737
1495,-0.01874,0.012055,-0.014495
1496,-0.057183,0.045545,0.003621
1497,-0.076405,0.079034,-0.032611
1498,0.000481,0.045545,-0.014495
1499,0.000481,-0.00469,0.039853
1500,0.000481,-0.071669,-0.014495
1501,-0.01874,-0.071669,0.057969
1502,-0.01874,-0.071669,0.021737
1503,0.000481,-0.021435,0.021737
1504,0.000481,-0.038179,0.003621
1505,-0.037962,-0.105159,0.021737
1506,-0.01874,-0.038179,0.021737
1507,0.019703,0.012055,0.039853
1508,0.019703,0.112524,0.039853
1509,0.000481,0.012055,0.021737
1510,0.000481,0.012055,0.057969
1511,-0.01874,0.0288,0.003621
1512,0.000481,0.06229,-0.014495
1513,-0.01874,0.06229,0.003621
1514,-0.01874,-0.00469,0.003621
1515,-0.01874,-0.021435,0.003621
1516,-0.057183,-0.021435,0.003621
1517,-0.057183,-0.105159,0.003621
1518,-0.057183,-0.172138,-0.032611
1519,-0.037962,-0.155393,0.021737
1520,0.019703,-0.105159,-0.032611
1521,-0.01874,-0.054924,-0.050727
1522,0.000481,0.0288,-0.032611
1523,0.019703,0.112524,-0.050727
1524,0.058146,0.146014,0.003621
1525,0.077367,0.179503,0.039853
1526,0.058146,0.196248,0.057969
1527,0.038924,0.146014,0.057969
1528,0.038924,0.112524,0.112317
1529,0.038924,0.112524,0.130433
1530,0.038924,0.112524,0.148549
1531,0.038924,0.079034,0.166665
1532,0.019703,0.045545,0.112317
1533,0.000481,0.0288,0.130433
1534,0.019703,0.012055,0.094201
1535,0.019703,-0.021435,-0.068843
1536,0.000481,-0.038179,-0.159423
1537,0.000481,-0.038179,-0.141307
1538,0.000481,-0.038179,-0.123191
1539,-0.01874,-0.088414,-0.123191
1540,-0.01874,-0.021435,-0.050727
1541,0.000481,-0.038179,-0.086959
1542,-0.037962,-0.021435,-0.014495
1543,0.000481,-0.021435,-0.014495
1544,-0.01874,-0.021435,-0.014495
1545,0.000481,-0.021435,0.039853
1546,0.000481,-0.021435,0.021737
1547,0.000481,-0.021435,-0.032611
1548,0.019703,-0.038179,-0.014495
1549,0.000481,-0.071669,0.094201
1550,0.000481,-0.021435,-0.014495
1551,-0.037962,-0.054924,0.021737
1552,-0.01874,-0.021435,0.039853
1553,-0.01874,-0.038179,-0.014495
1554,-0.037962,-0.021435,0.057969
1555,0.000481,0.012055,0.039853
1556,0.000481,0.045545,-0.014495
1557,0.000481,0.045545,0.021737
1558,0.000481,0.012055,0.039853
1559,0.019703,0.0288,-0.014495
1560,0.000481,0.06229,0.021737
1561,0.019703,0.079034,0.003621
1562,0.019703,0.079034,-0.014495
1563,0.000481,0.095779,-0.014495
1564,-0.01874,0.0288,-0.032611
1565,0.000481,-0.00469,-0.050727
1566,-0.01874,-0.00469,0.003621
1567,-0.01874,-0.038179,-0.032611
1568,-0.037962,-0.038179,-0.068843
1569,-0.037962,-0.021435,0.003621
1570,-0.037962,0.012055,0.003621
1571,-0.01874,0.0288,0.003621
1572,0.000481,0.0288,0.021737
1573,-0.01874,0.045545,-0.014495
1574,-0.01874,0.0288,-0.014495
1575,0.000481,0.012055,0.039853
1576,0.000481,-0.038179,0.021737
1577,0.000481,-0.00469,0.057969
1578,0.000481,-0.00469,0.039853
1579,0.000481,-0.00469,0.039853
1580,0.000481,-0.00469,0.003621
1581,-0.037962,-0.00469,-0.014495
1582,-0.037962,0.012055,-0.014495
1583,-0.01874,0.0288,-0.032611
1584,-0.01874,-0.00469,-0.014495
1585,-0.01874,-0.054924,-0.050727
1586,-0.01874,-0.088414,-0.014495
1587,0.000481,-0.105159,0.076085
1588,0.000481,-0.038179,0.003621
1589,-0.01874,-0.00469,0.057969
1590,0.000481,0.045545,0.021737
1591,0.000481,0.045545,-0.014495
1592,-0.01874,0.06229,0.021737
1593,0.000481,0.06229,-0.014495
1594,0.000481,0.06229,-0.032611
1595,0.000481,-0.00469,0.021737
1596,0.000481,-0.00469,0.021737
1597,0.019703,0.012055,0.003621
1598,0.000481,0.012055,0.021737
1599,0.019703,-0.021435,0.003621
1600,0.038924,0.0288,-0.050727
1601,0.019703,0.012055,0.003621
1602,0.019703,-0.00469,0.039853
1603,0.019703,-0.00469,0.003621
1604,0.019703,0.0288,0.021737
1605,0.019703,-0.021435,-0.014495
1606,0.000481,-0.00469,-0.032611
1607,0.000481,-0.038179,-0.014495
1608,0.019703,-0.038179,0.003621
1609,0.000481,-0.038179,-0.032611
1610,0.000481,-0.021435,0.003621
1611,0.000481,-0.054924,0.039853
1612,0.019703,-0.021435,0.003621
1613,0.000481,0.012055,0.021737
1614,0.000481,0.045545,0.003621
1615,-0.037962,-0.054924,-0.032611
1616,-0.076405,-0.071669,0.039853
1617,-0.037962,-0.038179,0.003621
1618,-0.01874,-0.00469,-0.050727
1619,0.019703,0.012055,-0.014495
1620,0.000481,0.06229,-0.050727
1621,0.019703,0.06229,-0.014495
1622,0.019703,0.079034,-0.014495
1623,0.038924,0.095779,0.003621
1624,0.038924,0.045545,-0.014495
1625,0.038924,-0.038179,-0.032611
1626,0.000481,-0.071669,-0.032611
1627,0.000481,-0.038179,0.003621
1628,0.000481,-0.021435,0.003621
1629,0.000481,-0.038179,0.003621
1630,-0.01874,-0.071669,0.039853
1631,-0.01874,-0.038179,0.039853
1632,0.019703,0.045545,0.003621
1633,0.019703,-0.00469,0.039853
1634,0.000481,-0.021435,0.003621
1635,-0.01874,-0.071669,-0.014495
1636,-0.01874,-0.021435,-0.032611
1637,-0.01874,-0.00469,0.003621
1638,-0.01874,-0.054924,0.021737
1639,-0.037962,-0.038179,0.021737
1640,-0.01874,0.045545,0.039853
1641,-0.01874,0.079034,0.003621
1642,-0.037962,0.045545,0.057969
1643,0.000481,0.095779,-0.014495
1644,0.000481,0.112524,-0.014495
1645,0.000481,0.079034,0.003621
1646,-0.01874,0.045545,0.039853
1647,-0.037962,0.045545,-0.014495
1648,-0.057183,-0.00469,0.039853
1649,-0.037962,0.0288,0.057969
1650,0.019703,0.045545,-0.014495
1651,0.038924,0.045545,0.039853
1652,0.058146,0.079034,-0.014495
1653,0.038924,0.045545,0.003621
1654,0.019703,0.012055,0.057969
1655,0.000481,-0.00469,0.003621
1656,-0.01874,-0.00469,0.003621
1657,0.000481,-0.021435,0.057969
1658,-0.01874,-0.00469,0.057969
1659,-0.01874,0.0288,0.094201
1660,0.000481,0.012055,0.039853
1661,0.000481,0.0288,0.003621
1662,0.000481,0.0288,-0.014495
1663,0.019703,-0.00469,0.003621
1664,0.000481,-0.00469,-0.050727
1665,0.000481,-0.021435,-0.032611
1666,-0.01874,-0.021435,0.003621
1667,-0.01874,-0.00469,-0.050727
1668,-0.01874,-0.038179,-0.068843
1669,-0.01874,-0.00469,-0.032611
1670,0.000481,-0.021435,-0.050727
1671,0.000481,-0.00469,-0.050727
1672,0.019703,-0.00469,0.003621
1673,0.000481,-0.00469,-0.050727
1674,-0.01874,-0.00469,0.003621
1675,0.000481,-0.021435,0.003621
1676,0.019703,-0.00469,-0.032611
1677,0.019703,-0.00469,0.039853
1678,-0.01874,0.012055,0.003621
1679,0.000481,0.012055,0.003621
1680,0.000481,-0.038179,-0.014495
1681,0.019703,-0.00469,0.003621
1682,0.058146,-0.00469,0.021737
1683,0.000481,0.0288,0.039853
1684,0.019703,0.012055,0.057969
1685,0.000481,-0.054924,-0.014495
1686,-0.037962,-0.038179,0.057969
1687,-0.01874,-0.021435,0.021737
1688,-0.037962,-0.021435,0.003621
1689,-0.037962,-0.00469,0.021737
1690,0.000481,-0.00469,0.021737
1691,0.000481,0.0288,0.039853
1692,0.000481,0.012055,0.039853
1693,0.000481,0.0288,0.057969
1694,-0.01874,0.045545,0.021737
1695,0.019703,0.012055,0.039853
1696,0.000481,0.012055,0.003621
1697,0.000481,-0.00469,-0.050727
1698,-0.01874,-0.00469,-0.086959
1699,-0.01874,-0.021435,-0.105075
1700,0.000481,-0.021435,-0.050727
1701,-0.037962,-0.00469,-0.014495
1702,0.000481,-0.00469,-0.032611
1703,-0.01874,-0.00469,-0.032611
1704,0.000481,-0.00469,0.003621
1705,0.000481,-0.00469,-0.050727
1706,0.000481,-0.021435,-0.014495
1707,-0.01874,-0.021435,0.003621
1708,0.000481,-0.088414,-0.014495
1709,-0.01874,-0.105159,0.003621
1710,-0.01874,-0.121903,0.021737
1711,0.000481,-0.038179,0.003621
1712,-0.01874,-0.00469,0.021737
1713,-0.01874,-0.038179,-0.014495
1714,-0.01874,-0.088414,-0.014495
1715,0.000481,-0.054924,0.003621
1716,0.038924,0.012055,0.039853
1717,0.019703,-0.054924,-0.014495
1718,0.000481,-0.038179,0.039853
1719,0.000481,0.012055,0.021737
1720,0.019703,0.112524,0.003621
1721,0.019703,0.146014,0.057969
1722,0.000481,0.162759,0.039853
1723,0.038924,0.129269,-0.014495
1724,0.000481,0.06229,0.021737
1725,0.019703,0.0288,-0.014495
1726,0.000481,0.012055,0.021737
1727,0.000481,0.012055,0.021737
1728,0.000481,0.045545,0.039853
1729,0.019703,0.06229,-0.014495
1730,0.019703,0.079034,0.021737
1731,0.000481,0.06229,-0.032611
1732,0.000481,0.045545,-0.032611
1733,-0.01874,0.0288,-0.014495
1734,-0.01874,-0.021435,-0.014495
1735,-0.01874,-0.021435,-0.032611
1736,-0.01874,-0.021435,-0.014495
1737,-0.01874,-0.038179,0.021737
1738,-0.01874,-0.021435,-0.032611
1739,0.000481,-0.021435,0.021737
1740,-0.01874,-0.00469,-0.032611
1741,0.000481,-0.00469,-0.068843
1742,-0.01874,-0.00469,0.021737
1743,0.000481,0.012055,-0.014495
1744,0.000481,-0.038179,-0.014495
1745,0.000481,-0.021435,0.057969
1746,0.038924,-0.021435,0.039853
1747,0.019703,-0.00469,0.039853
1748,-0.01874,0.012055,0.021737
1749,-0.01874,-0.021435,0.057969
1750,0.000481,0.079034,0.021737
1751,0.000481,0.045545,0.039853
1752,0.000481,0.0288,-0.032611
1753,-0.01874,0.012055,0.003621
1754,-0.01874,0.012055,0.021737
1755,-0.01874,0.012055,-0.014495
1756,-0.01874,-0.00469,-0.032611
1757,0.019703,0.0288,-0.014495
1758,0.000481,0.012055,-0.050727
1759,0.000481,-0.00469,-0.050727
1760,0.019703,0.012055,-0.014495
1761,0.000481,-0.021435,-0.032611
1762,-0.01874,-0.038179,0.003621
1763,-0.037962,-0.038179,0.021737
1764,-0.01874,-0.00469,0.003621
1765,0.000481,0.012055,0.003621
1766,-0.01874,-0.00469,-0.014495
1767,-0.01874,-0.038179,-0.014495
1768,0.000481,0.012055,0.003621
1769,0.000481,-0.00469,0.003621
1770,0.019703,0.012055,0.003621
1771,0.019703,-0.00469,-0.014495
1772,-0.01874,-0.00469,0.021737
1773,0.000481,0.0288,0.039853
1774,0.000481,-0.00469,0.057969
1775,-0.037962,-0.00469,0.039853
1776,0.000481,-0.021435,0.021737
1777,0.000481,-0.00469,0.021737
1778,-0.037962,-0.038179,0.021737
1779,0.000481,0.012055,0.003621
1780,0.000481,-0.021435,0.021737
1781,0.000481,-0.00469,0.057969
1782,-0.01874,0.0288,-0.014495
1783,0.000481,0.012055,0.039853
1784,-0.01874,0.0288,0.003621
1785,-0.01874,-0.021435,-0.014495
1786,0.019703,-0.00469,0.003621
1787,-0.01874,-0.00469,0.003621
1788,0.000481,-0.00469,0.057969
1789,-0.01874,-0.00469,0.057969
1790,0.000481,-0.00469,0.057969
1791,0.000481,0.012055,0.003621
1792,0.000481,-0.00469,-0.014495
1793,0.000481,-0.00469,-0.014495
1794,0.000481,-0.021435,-0.068843
1795,-0.01874,0.012055,0.003621
1796,0.000481,0.045545,-0.050727
1797,0.019703,-0.00469,-0.050727
1798,-0.01874,-0.071669,0.003621
1799,0.000481,-0.105159,-0.032611
1800,0.019703,-0.054924,-0.014495
1801,0.000481,-0.038179,0.003621
1802,0.000481,-0.00469,-0.014495
1803,0.019703,-0.00469,-0.032611
1804,0.019703,0.0288,0.003621
1805,0.000481,0.045545,-0.014495
1806,0.000481,0.129269,0.003621
1807,0.000481,0.112524,0.039853
1808,0.000481,0.06229,0.003621
1809,-0.037962,0.045545,0.021737
1810,-0.01874,-0.00469,-0.014495
1811,0.000481,0.0288,0.021737
1812,0.019703,0.045545,0.039853
1813,0.038924,0.012055,0.021737
1814,0.000481,-0.071669,0.021737
1815,-0.037962,-0.071669,0.021737
1816,-0.037962,-0.021435,0.039853
1817,-0.01874,0.012055,0.003621
1818,0.000481,0.045545,0.021737
1819,0.000481,0.045545,0.003621
1820,0.019703,0.079034,0.003621
1821,0.000481,0.06229,0.021737
1822,0.019703,0.06229,0.039853
1823,-0.01874,0.045545,0.039853
1824,-0.01874,0.045545,0.003621
1825,-0.01874,-0.021435,0.003621
1826,-0.01874,0.0288,-0.032611
1827,0.000481,-0.021435,0.003621
1828,-0.01874,-0.038179,-0.032611
1829,0.019703,-0.038179,-0.032611
1830,0.000481,0.012055,-0.014495
1831,0.019703,-0.00469,-0.032611
1832,0.019703,0.012055,-0.032611
1833,0.000481,-0.00469,-0.014495
1834,0.019703,0.012055,-0.014495
1835,-0.037962,0.045545,-0.050727
1836,0.000481,0.06229,0.003621
1837,0.019703,-0.00469,0.003621
1838,0.000481,-0.038179,-0.032611
1839,-0.01874,-0.00469,0.039853
1840,0.000481,-0.038179,0.021737
1841,-0.01874,-0.071669,0.094201
1842,0.019703,-0.054924,0.094201
1843,0.000481,-0.038179,0.003621
1844,-0.01874,-0.00469,0.003621
1845,0.019703,-0.021435,0.003621
1846,-0.01874,0.0288,-0.050727
1847,-0.01874,0.045545,-0.050727
1848,-0.01874,0.045545,0.021737
1849,0.000481,0.0288,0.003621
1850,0.000481,-0.00469,0.039853
1851,0.000481,0.012055,0.039853
1852,-0.01874,0.045545,0.021737
1853,0.000481,0.06229,0.057969
1854,0.019703,0.045545,0.021737
1855,0.000481,0.0288,0.003621
1856,-0.01874,-0.00469,0.021737
1857,0.000481,0.045545,0.039853
1858,0.000481,0.012055,-0.014495
1859,0.000481,-0.00469,0.021737
1860,-0.01874,-0.00469,-0.014495
1861,0.000481,-0.021435,-0.014495
1862,0.000481,-0.038179,0.003621
1863,-0.037962,-0.038179,-0.014495
1864,0.000481,-0.00469,-0.032611
1865,0.000481,-0.00469,-0.014495
1866,0.000481,-0.038179,0.039853
1867,-0.01874,0.012055,-0.014495
1868,0.000481,0.0288,0.039853
1869,0.000481,0.012055,-0.032611
1870,0.000481,-0.00469,-0.032611
1871,0.019703,-0.00469,0.003621
1872,-0.037962,-0.00469,-0.014495
1873,-0.01874,0.0288,-0.032611
1874,0.000481,-0.00469,-0.014495
1875,0.019703,0.0288,0.003621
1876,0.000481,0.0288,0.021737
1877,0.019703,0.012055,0.021737
1878,0.019703,-0.00469,0.003621
1879,-0.01874,-0.00469,-0.014495
1880,0.038924,0.012055,0.003621
1881,0.058146,0.012055,-0.014495
1882,0.019703,-0.00469,0.021737
1883,0.000481,-0.038179,0.039853
1884,0.019703,-0.038179,0.021737
1885,-0.01874,-0.038179,0.003621
1886,-0.01874,-0.038179,0.021737
1887,0.000481,-0.00469,-0.014495
1888,0.000481,-0.00469,-0.068843
1889,-0.037962,-0.021435,-0.068843
1890,-0.037962,-0.054924,-0.050727
1891,-0.01874,-0.054924,0.021737
1892,-0.01874,-0.071669,0.003621
1893,0.000481,-0.038179,0.003621
1894,-0.01874,-0.054924,0.057969
1895,-0.01874,0.012055,0.003621
1896,0.000481,0.079034,-0.068843
1897,0.019703,0.129269,-0.032611
1898,0.000481,0.129269,-0.032611
1899,0.000481,0.112524,-0.050727
1900,0.038924,0.095779,0.003621
1901,0.019703,0.06229,0.057969
1902,0.019703,0.0288,0.003621
1903,0.038924,0.0288,0.021737
1904,0.000481,0.012055,0.003621
1905,-0.037962,0.012055,-0.014495
1906,-0.01874,0.012055,-0.014495
1907,0.000481,0.012055,-0.032611
1908,0.019703,0.0288,0.003621
1909,0.019703,-0.00469,0.057969
1910,0.019703,-0.00469,0.076085
1911,0.000481,0.012055,0.021737
1912,0.019703,-0.021435,0.057969
1913,0.000481,-0.038179,0.003621
1914,0.000481,-0.021435,-0.014495
1915,0.019703,-0.071669,0.003621
1916,-0.01874,-0.088414,-0.014495
1917,-0.01874,-0.071669,-0.014495
1918,-0.01874,-0.054924,0.003621
1919,-0.01874,-0.021435,0.003621
1920,-0.01874,0.012055,0.021737
1921,-0.01874,0.045545,-0.014495
1922,-0.01874,0.0288,0.003621
1923,-0.01874,0.0288,-0.014495
1924,0.019703,0.045545,0.039853
1925,0.000481,0.0288,0.003621
1926,0.000481,0.045545,0.003621
1927,0.000481,-0.00469,0.039853
1928,0.000481,0.0288,-0.014495
1929,-0.01874,-0.00469,0.003621
1930,0.000481,-0.021435,0.003621
1931,0.019703,0.045545,-0.032611
1932,0.000481,0.0288,-0.050727
1933,0.000481,0.06229,-0.014495
1934,0.019703,0.0288,-0.014495
1935,-0.01874,0.045545,0.003621
1936,0.019703,0.0288,-0.014495
1937,-0.037962,-0.00469,-0.014495
1938,-0.01874,0.012055,0.039853
1939,-0.01874,-0.00469,0.039853
1940,0.000481,0.012055,-0.032611
1941,0.000481,-0.00469,0.003621
1942,0.019703,-0.00469,-0.014495
1943,-0.01874,-0.00469,0.003621
1944,0.000481,-0.00469,0.021737
1945,-0.01874,0.012055,0.057969
1946,0.000481,-0.021435,0.003621
1947,0.000481,0.0288,0.039853
1948,0.019703,-0.00469,-0.014495
1949,0.000481,-0.021435,-0.014495
1950,-0.01874,-0.00469,0.003621
1951,-0.01874,-0.021435,-0.014495
1952,0.019703,0.012055,0.021737
1953,0.000481,0.045545,0.039853
1954,0.000481,-0.00469,0.039853
1955,0.019703,-0.00469,0.003621
1956,0.000481,0.012055,0.057969
1957,0.019703,-0.00469,-0.014495
1958,-0.01874,0.012055,-0.050727
1959,0.000481,0.0288,-0.032611
1960,-0.01874,0.012055,-0.050727
1961,-0.01874,0.012055,0.003621
1962,-0.01874,0.012055,0.039853
1963,0.019703,0.0288,-0.014495
1964,0.000481,-0.00469,0.039853
1965,-0.037962,0.0288,-0.032611
1966,0.000481,-0.00469,-0.014495
1967,-0.037962,-0.021435,-0.050727
1968,-0.037962,-0.038179,-0.050727
1969,-0.037962,-0.054924,-0.050727
1970,-0.01874,-0.021435,-0.014495
1971,0.000481,-0.021435,0.021737
1972,0.000481,-0.00469,0.021737
1973,-0.01874,0.012055,0.076085
1974,0.000481,-0.00469,0.039853
1975,0.019703,0.0288,0.021737
1976,0.000481,0.0288,0.003621
1977,-0.01874,0.012055,-0.032611
1978,0.000481,-0.00469,-0.032611
1979,-0.037962,-0.038179,-0.014495
1980,0.000481,-0.021435,0.039853
1981,-0.01874,-0.054924,0.003621
1982,0.000481,-0.038179,0.039853
1983,-0.01874,-0.021435,0.003621
1984,0.019703,0.012055,-0.014495
1985,0.000481,0.0288,0.003621
1986,0.000481,0.06229,-0.014495
1987,0.000481,0.079034,-0.050727
1988,0.000481,0.012055,0.003621
1989,-0.01874,-0.021435,0.021737
1990,0.000481,-0.054924,0.003621
1991,-0.037962,-0.038179,-0.014495
1992,0.000481,-0.054924,-0.014495
1993,0.019703,-0.00469,-0.014495
1994,0.000481,0.012055,-0.032611
1995,-0.01874,0.079034,-0.050727
1996,0.019703,0.129269,-0.032611
1997,0.019703,0.095779,0.021737
1998,0.000481,0.079034,0.021737
1999,0.000481,0.0288,0.021737
2000,0.019703,0.0288,0.021737
2001,-0.01874,0.012055,0.003621
2002,-0.01874,0.012055,0.003621
2003,-0.01874,0.012055,0.039853
2004,0.000481,0.012055,0.021737
2005,0.000481,0.012055,0.057969
2006,-0.01874,-0.038179,0.057969
2007,0.000481,-0.00469,0.039853
2008,0.019703,-0.021435,0.039853
2009,-0.01874,-0.021435,-0.032611
2010,-0.01874,-0.021435,-0.032611
2011,0.000481,-0.021435,-0.086959
2012,0.019703,-0.021435,-0.032611
2013,-0.01874,-0.021435,-0.050727
2014,-0.01874,-0.021435,0.003621
2015,-0.01874,0.012055,0.021737
2016,0.000481,-0.038179,-0.014495
2017,0.019703,-0.00469,0.003621
2018,-0.01874,0.012055,0.003621
2019,-0.01874,-0.00469,-0.032611
2020,0.000481,-0.00469,-0.050727
2021,-0.037962,-0.038179,-0.014495
2022,0.000481,-0.038179,-0.014495
2023,-0.01874,-0.054924,0.003621
2024,0.000481,-0.038179,0.057969
2025,0.019703,0.012055,0.003621
2026,0.019703,0.045545,0.021737
2027,0.038924,0.0288,0.021737
2028,-0.01874,0.045545,0.003621
2029,0.000481,0.06229,-0.014495
2030,0.000481,0.0288,-0.014495
2031,0.000481,0.012055,-0.050727
2032,0.000481,0.0288,-0.014495
2033,0.019703,0.012055,-0.014495
2034,-0.01874,0.012055,0.003621
2035,-0.01874,-0.021435,0.021737
2036,-0.01874,-0.071669,0.003621
2037,-0.01874,-0.105159,-0.050727
2038,-0.01874,-0.088414,0.003621
2039,-0.01874,-0.054924,-0.032611
2040,-0.01874,-0.038179,0.003621
2041,0.019703,-0.00469,0.039853
2042,0.000481,0.045545,0.039853
2043,0.019703,0.079034,0.003621
2044,0.000481,0.06229,0.039853
2045,0.019703,0.045545,0.003621
2046,0.000481,0.045545,0.003621
2047,-0.01874,0.045545,0.003621
2048,0.019703,0.079034,-0.014495
2049,0.019703,0.045545,0.039853
2050,0.000481,0.012055,0.076085
2051,0.019703,0.012055,0.039853
2052,0.000481,0.0288,0.057969
2053,0.000481,-0.021435,0.039853
2054,0.000481,0.012055,-0.032611
2055,-0.01874,-0.00469,0.021737
2056,-0.01874,0.012055,0.021737
2057,-0.01874,-0.00469,-0.032611
2058,-0.01874,-0.021435,0.021737
2059,-0.01874,-0.021435,0.021737
2060,-0.01874,-0.038179,0.021737
2061,-0.01874,0.012055,0.076085
2062,-0.01874,-0.00469,0.003621
2063,0.000481,-0.021435,-0.032611
2064,0.000481,-0.00469,-0.050727
2065,0.000481,-0.021435,-0.050727
2066,0.019703,0.0288,-0.032611
2067,0.000481,-0.00469,-0.050727
2068,0.000481,-0.021435,-0.014495
2069,0.000481,-0.021435,-0.014495
2070,0.000481,-0.038179,0.021737
2071,-0.01874,-0.00469,0.003621
2072,0.000481,0.012055,0.003621
2073,0.000481,-0.00469,0.021737
2074,0.000481,0.0288,-0.014495
2075,0.000481,-0.00469,0.003621
2076,0.000481,0.012055,0.039853
2077,0.019703,0.012055,0.057969
2078,0.019703,0.012055,0.021737
2079,0.000481,-0.00469,0.039853
2080,0.019703,-0.00469,0.021737
2081,0.019703,0.012055,-0.014495
2082,0.000481,-0.00469,-0.014495
2083,0.000481,-0.00469,-0.032611
2084,-0.01874,-0.00469,-0.014495
2085,-0.01874,-0.038179,0.021737
2086,0.000481,-0.00469,0.003621
2087,0.019703,0.012055,0.003621
2088,0.019703,-0.00469,0.021737
2089,0.038924,0.0288,0.003621
2090,0.000481,-0.021435,0.021737
2091,0.019703,0.012055,0.003621
2092,-0.01874,0.012055,-0.032611
2093,0.000481,0.012055,-0.014495
2094,0.000481,-0.00469,0.003621
2095,0.000481,-0.021435,-0.014495
2096,0.000481,-0.021435,0.021737
2097,-0.01874,-0.021435,0.003621
2098,-0.01874,0.012055,-0.032611
2099,0.000481,-0.00469,0.003621
2100,0.000481,-0.00469,0.003621
2101,0.000481,-0.00469,-0.032611
2102,0.000481,-0.00469,-0.032611
2103,-0.01874,-0.00469,0.021737
2104,0.000481,-0.00469,0.021737
2105,-0.037962,-0.00469,0.021737
2106,-0.01874,-0.00469,-0.014495
2107,-0.01874,-0.021435,-0.014495
2108,0.000481,-0.00469,0.003621
2109,0.000481,-0.00469,0.003621
2110,-0.01874,0.012055,0.039853
2111,0.000481,-0.021435,0.021737
2112,0.019703,-0.00469,0.021737
2113,0.000481,-0.00469,0.003621
2114,0.000481,-0.00469,0.003621
2115,-0.037962,0.079034,-0.086959
2116,0.000481,-0.021435,-0.086959
2117,0.000481,-0.038179,-0.050727
2118,0.000481,-0.00469,-0.068843
2119,0.000481,-0.00469,-0.032611
2120,-0.01874,0.012055,0.039853
2121,0.000481,-0.00469,0.039853
2122,0.019703,0.012055,0.094201
2123,0.019703,0.0288,0.039853
2124,0.000481,0.012055,0.076085
2125,0.000481,0.012055,0.039853
2126,-0.01874,0.0288,0.057969
2127,-0.01874,0.0288,0.021737
2128,0.000481,0.012055,0.021737
2129,0.019703,0.012055,0.039853
2130,-0.01874,-0.021435,-0.032611
2131,-0.01874,0.012055,0.003621
2132,0.000481,0.012055,-0.014495
2133,0.000481,-0.038179,-0.032611
2134,-0.01874,-0.038179,-0.032611
2135,-0.01874,-0.038179,-0.032611
2136,0.000481,-0.054924,-0.032611
2137,0.000481,-0.054924,0.003621
2138,-0.01874,-0.021435,0.039853
2139,-0.01874,-0.00469,0.021737
2140,0.000481,0.045545,0.021737
2141,0.000481,0.06229,0.021737
2142,0.000481,0.06229,0.003621
2143,-0.01874,0.06229,0.003621
2144,-0.01874,0.045545,-0.032611
2145,-0.01874,0.045545,0.003621
2146,0.019703,0.0288,0.003621
2147,-0.01874,0.012055,0.039853
2148,0.000481,0.012055,0.039853
2149,0.000481,0.012055,0.021737
2150,0.019703,0.012055,0.003621
2151,0.038924,-0.00469,-0.032611
2152,0.019703,-0.054924,0.003621
2153,-0.037962,-0.038179,-0.032611
2154,0.000481,-0.038179,-0.014495
2155,0.000481,-0.038179,0.021737
2156,0.000481,0.012055,-0.014495
2157,0.000481,0.0288,0.021737
2158,0.000481,0.012055,0.021737
2159,0.000481,0.0288,-0.032611
2160,0.000481,0.06229,-0.050727
2161,0.000481,0.0288,0.021737
2162,-0.01874,0.012055,0.003621
2163,0.000481,0.012055,0.021737
2164,0.000481,-0.00469,0.021737
2165,-0.01874,-0.038179,0.094201
2166,0.000481,0.012055,0.057969
2167,0.000481,-0.00469,0.021737
2168,-0.01874,-0.00469,-0.014495
2169,-0.01874,-0.00469,0.021737
2170,-0.01874,0.012055,-0.014495
2171,0.000481,-0.00469,0.003621
2172,0.019703,0.012055,0.003621
2173,0.000481,-0.00469,0.021737
2174,0.000481,-0.021435,-0.014495
2175,-0.01874,0.012055,0.003621
2176,0.000481,0.012055,-0.014495
2177,0.000481,0.012055,-0.050727
2178,0.000481,-0.021435,-0.050727
2179,0.000481,-0.00469,-0.050727
2180,-0.037962,-0.021435,0.003621
2181,0.000481,-0.00469,0.057969
2182,-0.01874,-0.00469,0.039853
2183,-0.01874,-0.00469,0.021737
2184,0.000481,-0.038179,0.039853
2185,0.000481,-0.021435,-0.014495
2186,-0.037962,-0.021435,-0.032611
2187,-0.037962,-0.021435,0.094201
2188,0.000481,-0.00469,0.003621
2189,-0.01874,-0.00469,0.003621
2190,0.000481,-0.021435,0.039853
2191,0.000481,-0.00469,0.021737
2192,0.000481,0.06229,0.076085
2193,0.000481,0.06229,0.021737
2194,0.019703,0.0288,0.003621
2195,0.019703,0.045545,-0.032611
2196,0.019703,-0.00469,0.003621
2197,0.000481,0.012055,-0.014495
2198,-0.01874,0.0288,0.003621
2199,-0.037962,-0.00469,0.021737
2200,-0.01874,-0.00469,-0.014495
2201,0.019703,0.012055,0.039853
2202,0.000481,-0.00469,0.003621
2203,-0.01874,-0.00469,-0.032611
2204,-0.01874,0.012055,0.003621
2205,0.000481,0.012055,-0.032611
2206,0.000481,0.0288,0.003621
2207,0.000481,0.012055,0.003621
2208,-0.01874,-0.00469,0.021737
2209,0.019703,-0.021435,-0.050727
2210,0.000481,-0.00469,0.021737
2211,-0.01874,-0.021435,-0.014495
2212,0.000481,0.012055,-0.068843
2213,0.000481,-0.00469,0.021737
2214,0.000481,-0.00469,-0.014495
2215,0.000481,0.012055,0.021737
2216,0.019703,-0.00469,0.057969
2217,0.019703,-0.021435,0.021737
2218,0.000481,-0.021435,0.021737
2219,0.000481,0.012055,0.003621
2220,0.000481,0.012055,-0.032611
2221,-0.01874,0.012055,0.021737
2222,0.000481,-0.00469,0.021737
2223,0.000481,-0.00469,0.003621
2224,0.000481,-0.00469,-0.014495
2225,0.019703,-0.00469,0.003621
2226,0.000481,-0.00469,-0.032611
2227,0.019703,-0.021435,0.021737
2228,-0.01874,-0.00469,0.021737
2229,-0.01874,-0.038179,-0.014495
2230,-0.01874,-0.021435,0.003621
2231,-0.037962,-0.00469,0.021737
2232,0.000481,0.012055,0.003621
2233,-0.057183,-0.00469,-0.014495
2234,-0.037962,-0.00469,0.021737
2235,0.000481,0.0288,-0.014495
2236,0.000481,-0.00469,-0.014495
2237,0.000481,0.045545,-0.032611
2238,-0.01874,0.0288,-0.050727
2239,-0.037962,0.012055,-0.014495
2240,-0.01874,-0.038179,-0.032611
2241,-0.037962,-0.021435,-0.014495
2242,-0.01874,-0.00469,0.039853
2243,0.000481,0.0288,0.021737
2244,-0.01874,0.0288,0.039853
2245,0.000481,0.012055,0.021737
2246,0.000481,-0.00469,-0.014495
2247,-0.037962,0.0288,-0.032611
2248,-0.037962,-0.00469,-0.014495
2249,0.019703,0.0288,-0.050727
2250,0.000481,-0.00469,0.003621
2251,0.000481,0.0288,0.039853
2252,0.019703,0.012055,0.039853
2253,-0.01874,0.012055,0.003621
2254,-0.01874,0.0288,0.039853
2255,-0.01874,-0.00469,0.003621
2256,0.000481,0.012055,0.021737
2257,0.000481,-0.00469,0.039853
2258,0.019703,0.012055,0.003621
2259,-0.01874,0.012055,0.039853
2260,0.019703,-0.00469,0.039853
2261,0.000481,-0.021435,-0.032611
2262,0.000481,-0.021435,-0.032611
2263,-0.01874,-0.021435,0.003621
2264,0.000481,-0.021435,-0.032611
2265,0.019703,-0.00469,0.003621
2266,0.000481,0.0288,0.039853
2267,0.000481,0.0288,0.003621
2268,0.000481,0.0288,0.039853
2269,0.000481,-0.00469,0.021737
2270,-0.01874,-0.00469,-0.032611
2271,0.000481,-0.00469,0.003621
2272,0.019703,-0.00469,-0.014495
2273,0.000481,-0.00469,-0.050727
2274,0.000481,0.012055,0.003621
2275,0.019703,0.012055,0.057969
2276,0.019703,-0.00469,0.003621
2277,0.019703,0.0288,0.039853
2278,-0.01874,0.0288,0.003621
2279,0.000481,-0.021435,-0.032611
2280,0.019703,0.012055,-0.014495
2281,0.019703,-0.021435,-0.032611
2282,-0.01874,0.012055,-0.014495
2283,0.000481,-0.00469,-0.014495
2284,0.000481,-0.00469,0.003621
2285,-0.01874,0.012055,0.003621
2286,-0.037962,-0.00469,0.021737
2287,0.000481,0.012055,0.003621
2288,0.000481,0.012055,-0.032611
2289,-0.01874,0.012055,-0.014495
2290,0.000481,0.012055,-0.050727
2291,0.000481,0.079034,-0.050727
2292,-0.037962,-0.00469,0.021737
2293,-0.01874,-0.00469,0.003621
2294,-0.01874,-0.021435,0.021737
2295,0.019703,-0.00469,0.039853
2296,0.000481,-0.00469,0.021737
2297,-0.01874,-0.00469,0.021737
2298,-0.01874,0.012055,-0.014495
2299,-0.01874,-0.021435,0.003621
2300,-0.01874,0.012055,0.003621
2301,0.000481,-0.021435,0.003621
2302,0.019703,0.012055,0.003621
2303,0.000481,-0.00469,0.003621
2304,-0.01874,-0.00469,-0.014495
2305,-0.037962,0.0288,-0.032611
2306,-0.01874,-0.021435,-0.050727
2307,-0.01874,-0.021435,0.003621
2308,-0.01874,-0.021435,0.003621
2309,-0.01874,-0.00469,0.003621
2310,0.000481,-0.00469,-0.014495
2311,-0.01874,-0.00469,0.021737
2312,0.000481,-0.021435,0.021737
2313,0.000481,0.012055,-0.014495
2314,0.019703,-0.00469,-0.032611
2315,0.000481,0.012055,0.021737
2316,-0.01874,0.0288,-0.032611
2317,-0.037962,0.045545,0.057969
2318,0.000481,-0.00469,0.039853
2319,0.019703,-0.00469,0.003621
2320,-0.01874,-0.021435,0.039853
2321,-0.01874,-0.00469,0.021737
2322,-0.01874,-0.00469,0.021737
2323,0.000481,0.0288,-0.032611
2324,-0.01874,0.012055,-0.032611
2325,-0.01874,0.012055,-0.014495
2326,0.000481,0.012055,-0.032611
2327,0.000481,-0.00469,0.003621
2328,0.019703,0.012055,-0.032611
2329,0.000481,0.012055,0.021737
2330,0.019703,0.012055,0.003621
2331,0.000481,-0.00469,0.003621
2332,-0.01874,-0.021435,-0.014495
2333,-0.037962,-0.021435,-0.050727
2334,0.000481,0.0288,-0.014495
2335,0.038924,0.012055,0.039853
2336,-0.01874,0.012055,0.039853
2337,0.000481,0.012055,0.021737
2338,0.000481,-0.00469,0.021737
2339,0.000481,0.0288,-0.014495
2340,0.019703,-0.00469,0.021737
2341,0.000481,0.012055,0.057969
2342,0.019703,-0.00469,0.021737
2343,0.000481,-0.00469,0.021737
2344,-0.01874,0.012055,0.021737
2345,-0.01874,-0.00469,-0.014495
2346,-0.01874,-0.00469,-0.014495
2347,-0.01874,-0.021435,-0.032611
2348,-0.01874,0.0288,-0.068843
2349,-0.01874,-0.00469,0.003621
2350,0.000481,0.012055,-0.014495
2351,0.019703,0.012055,0.021737
2352,0.000481,0.0288,0.021737
2353,0.000481,0.0288,0.039853
2354,-0.01874,0.0288,0.021737
2355,-0.01874,-0.00469,0.076085
2356,0.019703,0.0288,0.003621
2357,0.019703,0.012055,-0.050727
2358,0.000481,-0.00469,0.021737
2359,0.019703,0.012055,-0.014495
2360,0.000481,-0.00469,0.003621
2361,0.019703,0.012055,-0.032611
2362,0.000481,0.0288,-0.032611
2363,-0.01874,-0.021435,-0.050727
2364,0.000481,-0.00469,-0.032611
2365,0.000481,-0.021435,-0.032611
2366,0.019703,0.012055,-0.068843
2367,0.000481,-0.021435,0.003621
2368,-0.057183,-0.00469,-0.050727
2369,-0.01874,-0.021435,-0.014495
2370,-0.037962,-0.038179,0.094201
2371,-0.01874,-0.021435,0.039853
2372,-0.01874,-0.00469,-0.032611
2373,0.000481,-0.00469,0.021737
2374,0.000481,0.0288,0.003621
2375,-0.01874,-0.00469,0.021737
2376,0.000481,0.012055,0.057969
2377,0.000481,-0.00469,0.057969
2378,0.019703,-0.00469,0.057969
2379,0.019703,0.012055,0.039853
2380,0.000481,-0.021435,0.021737
2381,0.038924,0.0288,-0.032611
2382,0.038924,-0.00469,-0.014495
2383,0.019703,0.012055,-0.032611
2384,0.019703,0.012055,-0.014495
2385,0.000481,-0.00469,0.003621
2386,0.019703,0.012055,0.003621
2387,0.019703,0.012055,0.021737
2388,0.000481,-0.00469,0.003621
2389,0.000481,0.012055,-0.014495
2390,0.000481,0.0288,-0.014495
2391,0.019703,0.012055,0.003621
2392,-0.01874,0.012055,-0.050727
2393,-0.037962,0.012055,0.003621
2394,-0.037962,0.012055,-0.014495
2395,-0.057183,-0.00469,-0.014495
2396,-0.057183,0.012055,0.003621
2397,-0.037962,-0.021435,-0.014495
2398,-0.037962,0.012055,-0.050727
2399,-0.037962,-0.00469,-0.032611
2400,-0.01874,0.012055,-0.032611
2401,0.000481,0.012055,-0.014495
2402,0.019703,-0.00469,0.021737
2403,-0.037962,-0.00469,0.021737
2404,-0.01874,0.012055,0.039853
2405,-0.01874,0.012055,0.039853
2406,-0.057183,-0.00469,-0.014495
2407,-0.01874,-0.00469,-0.014495
2408,-0.01874,0.012055,0.003621
2409,0.000481,-0.021435,-0.050727
2410,-0.037962,-0.021435,-0.032611
2411,-0.037962,-0.00469,0.021737
2412,-0.01874,-0.00469,0.021737
2413,-0.01874,-0.00469,0.021737
2414,-0.01874,-0.021435,-0.014495
2415,-0.01874,-0.00469,-0.032611
2416,0.000481,-0.00469,-0.014495
2417,0.000481,0.0288,-0.014495
2418,0.000481,0.012055,-0.014495
2419,0.000481,0.012055,0.021737
2420,0.000481,0.012055,0.039853
2421,0.000481,-0.00469,0.021737
2422,0.000481,-0.00469,0.003621
2423,0.019703,0.012055,0.003621
2424,0.000481,-0.00469,-0.050727
2425,0.000481,0.012055,-0.014495
2426,0.000481,-0.00469,-0.032611
2427,-0.01874,0.012055,-0.032611
2428,-0.01874,-0.021435,0.021737
2429,-0.037962,-0.00469,-0.014495
2430,0.000481,0.012055,0.003621
2431,-0.01874,0.012055,0.021737
2432,0.000481,0.012055,-0.014495
2433,0.000481,0.0288,-0.050727
2434,-0.01874,-0.021435,-0.050727
2435,-0.01874,-0.00469,-0.014495
2436,-0.01874,-0.00469,-0.014495
2437,0.000481,-0.00469,0.021737
2438,-0.01874,-0.00469,-0.014495
2439,0.000481,-0.00469,0.039853
2440,0.000481,0.0288,0.003621
2441,-0.01874,-0.00469,0.003621
2442,0.000481,-0.038179,0.003621
2443,0.000481,0.012055,-0.032611
2444,0.019703,-0.00469,-0.014495
2445,0.019703,0.012055,-0.014495
2446,0.019703,-0.00469,0.039853
2447,-0.01874,-0.021435,0.003621
2448,0.000481,-0.00469,0.057969
2449,0.000481,-0.00469,0.021737
2450,-0.01874,-0.00469,-0.014495
2451,-0.01874,-0.00469,0.021737
2452,0.000481,0.012055,0.003621
2453,0.019703,0.012055,0.021737
2454,0.019703,-0.00469,0.021737
2455,0.038924,-0.00469,0.003621
2456,0.058146,-0.00469,0.021737
2457,0.019703,-0.00469,-0.032611
2458,0.019703,0.0288,-0.032611
2459,0.038924,-0.00469,-0.032611
2460,0.000481,0.012055,0.003621
2461,0.019703,0.012055,-0.032611
2462,0.019703,0.012055,0.021737
2463,0.019703,-0.00469,0.076085
2464,0.019703,0.012055,0.057969
2465,0.019703,-0.00469,0.057969
2466,0.038924,-0.021435,0.021737
2467,0.019703,-0.00469,0.003621
2468,-0.01874,0.012055,-0.014495
2469,-0.01874,0.012055,-0.032611
2470,-0.037962,0.0288,0.003621
2471,-0.037962,-0.021435,0.003621
2472,-0.01874,-0.00469,0.039853
2473,-0.057183,-0.00469,0.003621
2474,-0.037962,0.012055,0.021737
2475,-0.037962,0.012055,0.003621
2476,-0.037962,-0.021435,-0.014495
2477,-0.037962,-0.021435,0.003621
2478,-0.01874,0.012055,0.003621
2479,0.019703,-0.00469,0.021737
2480,0.000481,-0.021435,0.003621
2481,-0.01874,0.012055,-0.014495
2482,-0.037962,0.012055,-0.032611
2483,-0.01874,-0.021435,0.003621
2484,-0.01874,-0.00469,-0.050727
2485,0.019703,0.012055,-0.014495
2486,0.038924,-0.00469,0.003621
2487,0.000481,-0.00469,-0.086959
2488,-0.01874,0.012055,-0.014495
2489,-0.01874,-0.00469,-0.014495
2490,-0.01874,-0.021435,-0.014495
2491,-0.01874,-0.00469,0.021737
2492,-0.037962,-0.021435,-0.014495
2493,-0.01874,-0.021435,-0.032611
2494,-0.037962,-0.00469,0.021737
2495,-0.057183,-0.021435,0.021737
2496,-0.037962,0.012055,0.003621
2497,-0.037962,-0.00469,0.039853
2498,-0.01874,-0.00469,0.057969
2499,-0.01874,-0.00469,-0.014495
2500,-0.01874,-0.00469,0.039853
2501,-0.01874,-0.00469,0.021737
2502,-0.01874,0.012055,0.003621
2503,-0.01874,0.012055,0.021737
2504,-0.037962,-0.00469,0.039853
2505,-0.01874,-0.00469,0.003621
2506,0.000481,0.012055,0.003621
2507,0.000481,0.0288,0.003621
2508,-0.01874,-0.00469,-0.014495
2509,0.000481,-0.00469,0.003621
2510,0.000481,-0.00469,0.003621
2511,-0.01874,0.012055,-0.050727
2512,-0.037962,-0.00469,-0.032611
2513,-0.01874,-0.00469,-0.032611
2514,-0.01874,0.012055,0.021737
2515,-0.037962,-0.00469,0.057969
2516,-0.01874,-0.021435,-0.014495
2517,-0.037962,-0.00469,-0.014495
2518,-0.01874,-0.00469,-0.014495
2519,0.000481,-0.00469,-0.032611
2520,0.000481,0.012055,0.003621
2521,0.019703,-0.00469,0.039853
2522,0.019703,-0.00469,0.021737
2523,0.000481,-0.00469,0.039853
2524,0.000481,0.012055,0.039853
2525,0.019703,0.012055,0.057969
2526,0.000481,0.012055,0.003621
2527,0.000481,0.012055,0.039853
2528,0.019703,-0.00469,0.021737
2529,-0.01874,-0.00469,0.003621
2530,-0.01874,0.012055,-0.014495
2531,0.000481,-0.00469,-0.050727
2532,0.000481,-0.00469,-0.032611
2533,0.000481,-0.021435,-0.032611
2534,0.019703,-0.00469,-0.050727
2535,0.000481,-0.021435,-0.014495
2536,0.000481,-0.021435,-0.032611
2537,0.000481,0.012055,-0.014495
2538,0.000481,-0.00469,0.003621
2539,-0.01874,-0.00469,-0.014495
2540,0.019703,-0.00469,0.003621
2541,0.000481,-0.00469,-0.014495
2542,-0.01874,0.0288,-0.050727
2543,-0.01874,0.0288,-0.068843
2544,-0.037962,-0.021435,-0.014495
2545,-0.057183,-0.00469,-0.032611
2546,-0.037962,-0.038179,-0.014495
2547,-0.057183,-0.021435,0.021737
2548,-0.01874,-0.021435,0.076085
2549,0.000481,0.012055,0.094201
2550,0.000481,0.012055,0.130433
2551,0.000481,0.012055,0.057969
2552,0.019703,0.012055,0.003621
2553,-0.01874,-0.00469,0.057969
2554,0.000481,0.012055,0.021737
2555,-0.01874,-0.00469,0.021737
2556,0.000481,0.012055,0.076085
2557,-0.01874,0.0288,0.039853
2558,0.000481,0.012055,0.021737
2559,0.000481,0.012055,0.021737
2560,0.000481,0.012055,0.021737
2561,-0.01874,-0.00469,-0.050727
2562,0.000481,-0.00469,0.003621
2563,-0.01874,-0.00469,-0.014495
2564,-0.037962,0.012055,0.021737
2565,-0.01874,-0.021435,0.039853
2566,0.000481,-0.00469,0.003621
2567,-0.037962,-0.00469,0.039853
2568,-0.01874,0.012055,0.003621
2569,-0.01874,0.012055,-0.014495
2570,-0.01874,-0.021435,-0.014495
2571,0.000481,-0.00469,0.094201
2572,-0.01874,-0.00469,-0.086959
2573,-0.01874,-0.00469,-0.032611
2574,-0.076405,-0.021435,-0.014495
2575,-0.037962,-0.021435,-0.032611
2576,-0.037962,-0.00469,0.021737
2577,-0.037962,-0.021435,-0.032611
2578,-0.01874,-0.00469,-0.068843
2579,-0.037962,-0.00469,-0.032611
2580,0.000481,-0.00469,-0.050727
2581,0.000481,0.012055,0.021737
2582,0.019703,0.0288,0.039853
2583,-0.01874,0.012055,0.021737
2584,0.000481,-0.00469,0.039853
2585,-0.01874,-0.00469,0.003621
2586,-0.01874,0.012055,-0.014495
2587,0.019703,-0.00469,-0.032611
2588,0.000481,0.0288,0.003621
2589,-0.01874,-0.021435,-0.014495
2590,0.000481,-0.00469,0.021737
2591,0.019703,-0.00469,0.039853
2592,0.019703,-0.021435,0.021737
2593,0.019703,-0.021435,-0.014495
2594,0.000481,-0.00469,-0.014495
2595,0.000481,0.012055,-0.014495
2596,0.000481,0.012055,-0.068843
2597,-0.01874,-0.021435,-0.068843
2598,-0.037962,-0.00469,-0.032611
2599,-0.037962,-0.00469,0.003621
2600,-0.037962,0.012055,0.039853
2601,0.000481,-0.021435,0.039853
2602,-0.037962,0.012055,0.021737
2603,0.000481,0.012055,0.021737
2604,0.019703,0.012055,-0.032611
2605,0.000481,-0.00469,0.003621
2606,0.000481,-0.038179,-0.014495
2607,0.019703,-0.00469,-0.014495
2608,0.019703,0.012055,-0.014495
2609,0.019703,-0.00469,-0.032611
2610,0.000481,-0.00469,0.003621
2611,0.000481,-0.00469,-0.032611
2612,-0.01874,-0.00469,-0.032611
2613,-0.01874,-0.021435,-0.068843
2614,-0.037962,-0.021435,-0.032611
2615,-0.057183,-0.00469,-0.032611
2616,-0.037962,0.012055,-0.014495
2617,-0.037962,-0.00469,0.057969
2618,0.000481,0.012055,0.003621
2619,-0.01874,-0.00469,0.039853
2620,0.019703,-0.00469,0.003621
2621,0.000481,0.045545,-0.050727
2622,-0.01874,-0.00469,0.021737
2623,0.000481,-0.021435,0.021737
2624,0.000481,-0.00469,0.003621
2625,0.000481,0.012055,0.003621
2626,0.000481,-0.00469,0.021737
2627,0.000481,-0.00469,0.003621
2628,-0.037962,-0.00469,0.021737
2629,0.000481,0.012055,-0.032611
2630,-0.01874,-0.038179,-0.032611
2631,-0.01874,-0.021435,-0.032611
2632,-0.01874,0.012055,-0.032611
2633,0.000481,-0.021435,0.003621
2634,0.000481,0.012055,0.039853
2635,0.019703,0.0288,0.057969
2636,-0.01874,-0.021435,0.021737
2637,0.000481,0.012055,0.021737
2638,0.000481,-0.00469,-0.032611
2639,0.019703,0.012055,-0.032611
2640,0.019703,0.012055,-0.014495
2641,0.038924,0.012055,-0.050727
2642,0.000481,0.012055,-0.014495
2643,0.000481,0.012055,0.021737
2644,0.000481,0.0288,-0.014495
2645,-0.01874,0.012055,0.021737
2646,0.000481,-0.00469,0.003621
2647,0.000481,-0.00469,-0.050727
2648,0.000481,0.012055,-0.032611
2649,0.000481,0.012055,0.039853
2650,-0.01874,0.012055,0.003621
2651,-0.037962,-0.021435,0.057969
2652,-0.01874,0.012055,0.039853
2653,-0.01874,0.012055,-0.014495
2654,-0.01874,0.012055,0.003621
2655,-0.037962,0.045545,-0.014495
2656,-0.037962,-0.00469,-0.050727
2657,-0.01874,0.012055,-0.014495
2658,0.000481,-0.00469,0.003621
2659,0.000481,-0.00469,-0.032611
2660,0.019703,-0.00469,0.003621
2661,-0.01874,-0.021435,-0.050727
2662,-0.037962,0.012055,-0.050727
2663,0.000481,-0.00469,-0.050727
2664,-0.01874,0.012055,-0.050727
2665,-0.01874,-0.00469,-0.014495
2666,0.000481,0.012055,0.021737
2667,0.000481,0.012055,0.003621
2668,-0.01874,-0.00469,0.003621
2669,0.000481,-0.021435,0.021737
2670,0.019703,0.012055,-0.014495
2671,0.019703,-0.021435,0.003621
2672,0.000481,-0.00469,0.003621
2673,-0.01874,-0.00469,0.003621
2674,-0.01874,0.0288,-0.014495
2675,-0.01874,-0.021435,0.039853
2676,0.000481,0.0288,-0.014495
2677,-0.037962,0.012055,0.003621
2678,0.000481,0.012055,-0.032611
2679,0.019703,0.012055,-0.050727
2680,0.000481,-0.00469,-0.032611
2681,-0.01874,-0.00469,-0.032611
2682,0.000481,0.012055,0.003621
2683,0.000481,0.012055,0.021737
2684,-0.01874,0.012055,0.021737
2685,0.019703,0.012055,0.021737
2686,0.000481,0.012055,0.021737
2687,0.019703,0.012055,0.003621
2688,0.019703,-0.021435,-0.050727
2689,0.038924,0.012055,0.003621
2690,0.019703,-0.00469,-0.032611
2691,0.000481,-0.00469,-0.014495
2692,0.019703,0.0288,0.021737
2693,0.019703,0.012055,0.003621
2694,-0.01874,0.012055,0.003621
2695,-0.037962,0.045545,-0.014495
2696,0.019703,0.079034,-0.050727
2697,0.019703,-0.021435,-0.068843
2698,0.000481,-0.00469,-0.032611
2699,-0.01874,0.012055,-0.032611
2700,-0.01874,-0.038179,0.021737
2701,-0.01874,-0.00469,0.039853
2702,0.000481,-0.00469,0.021737
2703,-0.037962,-0.00469,0.039853
2704,-0.01874,0.012055,0.003621
2705,-0.01874,-0.00469,-0.032611
2706,0.000481,-0.00469,0.003621
2707,0.000481,0.012055,-0.032611
2708,-0.01874,-0.00469,-0.014495
2709,0.000481,0.012055,0.003621
2710,0.000481,0.012055,0.003621
2711,0.019703,0.012055,0.003621
2712,0.038924,-0.038179,0.003621
2713,0.000481,0.012055,-0.032611
2714,-0.037962,0.012055,-0.032611
2715,-0.037962,-0.00469,0.003621
2716,-0.01874,-0.00469,-0.032611
2717,-0.037962,-0.00469,-0.032611
2718,0.000481,-0.00469,0.003621
2719,0.000481,-0.00469,0.003621
2720,0.019703,-0.00469,0.039853
2721,-0.01874,0.012055,0.039853
2722,-0.01874,-0.00469,-0.032611
2723,-0.037962,-0.021435,-0.050727
2724,-0.01874,-0.00469,0.003621
2725,-0.01874,0.012055,-0.068843
2726,-0.01874,0.012055,-0.014495
2727,-0.01874,0.012055,0.021737
2728,0.000481,0.012055,0.021737
2729,0.000481,0.012055,0.039853
2730,0.000481,0.0288,0.003621
2731,0.000481,-0.00469,0.003621
2732,0.000481,0.012055,-0.014495
2733,0.000481,-0.00469,-0.032611
2734,0.000481,-0.00469,0.003621
2735,0.038924,-0.00469,0.021737
2736,0.019703,0.012055,0.039853
2737,0.000481,-0.00469,0.003621
2738,-0.037962,0.012055,0.003621
2739,-0.01874,-0.00469,-0.032611
2740,0.000481,-0.00469,-0.068843
2741,-0.01874,-0.00469,-0.032611
2742,-0.01874,-0.00469,-0.050727
2743,0.000481,0.0288,0.003621
2744,0.019703,0.0288,0.057969
2745,0.000481,0.012055,0.039853
2746,0.000481,0.012055,0.003621
2747,-0.01874,-0.00469,-0.014495
2748,-0.01874,0.012055,-0.050727
2749,-0.01874,0.012055,-0.050727
2750,-0.01874,0.0288,-0.014495
2751,-0.037962,0.012055,-0.014495
2752,-0.01874,0.012055,-0.014495
2753,-0.01874,0.012055,0.021737
2754,0.000481,-0.00469,-0.068843
2755,0.019703,0.012055,0.003621
2756,0.019703,0.012055,-0.032611
2757,-0.01874,-0.00469,-0.014495
2758,0.000481,0.012055,-0.014495
2759,-0.01874,0.0288,0.057969
2760,0.019703,-0.00469,-0.014495
2761,0.019703,0.012055,-0.014495
2762,0.019703,0.012055,0.039853
2763,0.000481,0.012055,-0.014495
2764,-0.01874,0.0288,0.003621
2765,0.000481,0.0288,-0.014495
2766,0.000481,0.0288,-0.014495
2767,0.000481,0.012055,0.021737
2768,-0.01874,0.045545,0.057969
2769,0.000481,0.012055,-0.014495
2770,0.000481,-0.00469,0.039853
2771,-0.037962,-0.00469,0.003621
2772,0.000481,0.012055,-0.014495
2773,0.000481,0.012055,0.003621
2774,0.019703,0.012055,-0.032611
2775,0.000481,-0.00469,-0.032611
2776,0.038924,0.012055,0.003621
2777,0.019703,0.012055,0.039853
2778,0.019703,0.012055,-0.014495
2779,0.019703,-0.00469,0.021737
2780,-0.037962,-0.00469,0.003621
2781,0.000481,0.012055,0.003621
2782,-0.01874,0.012055,0.039853
2783,0.000481,-0.00469,-0.032611
2784,0.019703,0.079034,-0.014495
2785,0.000481,0.012055,0.003621
2786,0.000481,-0.00469,0.003621
2787,0.000481,0.0288,0.039853
2788,0.038924,0.012055,0.021737
2789,0.038924,-0.00469,0.003621
2790,0.038924,0.012055,-0.032611
2791,0.019703,-0.00469,0.003621
2792,-0.01874,-0.00469,0.003621
2793,0.000481,-0.00469,0.003621
2794,0.019703,-0.021435,0.039853
2795,0.000481,0.012055,0.021737
2796,0.019703,-0.00469,0.039853
2797,0.000481,-0.021435,0.021737
2798,0.000481,-0.00469,-0.014495
2799,0.019703,-0.00469,0.039853
2800,0.000481,-0.00469,0.003621
2801,0.000481,-0.00469,-0.032611
2802,0.019703,0.012055,0.021737
2803,0.019703,0.012055,0.039853
2804,0.000481,-0.00469,0.003621
2805,0.019703,-0.00469,0.003621
2806,0.019703,-0.00469,0.003621
2807,0.019703,-0.00469,-0.032611
2808,0.019703,-0.00469,0.003621
2809,0.038924,-0.00469,0.003621
2810,0.000481,0.012055,-0.032611
2811,-0.037962,0.012055,-0.014495
2812,-0.01874,-0.021435,0.057969
2813,0.019703,-0.021435,0.003621
2814,-0.01874,-0.00469,0.003621
2815,-0.01874,-0.00469,0.003621
2816,0.000481,-0.021435,-0.014495
2817,-0.01874,-0.00469,-0.014495
2818,-0.01874,-0.021435,-0.032611
2819,-0.01874,-0.021435,-0.050727
2820,-0.01874,0.012055,-0.050727
2821,-0.01874,0.0288,-0.050727
2822,-0.037962,-0.00469,-0.032611
2823,-0.01874,-0.021435,-0.014495
2824,-0.01874,-0.021435,-0.032611
2825,-0.01874,0.012055,-0.032611
2826,-0.01874,0.012055,-0.014495
2827,-0.037962,0.012055,-0.050727
2828,-0.037962,0.079034,-0.068843
2829,-0.01874,0.012055,-0.014495
2830,-0.037962,0.012055,-0.050727
2831,-0.037962,0.012055,-0.014495
2832,-0.01874,0.012055,0.039853
2833,-0.01874,-0.00469,-0.014495
2834,0.000481,0.012055,-0.032611
2835,-0.01874,-0.00469,-0.032611
2836,-0.057183,0.0288,-0.032611
2837,0.019703,0.0288,-0.032611
2838,0.000481,0.012055,0.003621
2839,0.000481,0.012055,-0.014495
2840,0.000481,-0.00469,0.003621
2841,0.000481,0.0288,-0.014495
2842,0.000481,0.012055,-0.032611
2843,-0.01874,0.012055,-0.014495
2844,0.000481,0.012055,-0.032611
2845,-0.01874,-0.021435,-0.014495
2846,-0.01874,-0.021435,-0.014495
2847,0.000481,-0.00469,-0.014495
2848,-0.01874,-0.021435,-0.050727
2849,0.019703,-0.00469,0.003621
2850,0.000481,-0.021435,-0.014495
2851,-0.01874,0.012055,-0.050727
2852,0.000481,-0.021435,-0.014495
2853,0.000481,-0.00469,-0.050727
2854,-0.01874,-0.00469,-0.105075
2855,0.000481,0.012055,-0.050727
2856,0.000481,0.012055,0.003621
2857,0.000481,-0.00469,0.003621
2858,-0.01874,-0.00469,-0.032611
2859,0.000481,-0.00469,-0.032611
2860,0.000481,0.012055,-0.068843
2861,0.019703,0.012055,-0.068843
2862,-0.01874,-0.00469,-0.050727
2863,-0.01874,-0.00469,-0.032611
2864,0.019703,-0.00469,-0.014495
2865,0.000481,-0.021435,-0.032611
2866,0.000481,0.012055,0.003621
2867,0.000481,-0.021435,-0.014495
2868,-0.01874,-0.021435,-0.014495
2869,-0.01874,-0.021435,-0.068843
2870,-0.01874,-0.00469,-0.032611
2871,-0.037962,0.012055,-0.050727
2872,-0.01874,-0.021435,-0.014495
2873,-0.01874,0.012055,0.003621
2874,-0.037962,-0.00469,-0.014495
2875,0.000481,0.012055,0.003621
2876,0.019703,0.012055,-0.014495
2877,0.000481,-0.021435,-0.050727
2878,0.000481,-0.00469,-0.086959
2879,-0.01874,-0.021435,-0.032611
2880,-0.01874,-0.00469,-0.050727
2881,-0.01874,0.012055,-0.014495
2882,-0.01874,0.012055,-0.014495
2883,-0.01874,0.0288,-0.014495
2884,0.000481,0.012055,0.021737
2885,0.000481,0.012055,-0.014495
2886,0.000481,0.012055,-0.032611
2887,-0.037962,-0.00469,-0.050727
2888,0.000481,-0.00469,-0.032611
2889,-0.01874,0.0288,-0.050727
2890,0.000481,-0.021435,0.003621
2891,0.019703,-0.00469,0.021737
2892,-0.01874,0.012055,-0.050727
2893,0.000481,0.012055,0.003621
2894,0.000481,-0.00469,-0.050727
2895,0.019703,0.045545,-0.014495
2896,0.000481,0.012055,-0.014495
2897,0.000481,-0.00469,-0.050727
2898,-0.01874,0.012055,-0.014495
2899,-0.01874,0.0288,0.003621
2900,-0.01874,-0.00469,0.021737
2901,0.000481,0.0288,0.003621
2902,0.000481,-0.00469,-0.014495
2903,0.019703,0.012055,0.003621
2904,0.000481,0.012055,-0.032611
2905,-0.01874,0.0288,-0.014495
2906,0.000481,-0.021435,-0.050727
2907,-0.01874,0.012055,0.003621
2908,0.019703,0.012055,0.021737
2909,0.038924,-0.00469,0.003621
2910,0.000481,0.012055,0.003621
2911,0.000481,0.0288,0.021737
2912,-0.01874,-0.00469,-0.032611
2913,0.038924,0.0288,-0.050727
2914,0.019703,0.012055,-0.014495
2915,0.000481,-0.00469,-0.068843
2916,0.000481,-0.00469,-0.014495
2917,-0.01874,-0.021435,-0.032611
2918,-0.037962,-0.00469,0.003621
2919,-0.01874,0.012055,0.021737
2920,-0.01874,0.012055,0.003621
2921,0.019703,-0.00469,-0.032611
2922,0.000481,0.012055,-0.032611
2923,0.000481,0.012055,-0.050727
2924,0.019703,-0.00469,-0.032611
2925,0.000481,0.079034,0.021737
2926,0.000481,0.012055,0.021737
2927,-0.01874,0.012055,0.003621
2928,0.000481,-0.00469,0.039853
2929,0.000481,0.012055,-0.032611
2930,0.000481,-0.00469,-0.068843
2931,0.000481,-0.021435,-0.032611
2932,-0.01874,-0.00469,-0.050727
2933,0.000481,-0.00469,-0.032611
2934,0.000481,0.012055,-0.014495
2935,0.000481,0.012055,0.039853
2936,0.000481,0.012055,0.003621
2937,0.000481,-0.00469,0.021737
2938,0.000481,-0.00469,0.003621
2939,0.019703,-0.00469,-0.014495
2940,0.000481,-0.00469,-0.014495
2941,-0.01874,0.012055,-0.032611
2942,-0.01874,-0.00469,-0.032611
2943,-0.01874,0.012055,-0.014495
2944,0.000481,-0.021435,-0.014495
2945,0.000481,0.012055,0.003621
2946,-0.01874,-0.00469,-0.032611
2947,-0.01874,-0.00469,-0.032611
2948,0.019703,0.012055,-0.068843
2949,0.019703,0.012055,-0.050727
2950,0.000481,-0.00469,-0.050727
2951,-0.01874,0.012055,-0.014495
2952,-0.037962,-0.00469,-0.014495
2953,0.000481,-0.00469,-0.014495
2954,0.000481,0.012055,0.003621
2955,0.000481,0.012055,-0.032611
2956,-0.01874,-0.00469,-0.050727
2957,0.000481,0.012055,-0.032611
2958,-0.01874,0.012055,-0.032611
2959,-0.01874,0.012055,-0.032611
2960,-0.01874,0.012055,-0.014495
2961,0.000481,-0.00469,0.003621
2962,0.000481,0.012055,-0.014495
2963,0.038924,-0.00469,0.003621
2964,-0.01874,-0.00469,-0.032611
2965,-0.01874,-0.00469,-0.050727
2966,-0.01874,-0.00469,-0.050727
2967,-0.01874,-0.00469,-0.032611
2968,0.000481,-0.00469,-0.014495
2969,0.000481,-0.00469,0.003621
2970,0.000481,0.012055,-0.032611
2971,-0.01874,-0.00469,0.003621
2972,0.000481,-0.00469,-0.014495
2973,0.000481,0.012055,-0.032611
2974,0.000481,0.012055,-0.032611
2975,0.000481,-0.00469,-0.032611
2976,-0.01874,0.012055,-0.050727
2977,-0.01874,0.0288,0.021737
2978,0.000481,-0.00469,0.003621
2979,0.000481,-0.00469,-0.032611
2980,-0.01874,0.0288,0.021737
2981,-0.01874,-0.00469,-0.032611
2982,-0.01874,0.012055,-0.032611
2983,0.000481,-0.00469,-0.068843
2984,-0.01874,0.012055,-0.014495
2985,-0.01874,0.012055,-0.050727
2986,-0.01874,-0.00469,-0.032611
2987,-0.01874,0.012055,0.021737
2988,0.000481,-0.00469,-0.032611
2989,0.000481,0.012055,0.021737
2990,0.000481,0.012055,-0.014495
2991,0.000481,0.0288,-0.032611
2992,0.000481,0.012055,-0.014495
2993,-0.01874,0.012055,-0.068843
2994,-0.01874,-0.00469,-0.014495
2995,0.000481,0.012055,-0.032611
2996,0.000481,-0.021435,0.021737
2997,0.000481,0.012055,-0.032611
2998,0.000481,-0.00469,0.021737
2999,0.000481,0.012055,-0.032611
3000,0.000481,0.012055,-0.050727
3001,0.019703,-0.00469,-0.032611
3002,-0.01874,-0.00469,-0.032611
3003,-0.01874,0.012055,-0.014495
3004,0.000481,0.012055,0.003621
3005,-0.01874,0.0288,0.021737
3006,0.000481,0.0288,-0.014495
3007,0.000481,0.012055,-0.014495
3008,-0.01874,-0.00469,-0.032611
3009,0.000481,0.0288,-0.032611
3010,-0.01874,0.012055,0.003621
3011,-0.01874,0.06229,-0.086959
3012,-0.01874,-0.00469,-0.032611
3013,-0.01874,0.079034,0.003621
3014,0.019703,0.012055,0.003621
3015,-0.01874,-0.00469,0.003621
3016,0.000481,-0.021435,-0.050727
3017,0.000481,0.012055,-0.050727
3018,-0.01874,-0.00469,-0.068843
3019,0.000481,0.012055,-0.014495
3020,0.019703,0.012055,-0.032611
3021,0.000481,-0.00469,-0.032611
3022,0.000481,0.045545,0.039853
3023,-0.01874,0.0288,-0.032611
3024,-0.01874,0.0288,0.021737
3025,-0.01874,-0.00469,-0.050727
3026,-0.01874,0.012055,-0.032611
3027,-0.01874,-0.00469,-0.014495
3028,-0.01874,0.012055,-0.068843
3029,-0.01874,0.012055,-0.032611
3030,-0.037962,-0.00469,0.003621
3031,-0.01874,0.012055,0.003621
3032,-0.037962,0.012055,-0.014495
3033,-0.01874,0.012055,0.021737
3034,0.000481,0.012055,-0.050727
3035,0.000481,-0.021435,-0.032611
3036,0.019703,0.012055,0.003621
3037,0.000481,-0.00469,-0.032611
3038,-0.01874,0.0288,0.003621
3039,-0.01874,0.0288,0.039853
3040,-0.01874,0.012055,-0.014495
3041,0.000481,-0.00469,-0.032611
3042,0.000481,-0.00469,0.003621
3043,0.019703,0.012055,-0.014495
3044,-0.037962,-0.00469,-0.032611
3045,-0.01874,0.0288,-0.014495
3046,0.019703,0.012055,-0.068843
3047,0.000481,0.0288,-0.032611
3048,0.000481,-0.00469,-0.014495
3049,0.000481,0.012055,-0.032611
3050,0.019703,-0.021435,0.003621
3051,0.019703,0.012055,-0.032611
3052,0.000481,-0.00469,-0.032611
3053,0.000481,0.045545,-0.032611
3054,-0.01874,0.012055,-0.014495
3055,0.019703,0.012055,-0.068843
3056,0.000481,0.0288,0.003621
3057,-0.057183,0.012055,0.021737
3058,0.000481,0.012055,-0.014495
3059,0.019703,-0.00469,0.039853
3060,0.000481,-0.00469,0.003621
3061,0.019703,0.012055,-0.050727
3062,0.000481,-0.021435,-0.032611
3063,-0.01874,-0.00469,0.003621
3064,-0.01874,-0.00469,-0.014495
3065,-0.037962,-0.00469,0.003621
3066,-0.076405,-0.00469,0.003621
3067,-0.037962,-0.00469,0.003621
3068,-0.037962,0.012055,-0.032611
3069,-0.01874,0.045545,-0.014495
3070,-0.01874,0.012055,-0.050727
3071,-0.01874,0.0288,-0.032611
3072,0.000481,0.012055,-0.050727
3073,0.019703,0.0288,-0.032611
3074,0.058146,-0.021435,0.003621
3075,0.077367,0.012055,-0.032611
3076,0.077367,0.0288,-0.014495
3077,0.019703,0.012055,-0.032611
3078,0.019703,-0.00469,-0.014495
3079,0.019703,-0.00469,-0.014495
3080,0.000481,0.012055,-0.014495
3081,-0.037962,-0.038179,-0.032611
3082,0.000481,0.0288,-0.032611
3083,-0.01874,0.0288,0.039853
3084,-0.037962,0.012055,-0.014495
3085,-0.01874,-0.00469,-0.050727
3086,-0.057183,0.012055,-0.014495
3087,0.000481,0.0288,0.003621
3088,-0.01874,0.012055,0.003621
3089,0.000481,0.012055,0.003621
3090,0.000481,-0.00469,-0.014495
3091,0.000481,0.012055,-0.014495
3092,0.038924,-0.00469,-0.014495
3093,0.000481,-0.00469,-0.050727
3094,0.019703,-0.021435,0.003621
3095,0.000481,-0.021435,-0.068843
3096,-0.037962,0.012055,-0.050727
3097,-0.01874,0.012055,-0.014495
3098,0.000481,-0.00469,0.039853
3099,0.000481,0.012055,-0.014495
3100,0.000481,0.0288,0.021737
3101,0.038924,-0.00469,-0.014495
3102,0.019703,0.012055,-0.050727
3103,0.019703,-0.00469,-0.050727
3104,-0.037962,0.012055,-0.068843
3105,-0.01874,-0.00469,0.003621
3106,-0.037962,0.045545,0.003621
3107,-0.037962,-0.00469,0.021737
3108,-0.01874,0.045545,-0.014495
3109,-0.037962,-0.00469,0.003621
3110,0.000481,0.012055,-0.014495
3111,-0.01874,0.0288,-0.050727
3112,-0.01874,0.0288,-0.032611
3113,0.019703,-0.00469,-0.032611
3114,-0.01874,0.012055,-0.014495
3115,0.000481,0.0288,-0.014495
3116,0.000481,0.012055,-0.050727
3117,0.019703,-0.00469,0.003621
3118,0.000481,0.0288,0.003621
3119,-0.057183,-0.00469,0.003621
3120,-0.037962,0.012055,-0.086959
3121,0.000481,-0.021435,-0.032611
3122,0.000481,0.012055,-0.068843
3123,-0.01874,-0.00469,-0.032611
3124,0.000481,0.012055,-0.014495
3125,0.019703,-0.021435,-0.032611
3126,0.019703,0.012055,0.021737
3127,0.038924,0.012055,-0.032611
3128,0.038924,0.012055,-0.032611
3129,0.11581,-0.021435,-0.014495
3130,0.077367,0.0288,-0.068843
3131,0.038924,-0.021435,-0.050727
3132,-0.01874,0.012055,-0.050727
3133,-0.076405,0.012055,0.003621
3134,-0.114848,-0.00469,-0.014495
3135,-0.095626,-0.00469,0.021737
3136,-0.01874,0.012055,-0.068843
3137,0.038924,0.012055,-0.032611
3138,0.000481,0.012055,-0.032611
3139,-0.037962,0.012055,-0.014495
3140,-0.037962,0.012055,-0.014495
3141,0.019703,-0.00469,0.003621
3142,-0.076405,-0.00469,0.003621
3143,-0.037962,-0.038179,0.003621
3144,-0.037962,-0.00469,0.003621
3145,-0.037962,0.012055,-0.032611
3146,0.000481,0.012055,-0.050727
3147,0.000481,-0.00469,-0.032611
3148,0.000481,-0.00469,-0.068843
3149,0.038924,-0.021435,-0.032611
3150,0.058146,0.0288,-0.032611
3151,0.077367,-0.00469,-0.014495
3152,0.019703,0.012055,0.003621
3153,0.000481,-0.00469,-0.032611
3154,-0.01874,0.012055,-0.050727
3155,-0.057183,0.0288,-0.050727
3156,-0.057183,0.012055,-0.050727
3157,-0.01874,-0.021435,-0.068843
3158,0.000481,-0.00469,-0.032611
3159,0.038924,0.012055,0.003621
3160,0.000481,0.012055,-0.014495
3161,-0.01874,-0.021435,-0.014495
3162,-0.01874,0.012055,-0.068843
3163,0.000481,-0.021435,-0.050727
3164,-0.01874,-0.00469,-0.032611
3165,-0.01874,-0.021435,-0.032611
3166,-0.01874,-0.00469,-0.014495
3167,-0.01874,0.0288,0.003621
3168,-0.037962,-0.00469,0.021737
3169,-0.037962,0.012055,-0.014495
3170,-0.037962,0.012055,-0.032611
3171,0.019703,0.012055,-0.032611
3172,-0.01874,0.012055,-0.068843
3173,-0.037962,-0.021435,0.021737
3174,-0.037962,0.012055,-0.050727
3175,0.000481,-0.00469,-0.032611
3176,0.000481,0.012055,0.021737
3177,0.019703,0.012055,-0.032611
3178,0.000481,-0.021435,-0.032611
3179,0.038924,0.012055,-0.014495
3180,0.038924,-0.00469,-0.068843
3181,0.038924,0.012055,-0.068843
3182,0.019703,-0.00469,-0.050727
3183,0.000481,0.0288,-0.032611
3184,0.000481,-0.00469,-0.014495
3185,0.000481,0.0288,-0.014495
3186,0.000481,0.012055,0.003621
3187,0.019703,-0.00469,-0.014495
3188,0.000481,-0.00469,-0.014495
3189,0.000481,-0.00469,-0.032611
3190,-0.037962,0.012055,-0.068843
3191,-0.057183,0.012055,-0.050727
3192,0.019703,-0.00469,-0.014495
3193,-0.01874,-0.00469,-0.032611
3194,-0.076405,0.012055,-0.014495
3195,-0.037962,-0.00469,-0.050727
3196,0.038924,-0.00469,-0.014495
3197,0.000481,-0.00469,-0.014495
3198,-0.01874,0.012055,-0.032611
3199,0.000481,0.045545,-0.032611
3200,-0.01874,-0.00469,-0.068843
3201,0.000481,0.012055,-0.032611
3202,-0.01874,-0.00469,-0.014495
3203,0.019703,-0.00469,0.003621
3204,0.000481,0.012055,0.021737
3205,0.000481,-0.00469,0.003621
3206,0.000481,0.012055,-0.068843
3207,0.000481,-0.00469,-0.050727
3208,0.000481,0.012055,-0.032611
3209,-0.01874,0.012055,-0.014495
3210,-0.01874,-0.00469,-0.032611
3211,-0.01874,0.012055,-0.014495
3212,0.000481,0.012055,-0.032611
3213,0.000481,0.012055,0.021737
3214,-0.01874,-0.00469,-0.032611
3215,0.019703,-0.00469,-0.050727
3216,-0.01874,0.012055,-0.068843
3217,0.000481,-0.021435,-0.014495
3218,0.000481,-0.00469,-0.068843
3219,0.000481,0.012055,-0.014495
3220,0.019703,0.012055,0.039853
3221,0.019703,0.012055,-0.014495
3222,0.000481,-0.00469,0.021737
3223,-0.01874,-0.00469,-0.032611
3224,-0.01874,-0.00469,-0.068843
3225,-0.01874,-0.00469,-0.050727
3226,0.000481,-0.00469,-0.068843
3227,0.000481,-0.00469,-0.050727
3228,0.000481,0.012055,0.003621
3229,0.019703,0.012055,-0.032611
3230,-0.01874,-0.00469,-0.014495
3231,0.038924,0.012055,-0.032611
3232,0.000481,-0.00469,-0.032611
3233,-0.01874,0.012055,-0.068843
3234,-0.01874,0.012055,-0.032611
3235,-0.01874,0.0288,-0.050727
3236,-0.037962,-0.00469,-0.050727
3237,0.019703,0.012055,0.003621
3238,0.000481,0.012055,-0.014495
3239,-0.01874,-0.00469,-0.050727
3240,-0.01874,0.0288,0.003621
3241,-0.01874,-0.00469,-0.050727
3242,0.000481,0.012055,-0.032611
3243,0.000481,-0.00469,0.003621
3244,-0.01874,-0.00469,-0.032611
3245,0.000481,-0.00469,-0.032611
3246,-0.01874,-0.00469,0.021737
3247,0.019703,0.012055,-0.032611
3248,0.000481,0.012055,-0.014495
3249,0.038924,0.012055,-0.050727
3250,0.019703,0.012055,-0.050727
3251,0.019703,-0.00469,-0.014495
3252,0.019703,-0.021435,-0.014495
3253,0.019703,0.012055,-0.032611
3254,-0.01874,-0.00469,0.003621
3255,-0.037962,-0.00469,-0.032611
3256,-0.01874,-0.00469,-0.050727
3257,0.019703,0.012055,-0.032611
3258,-0.01874,0.012055,-0.050727
3259,0.019703,-0.00469,-0.068843
3260,0.000481,-0.00469,-0.014495
3261,-0.01874,-0.021435,-0.014495
3262,0.019703,-0.00469,-0.032611
3263,0.019703,0.012055,-0.032611
3264,0.000481,-0.00469,-0.032611
3265,0.000481,-0.00469,-0.014495
3266,-0.01874,-0.00469,0.003621
3267,0.019703,-0.00469,-0.086959
3268,-0.01874,0.012055,-0.014495
3269,-0.01874,-0.00469,-0.032611
3270,-0.01874,0.012055,-0.050727
3271,-0.037962,-0.00469,0.003621
3272,-0.01874,-0.00469,0.003621
3273,-0.037962,-0.00469,-0.050727
3274,-0.01874,-0.038179,-0.068843
3275,-0.037962,0.012055,-0.050727
3276,-0.01874,-0.00469,-0.086959
3277,0.000481,-0.00469,-0.050727
3278,0.019703,-0.00469,-0.014495
3279,0.000481,-0.00469,-0.032611
3280,0.038924,0.012055,0.021737
3281,0.019703,-0.00469,-0.014495
3282,0.019703,-0.00469,-0.032611
3283,0.019703,0.012055,-0.050727
3284,0.000481,0.012055,-0.050727
3285,0.000481,-0.00469,-0.068843
3286,-0.01874,-0.00469,-0.050727
3287,0.000481,-0.00469,-0.014495
3288,-0.01874,-0.00469,-0.014495
3289,0.000481,-0.021435,0.003621
3290,0.000481,0.0288,-0.050727
3291,0.000481,-0.00469,-0.068843
3292,0.000481,0.0288,-0.032611
3293,-0.037962,-0.00469,-0.032611
3294,0.000481,-0.00469,-0.050727
3295,0.000481,-0.00469,-0.014495
3296,0.000481,0.012055,0.021737
3297,0.019703,-0.00469,0.003621
3298,-0.01874,-0.021435,-0.014495
3299,-0.01874,-0.00469,-0.032611
3300,0.000481,-0.00469,-0.050727
3301,-0.037962,0.012055,-0.014495
3302,0.000481,-0.00469,-0.068843
3303,-0.01874,-0.021435,-0.014495
3304,-0.01874,-0.021435,0.003621
3305,0.019703,-0.00469,0.003621
3306,0.077367,-0.021435,0.003621
3307,0.096589,0.012055,-0.014495
3308,0.077367,-0.00469,-0.014495
3309,0.000481,0.012055,-0.050727
3310,-0.076405,0.045545,-0.068843
3311,-0.095626,-0.021435,-0.032611
3312,-0.095626,0.012055,0.003621
3313,0.000481,-0.021435,-0.014495
3314,0.019703,0.012055,-0.014495
3315,0.000481,-0.00469,0.003621
3316,-0.01874,-0.00469,-0.050727
3317,0.000481,-0.00469,-0.050727
3318,-0.01874,-0.00469,-0.068843
3319,0.000481,0.012055,-0.050727
3320,-0.01874,-0.00469,-0.032611
3321,-0.037962,-0.00469,-0.014495
3322,-0.037962,0.012055,0.003621
3323,-0.01874,0.012055,-0.050727
3324,0.000481,-0.021435,0.021737
3325,0.000481,-0.00469,-0.032611
3326,0.000481,0.012055,-0.086959
3327,0.000481,0.012055,-0.032611
3328,-0.01874,-0.00469,-0.068843
3329,0.000481,-0.021435,-0.014495
3330,-0.037962,-0.00469,0.039853
3331,0.000481,-0.00469,-0.014495
3332,0.000481,0.012055,-0.032611
3333,0.000481,-0.00469,0.003621
3334,0.038924,0.012055,-0.032611
3335,0.038924,-0.00469,-0.050727
3336,0.000481,0.045545,-0.032611
3337,-0.01874,-0.00469,-0.086959
3338,0.019703,0.012055,0.003621
3339,0.000481,0.012055,0.021737
3340,0.000481,0.012055,-0.032611
3341,0.019703,0.012055,-0.014495
3342,0.038924,-0.00469,-0.014495
3343,0.038924,-0.00469,-0.050727
3344,0.038924,0.012055,-0.050727
3345,0.019703,0.012055,-0.068843
3346,0.000481,0.0288,0.003621
3347,0.000481,-0.021435,-0.014495
3348,-0.076405,-0.054924,0.003621
3349,-0.057183,-0.00469,-0.014495
3350,-0.01874,-0.021435,-0.014495
3351,-0.01874,0.012055,-0.014495
3352,-0.057183,0.012055,-0.032611
3353,-0.057183,0.0288,-0.014495
3354,-0.057183,0.012055,-0.050727
3355,-0.037962,-0.021435,-0.032611
3356,0.019703,0.012055,0.003621
3357,0.038924,-0.00469,-0.014495
3358,0.038924,0.012055,0.003621
3359,0.000481,0.012055,-0.050727
3360,0.019703,-0.021435,-0.050727
3361,0.038924,-0.00469,-0.050727
3362,0.077367,0.012055,-0.014495
3363,0.038924,0.012055,-0.032611
3364,0.019703,-0.021435,-0.014495
3365,0.038924,0.012055,0.003621
3366,0.019703,0.012055,-0.032611
3367,0.000481,0.012055,0.021737
3368,-0.057183,0.0288,-0.032611
3369,-0.076405,-0.021435,-0.032611
3370,-0.037962,-0.00469,0.003621
3371,0.000481,-0.00469,0.021737
3372,-0.01874,-0.00469,-0.014495
3373,0.000481,-0.00469,-0.032611
3374,0.000481,-0.00469,0.021737
3375,0.019703,0.012055,-0.032611
3376,0.038924,0.012055,0.003621
3377,0.058146,0.012055,0.003621
3378,0.038924,0.012055,-0.032611
3379,0.038924,0.012055,-0.032611
3380,0.019703,0.012055,-0.068843
3381,0.000481,0.0288,-0.050727
3382,-0.01874,0.012055,0.003621
3383,0.000481,-0.00469,-0.014495
3384,-0.01874,-0.00469,-0.050727
3385,-0.01874,0.012055,-0.014495
3386,-0.037962,0.012055,-0.050727
3387,-0.037962,-0.021435,-0.086959
3388,-0.076405,0.012055,-0.014495
3389,-0.037962,0.012055,-0.050727
3390,-0.01874,0.012055,-0.014495
3391,0.019703,-0.00469,0.021737
3392,0.000481,-0.00469,-0.032611
3393,0.019703,-0.00469,-0.032611
3394,0.000481,0.012055,-0.032611
3395,0.000481,0.012055,-0.050727
3396,-0.01874,-0.00469,-0.014495
3397,0.000481,-0.021435,0.003621
3398,0.019703,-0.021435,-0.050727
3399,0.000481,0.012055,-0.014495
3400,0.019703,-0.00469,0.021737
3401,0.000481,0.0288,-0.014495
3402,0.000481,0.012055,0.003621
3403,0.019703,-0.00469,-0.014495
3404,0.000481,-0.00469,-0.068843
3405,0.000481,-0.00469,-0.014495
3406,0.000481,0.012055,0.021737
3407,0.000481,-0.021435,-0.014495
3408,0.000481,-0.021435,0.003621
3409,0.000481,-0.00469,-0.032611
3410,0.000481,0.012055,-0.050727
3411,0.000481,-0.00469,-0.014495
3412,0.000481,-0.00469,-0.032611
3413,0.000481,-0.021435,-0.032611
3414,-0.01874,-0.021435,-0.050727
3415,0.000481,-0.00469,-0.014495
3416,-0.01874,-0.00469,-0.014495
3417,-0.01874,0.012055,0.021737
3418,0.000481,-0.00469,-0.032611
3419,-0.01874,0.012055,-0.014495
3420,0.019703,0.012055,-0.014495
3421,0.000481,-0.00469,-0.050727
3422,0.019703,-0.00469,-0.050727
3423,0.077367,0.012055,0.003621
3424,0.077367,0.012055,-0.032611
3425,0.038924,0.045545,-0.014495
3426,-0.01874,0.012055,0.003621
3427,-0.095626,0.0288,-0.014495
3428,-0.114848,0.0288,-0.050727
3429,-0.076405,-0.00469,-0.032611
3430,0.019703,-0.00469,-0.014495
3431,0.019703,-0.00469,-0.032611
3432,0.000481,0.012055,0.003621
3433,-0.037962,-0.00469,0.003621
3434,0.019703,-0.00469,-0.032611
3435,0.019703,-0.00469,-0.014495
3436,0.000481,-0.00469,-0.032611
3437,0.000481,0.012055,-0.032611
3438,0.000481,0.012055,-0.014495
3439,0.000481,-0.038179,-0.032611
3440,0.000481,-0.021435,-0.014495
3441,-0.01874,-0.00469,0.021737
3442,0.000481,0.012055,-0.014495
3443,-0.037962,-0.00469,0.003621
3444,0.019703,-0.00469,0.021737
3445,0.000481,0.012055,0.003621
3446,0.000481,-0.021435,-0.014495
3447,-0.01874,0.012055,-0.032611
3448,0.000481,-0.00469,-0.068843
3449,0.000481,-0.00469,-0.032611
3450,-0.057183,-0.00469,-0.014495
3451,-0.01874,-0.00469,-0.014495
3452,-0.01874,0.0288,0.003621
3453,0.000481,-0.021435,-0.014495
3454,-0.037962,-0.00469,-0.032611
3455,0.019703,-0.00469,-0.050727
3456,-0.01874,-0.00469,-0.068843
3457,0.000481,0.045545,-0.050727
3458,0.019703,-0.00469,-0.014495
3459,0.019703,-0.00469,0.003621
3460,-0.01874,-0.038179,-0.014495
3461,0.000481,0.012055,0.003621
3462,0.000481,-0.00469,0.003621
3463,0.000481,-0.021435,-0.068843
3464,-0.037962,0.012055,-0.032611
3465,-0.01874,0.045545,-0.032611
3466,0.019703,0.012055,0.003621
3467,-0.01874,0.012055,-0.014495
3468,-0.01874,0.012055,-0.014495
3469,0.000481,0.0288,-0.014495
3470,0.000481,-0.00469,0.039853
3471,0.019703,0.012055,-0.050727
3472,0.000481,-0.00469,-0.086959
3473,0.000481,0.012055,-0.050727
3474,-0.01874,0.012055,-0.050727
3475,-0.01874,-0.038179,0.003621
3476,-0.01874,-0.021435,0.021737
3477,-0.01874,-0.021435,0.003621
3478,-0.01874,-0.00469,0.039853
3479,0.000481,0.0288,-0.014495
3480,0.019703,0.0288,-0.014495
3481,-0.037962,0.0288,-0.068843
3482,-0.01874,-0.00469,-0.050727
3483,-0.037962,-0.038179,-0.050727
3484,-0.01874,-0.038179,0.003621
3485,0.000481,0.012055,0.003621
3486,0.038924,0.012055,-0.014495
3487,0.000481,-0.00469,0.003621
3488,0.038924,-0.00469,-0.032611
3489,0.019703,0.0288,-0.032611
3490,0.019703,-0.021435,-0.014495
3491,0.000481,0.0288,-0.032611
3492,0.000481,0.0288,-0.050727
3493,0.000481,0.012055,-0.014495
3494,-0.037962,0.045545,0.021737
3495,-0.01874,-0.021435,-0.014495
3496,0.019703,-0.021435,0.021737
3497,0.000481,0.012055,0.003621
3498,0.000481,-0.00469,-0.068843
3499,0.019703,-0.00469,-0.032611
3500,-0.01874,0.0288,-0.068843
3501,0.000481,0.0288,0.003621
3502,0.000481,0.045545,0.021737
3503,-0.01874,-0.00469,0.039853
3504,-0.037962,0.012055,0.003621
3505,0.000481,-0.00469,-0.014495
3506,0.000481,0.0288,-0.032611
3507,-0.01874,-0.00469,-0.068843
3508,-0.01874,0.0288,-0.014495
3509,-0.01874,0.012055,-0.050727
3510,-0.01874,-0.00469,0.003621
3511,-0.01874,-0.00469,0.003621
3512,0.000481,-0.038179,-0.014495
3513,-0.01874,0.0288,0.003621
3514,-0.01874,0.012055,0.003621
3515,0.000481,0.012055,-0.014495
3516,-0.01874,-0.00469,-0.068843
3517,-0.01874,0.012055,-0.032611
3518,0.000481,0.0288,-0.068843
3519,-0.01874,-0.00469,-0.032611
3520,-0.01874,-0.00469,0.003621
3521,0.000481,0.012055,-0.032611
3522,0.000481,0.012055,0.021737
3523,0.019703,-0.00469,-0.014495
3524,0.019703,0.012055,-0.032611
3525,0.000481,-0.00469,-0.032611
3526,-0.037962,-0.021435,-0.032611
3527,0.000481,0.012055,-0.050727
3528,0.000481,0.012055,-0.014495
3529,-0.01874,-0.00469,0.021737
3530,0.000481,0.012055,-0.014495
3531,-0.01874,0.012055,0.003621
3532,-0.037962,0.012055,-0.032611
3533,0.000481,-0.00469,-0.050727
3534,-0.037962,-0.021435,-0.032611
3535,0.000481,-0.00469,-0.014495
3536,-0.01874,0.012055,-0.032611
3537,0.019703,-0.00469,-0.014495
3538,0.000481,0.012055,-0.014495
3539,-0.037962,-0.00469,-0.014495
3540,0.000481,-0.00469,0.003621
3541,0.000481,-0.00469,-0.032611
3542,-0.01874,-0.00469,-0.050727
3543,0.000481,0.012055,0.003621
3544,0.000481,-0.00469,-0.032611
3545,0.000481,-0.00469,-0.014495
3546,0.000481,-0.00469,0.021737
3547,0.038924,-0.00469,-0.014495
3548,0.038924,0.012055,0.003621
3549,0.019703,-0.00469,0.003621
3550,0.000481,0.0288,-0.014495
3551,-0.01874,0.0288,-0.032611
3552,0.019703,-0.00469,-0.014495
3553,0.038924,-0.00469,-0.032611
3554,0.000481,-0.00469,0.003621
3555,0.000481,-0.00469,0.021737
3556,0.019703,-0.038179,0.003621
3557,0.000481,-0.00469,0.021737
3558,0.019703,0.012055,-0.014495
3559,-0.01874,-0.00469,-0.050727
3560,0.000481,-0.00469,-0.032611
3561,-0.01874,-0.00469,-0.032611
3562,-0.01874,0.012055,-0.032611
3563,-0.01874,-0.00469,0.021737
3564,-0.01874,0.012055,0.003621
3565,-0.01874,-0.00469,-0.032611
3566,0.000481,-0.00469,0.003621
3567,0.000481,-0.00469,-0.014495
3568,-0.01874,-0.021435,-0.050727
3569,-0.01874,-0.00469,-0.014495
3570,-0.01874,0.012055,-0.032611
3571,0.000481,-0.00469,0.003621
3572,-0.01874,-0.00469,-0.014495
3573,0.000481,0.012055,-0.014495
3574,0.000481,-0.00469,0.003621
3575,0.000481,0.045545,0.003621
3576,0.019703,-0.00469,-0.050727
3577,-0.01874,0.012055,-0.068843
3578,0.000481,-0.00469,-0.014495
3579,-0.037962,0.012055,-0.032611
3580,-0.01874,-0.00469,-0.050727
3581,0.000481,-0.00469,0.003621
3582,0.038924,0.012055,0.003621
3583,0.038924,-0.00469,-0.014495
3584,0.038924,-0.00469,0.039853
3585,0.000481,0.012055,0.003621
3586,-0.01874,0.012055,-0.032611
3587,-0.037962,-0.021435,0.003621
3588,0.000481,0.012055,-0.068843
3589,0.000481,-0.00469,-0.032611
3590,-0.01874,0.012055,-0.014495
3591,0.000481,0.012055,0.021737
3592,0.000481,-0.021435,-0.014495
3593,0.000481,-0.00469,-0.014495
3594,-0.01874,0.012055,-0.050727
3595,0.000481,0.012055,-0.014495
3596,0.000481,0.012055,-0.014495
3597,-0.01874,0.012055,-0.050727
3598,-0.01874,0.012055,0.003621
3599,-0.037962,-0.00469,0.003621
3600,0.019703,-0.021435,-0.014495
3601,0.058146,-0.00469,0.021737
3602,0.038924,-0.00469,0.021737
3603,0.000481,0.012055,-0.014495
3604,-0.037962,-0.00469,-0.032611
3605,-0.057183,-0.00469,-0.050727
3606,-0.057183,-0.021435,-0.032611
3607,-0.01874,-0.00469,-0.032611
3608,0.038924,0.012055,0.003621
3609,0.058146,-0.00469,0.003621
3610,-0.01874,0.012055,0.021737
3611,-0.01874,0.012055,-0.050727
3612,-0.01874,-0.00469,-0.032611
3613,-0.037962,-0.00469,0.003621
3614,-0.01874,-0.00469,-0.032611
3615,0.000481,-0.00469,-0.014495
3616,0.019703,0.012055,-0.014495
3617,0.000481,0.0288,-0.014495
3618,0.000481,-0.021435,0.021737
3619,0.000481,-0.021435,0.039853
3620,-0.01874,-0.00469,-0.032611
3621,0.000481,-0.021435,-0.050727
3622,0.000481,0.012055,-0.032611
3623,-0.037962,0.012055,-0.068843
3624,0.000481,-0.00469,-0.032611
3625,0.019703,0.012055,0.021737
3626,-0.01874,0.012055,-0.032611
3627,0.038924,-0.00469,0.003621
3628,0.019703,-0.00469,0.003621
3629,0.019703,0.0288,-0.032611
3630,0.000481,0.012055,-0.050727
3631,0.000481,0.012055,-0.032611
3632,-0.01874,-0.021435,-0.068843
3633,-0.01874,-0.00469,-0.032611
3634,-0.01874,-0.00469,0.003621
3635,0.019703,0.0288,-0.014495
3636,0.058146,0.012055,0.039853
3637,0.058146,0.012055,0.021737
3638,0.038924,-0.021435,-0.032611
3639,0.038924,0.012055,-0.032611
3640,-0.037962,0.012055,-0.032611
3641,-0.037962,0.0288,-0.032611
3642,-0.037962,-0.00469,-0.014495
3643,-0.037962,-0.021435,0.003621
3644,0.038924,-0.00469,-0.014495
3645,0.077367,-0.00469,0.039853
3646,0.077367,0.012055,0.003621
3647,0.096589,-0.00469,-0.068843
3648,0.038924,0.012055,-0.014495
3649,-0.037962,-0.00469,-0.068843
3650,-0.095626,-0.00469,-0.032611
3651,-0.210955,0.012055,-0.032611
3652,-0.134069,-0.00469,0.003621
3653,-0.037962,0.012055,0.003621
3654,-0.01874,0.012055,0.021737
3655,-0.037962,0.012055,0.003621
3656,-0.037962,0.012055,-0.068843
3657,0.038924,0.012055,-0.014495
3658,0.019703,0.012055,-0.068843
3659,0.038924,0.012055,-0.032611
3660,0.019703,-0.00469,-0.032611
3661,0.000481,0.012055,0.021737
3662,0.000481,-0.00469,-0.014495
3663,0.000481,-0.00469,0.039853
3664,0.000481,0.012055,-0.032611
3665,-0.01874,0.012055,-0.050727
3666,0.019703,-0.00469,0.021737
3667,0.000481,-0.00469,-0.032611
3668,0.000481,0.012055,-0.014495
3669,-0.01874,-0.00469,0.003621
3670,-0.01874,-0.021435,-0.032611
3671,-0.01874,-0.00469,0.003621
3672,-0.037962,0.012055,-0.014495
3673,0.000481,0.012055,-0.014495
3674,-0.01874,-0.021435,-0.068843
3675,-0.01874,0.012055,-0.032611
3676,-0.01874,-0.00469,-0.050727
3677,-0.01874,0.012055,0.003621
3678,0.019703,0.012055,0.003621
3679,0.019703,0.012055,0.003621
3680,0.019703,0.012055,-0.014495
3681,0.000481,0.012055,0.003621
3682,0.000481,-0.00469,-0.014495
3683,0.019703,0.012055,-0.032611
3684,0.019703,-0.00469,-0.086959
3685,0.000481,0.0288,-0.086959
3686,0.000481,-0.00469,-0.014495
3687,0.000481,0.012055,0.003621
3688,0.000481,0.012055,-0.050727
3689,0.000481,-0.021435,0.003621
3690,0.000481,-0.00469,0.021737
3691,0.019703,0.012055,-0.032611
3692,0.000481,-0.00469,-0.032611
3693,-0.037962,-0.00469,0.003621
3694,0.000481,-0.00469,-0.032611
3695,-0.01874,0.012055,-0.014495
3696,0.000481,-0.00469,0.021737
3697,0.019703,0.012055,0.003621
