# Requested Sampling Rate (Hz):,1000
# Actual Sampling Rate (Hz):,998.491
# Requested Duration (s):,5.0
# Actual Duration (s):,5.046
# REST Calibration:,831.9749657534268,832.2800684931498,831.8001369863033
# MAX Calibration:,884.0000,892.0000,887.0000
# Normalization: MVC-based  (x_norm = (x - REST) / (MAX - REST))
sample_idx,EMG1,EMG2,EMG3
0,0.019703,-0.00469,-0.014495
1,0.000481,-0.00469,-0.032611
2,0.000481,-0.00469,0.003621
3,-0.01874,-0.00469,0.039853
4,-0.01874,-0.00469,0.039853
5,0.019703,-0.00469,-0.014495
6,0.019703,-0.00469,0.003621
7,-0.01874,-0.00469,0.003621
8,-0.01874,0.012055,-0.014495
9,0.000481,-0.00469,-0.032611
10,-0.01874,-0.021435,0.003621
11,0.000481,-0.00469,0.003621
12,-0.01874,0.012055,0.039853
13,0.000481,-0.00469,0.021737
14,-0.037962,0.012055,0.021737
15,0.000481,-0.00469,0.021737
16,-0.01874,-0.00469,-0.032611
17,0.019703,-0.021435,-0.032611
18,0.000481,-0.00469,0.003621
19,0.000481,-0.038179,-0.032611
20,-0.01874,-0.021435,-0.050727
21,-0.01874,-0.00469,-0.032611
22,0.000481,-0.00469,0.021737
23,-0.01874,-0.00469,0.021737
24,-0.037962,-0.054924,0.039853
25,-0.037962,-0.105159,-0.014495
26,0.000481,-0.054924,-0.014495
27,-0.01874,-0.038179,0.039853
28,-0.01874,-0.054924,-0.014495
29,-0.037962,-0.038179,0.003621
30,-0.01874,-0.054924,0.039853
31,-0.057183,-0.038179,-0.014495
32,-0.01874,0.045545,0.039853
33,-0.01874,0.112524,0.021737
34,0.019703,0.0288,-0.032611
35,0.019703,0.06229,-0.014495
36,-0.01874,0.079034,0.021737
37,0.000481,0.079034,-0.032611
38,0.019703,0.079034,0.021737
39,0.019703,0.095779,0.057969
40,0.000481,0.06229,0.021737
41,0.019703,0.0288,0.021737
42,0.038924,0.06229,0.039853
43,-0.01874,0.0288,0.021737
44,0.000481,0.012055,-0.032611
45,-0.01874,0.012055,-0.032611
46,0.000481,0.012055,-0.032611
47,0.000481,-0.00469,0.003621
48,0.019703,0.012055,0.021737
49,0.019703,-0.00469,0.003621
50,0.000481,-0.00469,0.039853
51,0.019703,-0.00469,0.003621
52,0.019703,-0.021435,-0.014495
53,0.019703,-0.038179,0.003621
54,0.000481,-0.054924,-0.014495
55,0.019703,-0.021435,-0.050727
56,0.000481,0.012055,-0.032611
57,0.000481,-0.00469,0.003621
58,-0.01874,-0.00469,-0.032611
59,-0.01874,-0.00469,-0.014495
60,-0.01874,0.012055,-0.014495
61,-0.01874,0.012055,-0.050727
62,0.000481,0.0288,0.003621
63,-0.01874,0.045545,-0.068843
64,-0.01874,0.012055,-0.050727
65,-0.01874,-0.00469,-0.014495
66,0.000481,0.012055,0.003621
67,0.000481,-0.021435,0.003621
68,0.019703,0.012055,-0.014495
69,0.000481,-0.00469,-0.014495
70,0.000481,-0.021435,-0.032611
71,0.019703,-0.00469,0.021737
72,0.019703,-0.00469,-0.032611
73,0.000481,-0.00469,-0.014495
74,-0.037962,-0.00469,0.003621
75,0.019703,-0.00469,0.003621
76,0.000481,-0.00469,0.021737
77,0.000481,0.012055,0.021737
78,0.000481,0.012055,0.039853
79,0.000481,-0.00469,-0.014495
80,-0.01874,-0.021435,-0.014495
81,0.000481,-0.054924,-0.014495
82,-0.01874,-0.021435,0.057969
83,-0.01874,0.012055,0.021737
84,-0.037962,0.012055,0.021737
85,0.000481,0.06229,0.076085
86,0.000481,0.045545,0.003621
87,0.000481,0.0288,0.003621
88,0.000481,0.012055,-0.014495
89,0.019703,-0.021435,0.094201
90,0.038924,-0.021435,0.039853
91,0.019703,0.012055,0.039853
92,0.000481,0.012055,0.057969
93,0.019703,0.012055,0.003621
94,0.000481,0.012055,0.039853
95,0.000481,0.0288,0.021737
96,0.000481,0.012055,0.003621
97,0.000481,0.012055,0.003621
98,-0.01874,0.012055,-0.050727
99,-0.037962,-0.021435,-0.032611
100,-0.01874,-0.00469,0.003621
101,-0.01874,-0.021435,0.094201
102,-0.01874,-0.00469,-0.014495
103,0.000481,0.0288,0.021737
104,-0.037962,0.012055,0.021737
105,0.000481,-0.00469,-0.050727
106,-0.01874,0.012055,-0.032611
107,-0.01874,0.012055,-0.068843
108,0.000481,-0.00469,0.003621
109,-0.01874,0.012055,0.021737
110,0.000481,0.012055,0.039853
111,0.000481,-0.00469,0.003621
112,0.000481,0.012055,0.003621
113,0.000481,-0.00469,-0.014495
114,0.000481,-0.00469,-0.032611
115,-0.01874,-0.038179,0.003621
116,0.000481,-0.021435,0.021737
117,0.000481,-0.038179,0.021737
118,0.019703,-0.021435,0.039853
119,0.000481,0.012055,0.039853
120,0.000481,-0.00469,0.021737
121,0.019703,0.012055,0.021737
122,0.000481,0.012055,-0.032611
123,-0.01874,-0.00469,-0.068843
124,-0.01874,0.012055,-0.032611
125,-0.01874,-0.00469,-0.068843
126,0.000481,0.012055,-0.050727
127,-0.01874,0.012055,-0.032611
128,-0.01874,-0.00469,-0.014495
129,-0.037962,-0.00469,-0.014495
130,0.019703,0.0288,0.003621
131,0.019703,0.012055,-0.014495
132,0.000481,-0.021435,-0.032611
133,0.019703,-0.00469,-0.014495
134,0.019703,-0.021435,-0.014495
135,0.000481,-0.00469,0.021737
136,0.000481,-0.00469,0.021737
137,0.000481,-0.021435,0.003621
138,0.000481,-0.021435,0.003621
139,0.000481,-0.021435,0.021737
140,0.000481,0.0288,0.003621
141,0.000481,0.045545,0.003621
142,-0.01874,-0.00469,-0.014495
143,0.019703,0.012055,0.003621
144,-0.01874,0.012055,0.003621
145,-0.037962,0.045545,0.039853
146,0.000481,0.045545,-0.014495
147,0.000481,0.012055,-0.014495
148,-0.01874,-0.00469,-0.050727
149,0.000481,-0.00469,-0.086959
150,0.000481,-0.038179,-0.014495
151,0.000481,-0.021435,-0.032611
152,0.000481,-0.021435,0.003621
153,0.000481,-0.00469,0.039853
154,0.000481,-0.054924,0.021737
155,0.000481,-0.088414,0.003621
156,0.019703,-0.088414,0.003621
157,-0.01874,-0.071669,-0.014495
158,-0.01874,-0.00469,-0.014495
159,-0.01874,0.012055,0.021737
160,-0.01874,0.012055,-0.014495
161,0.000481,0.045545,0.003621
162,0.000481,0.095779,0.039853
163,0.019703,0.079034,0.021737
164,0.019703,0.06229,0.003621
165,0.000481,0.045545,0.021737
166,-0.01874,0.0288,0.003621
167,0.000481,-0.00469,-0.050727
168,0.000481,0.012055,-0.014495
169,0.000481,-0.00469,-0.050727
170,0.000481,-0.00469,-0.014495
171,-0.01874,0.012055,0.003621
172,-0.037962,-0.021435,-0.050727
173,-0.01874,-0.021435,0.003621
174,0.000481,0.012055,-0.032611
175,0.019703,0.012055,-0.050727
176,-0.01874,-0.00469,-0.086959
177,-0.01874,-0.054924,-0.032611
178,-0.037962,-0.021435,-0.050727
179,-0.01874,-0.021435,-0.014495
180,-0.01874,-0.00469,0.039853
181,-0.01874,-0.00469,0.003621
182,-0.01874,0.012055,0.021737
183,-0.01874,-0.00469,0.021737
184,0.000481,-0.00469,-0.032611
185,-0.01874,-0.00469,0.003621
186,0.019703,-0.00469,0.003621
187,-0.01874,-0.021435,0.003621
188,-0.01874,-0.038179,0.021737
189,0.019703,-0.038179,0.021737
190,-0.01874,-0.038179,0.021737
191,-0.01874,-0.054924,0.039853
192,0.000481,-0.038179,0.021737
193,0.000481,-0.00469,-0.032611
194,0.000481,0.0288,0.003621
195,-0.01874,0.045545,-0.014495
196,0.019703,0.045545,0.003621
197,0.019703,0.012055,0.039853
198,0.000481,0.045545,0.039853
199,0.000481,0.06229,0.039853
200,0.000481,0.06229,0.021737
201,-0.01874,0.0288,-0.032611
202,0.000481,0.012055,-0.032611
203,-0.01874,-0.00469,-0.032611
204,-0.01874,-0.021435,-0.032611
205,0.000481,0.012055,-0.014495
206,0.000481,-0.021435,0.021737
207,0.019703,-0.00469,0.003621
208,-0.01874,-0.021435,-0.014495
209,0.000481,-0.00469,0.039853
210,-0.01874,0.012055,0.003621
211,0.000481,0.012055,0.003621
212,0.019703,-0.00469,-0.014495
213,0.019703,-0.00469,-0.050727
214,0.000481,-0.021435,-0.014495
215,-0.01874,-0.00469,0.003621
216,-0.037962,-0.00469,0.003621
217,-0.01874,0.012055,0.039853
218,0.000481,-0.00469,0.003621
219,-0.037962,0.012055,0.021737
220,0.000481,-0.021435,-0.014495
221,-0.01874,-0.021435,-0.014495
222,-0.01874,0.012055,-0.032611
223,0.000481,-0.00469,0.003621
224,-0.01874,-0.00469,0.003621
225,0.000481,-0.00469,-0.014495
226,0.000481,-0.00469,0.003621
227,0.000481,0.0288,0.003621
228,-0.01874,0.045545,-0.050727
229,0.000481,0.012055,-0.032611
230,-0.01874,0.012055,-0.032611
231,-0.037962,-0.054924,-0.032611
232,-0.01874,-0.071669,0.021737
233,-0.01874,-0.038179,0.057969
234,-0.01874,-0.038179,0.021737
235,0.000481,-0.021435,0.039853
236,-0.01874,0.012055,0.021737
237,0.000481,0.06229,-0.014495
238,0.000481,0.079034,0.003621
239,-0.01874,0.06229,-0.014495
240,0.019703,0.045545,-0.032611
241,-0.01874,-0.00469,0.003621
242,-0.01874,-0.021435,0.039853
243,0.000481,-0.054924,0.003621
244,-0.01874,-0.088414,0.057969
245,0.000481,-0.071669,-0.032611
246,-0.01874,-0.038179,-0.014495
247,0.000481,-0.00469,-0.050727
248,-0.01874,0.0288,-0.050727
249,0.000481,0.045545,-0.014495
250,-0.01874,0.012055,0.003621
251,-0.01874,-0.038179,-0.014495
252,0.000481,-0.071669,0.039853
253,0.000481,-0.088414,0.039853
254,-0.037962,-0.00469,-0.014495
255,0.000481,0.012055,-0.050727
256,-0.037962,0.045545,-0.014495
257,-0.01874,0.079034,-0.050727
258,0.000481,0.112524,-0.032611
259,-0.01874,0.129269,0.021737
260,0.038924,0.079034,0.003621
261,0.019703,0.045545,0.039853
262,0.000481,-0.038179,0.003621
263,0.000481,-0.00469,-0.014495
264,0.019703,-0.021435,-0.050727
265,0.000481,-0.021435,-0.050727
266,0.000481,-0.054924,-0.068843
267,-0.01874,-0.038179,-0.032611
268,0.019703,-0.038179,0.021737
269,0.000481,-0.00469,0.021737
270,0.019703,0.0288,0.039853
271,0.000481,0.0288,0.003621
272,0.000481,-0.00469,-0.014495
273,-0.01874,-0.038179,0.003621
274,-0.037962,-0.021435,0.003621
275,0.000481,-0.021435,-0.032611
276,-0.01874,-0.021435,0.021737
277,-0.057183,-0.071669,0.021737
278,-0.01874,-0.088414,0.039853
279,-0.037962,-0.105159,0.039853
280,0.000481,-0.071669,0.003621
281,0.000481,-0.088414,0.003621
282,0.000481,-0.105159,0.021737
283,-0.01874,-0.088414,-0.014495
284,-0.037962,-0.054924,0.021737
285,-0.01874,0.045545,-0.050727
286,0.000481,0.146014,0.003621
287,0.019703,0.162759,-0.014495
288,0.019703,0.196248,0.021737
289,0.000481,0.162759,-0.068843
290,0.000481,0.112524,-0.050727
291,0.000481,0.045545,-0.032611
292,-0.01874,-0.00469,-0.050727
293,0.019703,-0.021435,-0.050727
294,0.000481,-0.054924,-0.014495
295,0.000481,-0.071669,-0.014495
296,-0.01874,-0.138648,0.003621
297,-0.037962,-0.121903,0.003621
298,-0.037962,-0.172138,0.021737
299,0.000481,-0.155393,0.021737
300,-0.037962,-0.071669,0.003621
301,-0.057183,-0.054924,0.021737
302,-0.057183,-0.021435,0.021737
303,-0.037962,0.012055,0.039853
304,-0.01874,0.146014,0.021737
305,0.000481,0.263228,0.003621
306,0.038924,0.246483,0.021737
307,0.038924,0.179503,-0.014495
308,0.019703,0.095779,-0.014495
309,0.038924,0.045545,-0.032611
310,0.019703,0.012055,-0.050727
311,0.019703,-0.00469,0.021737
312,0.019703,-0.038179,0.021737
313,0.000481,-0.054924,0.003621
314,0.019703,-0.071669,0.039853
315,-0.01874,-0.105159,0.003621
316,-0.01874,-0.105159,-0.014495
317,-0.01874,-0.054924,0.003621
318,0.000481,-0.054924,0.003621
319,0.000481,-0.038179,-0.014495
320,-0.01874,0.0288,0.039853
321,0.000481,0.0288,0.021737
322,0.019703,0.146014,0.021737
323,0.019703,0.079034,0.039853
324,0.038924,0.012055,0.003621
325,0.019703,-0.105159,0.021737
326,0.038924,-0.138648,0.021737
327,0.019703,-0.222372,0.039853
328,0.038924,-0.255862,0.021737
329,0.038924,-0.155393,0.039853
330,0.019703,-0.138648,0.003621
331,0.019703,-0.021435,-0.014495
332,0.058146,0.162759,-0.014495
333,0.000481,0.229738,-0.032611
334,0.000481,0.263228,-0.050727
335,0.000481,0.263228,-0.014495
336,0.000481,0.179503,-0.014495
337,-0.01874,0.146014,-0.050727
338,-0.01874,0.129269,0.021737
339,-0.01874,0.06229,-0.014495
340,-0.057183,-0.054924,-0.014495
341,-0.037962,-0.088414,-0.014495
342,-0.037962,-0.105159,-0.014495
343,-0.076405,-0.054924,-0.068843
344,-0.037962,-0.054924,-0.068843
345,-0.057183,-0.088414,-0.068843
346,-0.01874,-0.021435,-0.032611
347,0.019703,0.012055,0.021737
348,0.019703,-0.071669,0.021737
349,0.019703,-0.121903,0.039853
350,-0.01874,-0.105159,0.094201
351,0.000481,-0.088414,0.003621
352,-0.01874,-0.00469,0.057969
353,0.000481,0.112524,-0.014495
354,0.000481,0.129269,-0.050727
355,-0.037962,0.112524,-0.032611
356,-0.037962,0.112524,-0.032611
357,0.038924,0.129269,-0.068843
358,0.019703,0.0288,-0.014495
359,0.000481,-0.021435,0.039853
360,-0.01874,-0.038179,0.003621
361,0.038924,-0.021435,0.057969
362,-0.01874,-0.105159,0.003621
363,0.000481,-0.155393,-0.050727
364,-0.037962,-0.239117,-0.050727
365,-0.01874,-0.255862,0.003621
366,-0.01874,-0.239117,-0.032611
367,-0.057183,-0.172138,0.003621
368,-0.01874,-0.155393,0.057969
369,-0.01874,-0.021435,-0.032611
370,-0.057183,0.079034,0.021737
371,-0.076405,0.112524,-0.014495
372,-0.01874,0.06229,0.003621
373,-0.01874,0.012055,0.003621
374,0.000481,0.06229,0.003621
375,-0.01874,0.079034,-0.032611
376,0.038924,0.162759,0.003621
377,0.058146,0.112524,0.021737
378,0.000481,0.045545,0.003621
379,0.038924,0.196248,0.039853
380,0.019703,0.129269,0.003621
381,0.038924,0.0288,0.003621
382,0.019703,-0.054924,0.003621
383,0.000481,-0.071669,-0.050727
384,0.000481,-0.038179,0.039853
385,0.038924,0.095779,0.039853
386,0.058146,0.0288,0.057969
387,0.038924,-0.172138,0.021737
388,0.000481,-0.289352,0.021737
389,-0.01874,-0.222372,-0.032611
390,0.019703,-0.071669,-0.086959
391,0.019703,0.06229,-0.032611
392,-0.01874,0.162759,-0.032611
393,-0.057183,0.095779,-0.050727
394,-0.057183,0.246483,-0.050727
395,-0.01874,0.397186,0.003621
396,0.000481,0.363697,0.003621
397,0.019703,0.229738,0.039853
398,0.019703,0.162759,-0.032611
399,0.019703,0.162759,-0.014495
400,0.019703,0.129269,-0.014495
401,0.058146,0.079034,-0.032611
402,0.058146,-0.038179,0.003621
403,0.038924,-0.071669,0.057969
404,0.019703,-0.054924,0.021737
405,0.000481,-0.071669,0.039853
406,0.000481,-0.038179,0.057969
407,-0.037962,-0.021435,-0.032611
408,-0.037962,-0.121903,-0.032611
409,-0.037962,-0.188883,0.003621
410,0.000481,-0.289352,-0.014495
411,0.000481,-0.289352,0.003621
412,0.000481,-0.172138,0.021737
413,-0.01874,-0.021435,0.039853
414,-0.057183,0.129269,0.039853
415,-0.01874,0.129269,0.003621
416,0.038924,0.129269,0.021737
417,0.038924,-0.00469,-0.032611
418,0.019703,-0.272607,-0.014495
419,0.019703,-0.356331,-0.014495
420,0.019703,-0.205628,-0.014495
421,0.000481,-0.071669,-0.014495
422,-0.01874,0.129269,0.003621
423,0.000481,0.346952,0.003621
424,0.019703,0.430676,-0.014495
425,0.058146,0.447421,-0.050727
426,0.000481,0.263228,-0.032611
427,-0.01874,0.112524,-0.014495
428,-0.057183,0.06229,-0.050727
429,-0.037962,0.0288,-0.032611
430,-0.037962,-0.00469,0.039853
431,0.019703,-0.021435,-0.032611
432,0.019703,-0.088414,-0.014495
433,-0.037962,-0.222372,0.003621
434,-0.037962,-0.289352,-0.032611
435,-0.057183,-0.322841,-0.050727
436,-0.037962,-0.406566,-0.050727
437,-0.037962,-0.389821,-0.014495
438,-0.095626,-0.306097,-0.014495
439,-0.076405,-0.172138,-0.014495
440,-0.01874,-0.121903,0.003621
441,-0.037962,-0.071669,0.021737
442,0.019703,-0.021435,0.039853
443,0.000481,-0.155393,0.003621
444,-0.037962,-0.071669,-0.032611
445,-0.057183,0.045545,-0.014495
446,-0.057183,0.229738,-0.086959
447,0.019703,0.447421,-0.032611
448,0.096589,0.48091,0.039853
449,0.096589,0.179503,0.039853
450,0.077367,-0.054924,0.057969
451,0.038924,-0.038179,-0.014495
452,0.000481,-0.088414,-0.050727
453,0.000481,-0.038179,0.003621
454,-0.037962,0.146014,-0.032611
455,-0.076405,0.296717,-0.068843
456,0.038924,0.380441,-0.014495
457,0.019703,0.06229,0.039853
458,0.000481,-0.339586,0.021737
459,0.019703,-0.356331,0.057969
460,0.000481,-0.289352,-0.014495
461,-0.037962,-0.239117,-0.068843
462,-0.076405,-0.021435,-0.068843
463,-0.057183,0.279972,-0.068843
464,-0.057183,0.48091,-0.032611
465,-0.01874,0.363697,0.039853
466,-0.076405,0.212993,0.039853
467,-0.057183,-0.205628,0.039853
468,-0.01874,-0.222372,0.021737
469,0.077367,-0.188883,0.003621
470,0.154253,0.012055,0.021737
471,0.211918,0.263228,0.057969
472,0.173475,0.229738,0.003621
473,0.019703,0.179503,-0.032611
474,-0.095626,0.196248,-0.032611
475,-0.172512,-0.121903,0.076085
476,-0.134069,-0.557269,0.039853
477,-0.037962,-0.590759,0.057969
478,0.019703,-0.42331,0.039853
479,0.019703,-0.071669,-0.032611
480,-0.01874,0.162759,-0.068843
481,0.000481,0.263228,-0.050727
482,0.096589,0.162759,-0.014495
483,0.154253,0.229738,0.039853
484,0.346468,0.229738,0.076085
485,0.346468,-0.021435,0.057969
486,0.192696,-0.138648,0.039853
487,0.058146,-0.289352,-0.014495
488,-0.191734,-0.205628,-0.032611
489,-0.537721,-0.205628,0.039853
490,-0.614607,-0.272607,0.021737
491,-0.287842,-0.49029,0.003621
492,-0.422392,-0.657738,-0.014495
493,-0.480057,-0.590759,-0.032611
494,-0.057183,-0.054924,0.076085
495,0.269582,0.212993,0.039853
496,0.154253,0.146014,-0.032611
497,0.211918,0.129269,-0.068843
498,0.308025,0.313462,-0.050727
499,0.250361,0.614869,-0.032611
500,0.192696,0.765572,-0.050727
501,0.077367,0.598124,-0.014495
502,0.11581,0.665103,-0.014495
503,0.211918,0.665103,0.003621
504,0.346468,0.263228,0.003621
505,0.327247,0.162759,-0.014495
506,-0.134069,-0.239117,-0.068843
507,-0.480057,-0.155393,-0.032611
508,0.038924,-0.188883,-0.032611
509,0.11581,-0.42331,0.003621
510,0.038924,-0.640993,0.003621
511,0.192696,-0.825186,-0.050727
512,0.154253,-0.624248,-0.032611
513,-0.153291,-0.389821,-0.032611
514,-0.383949,-0.121903,-0.086959
515,-0.210955,0.095779,0.003621
516,-0.057183,0.397186,-0.014495
517,0.000481,0.212993,0.003621
518,-0.326285,0.363697,0.057969
519,-0.057183,0.196248,0.076085
520,0.231139,0.079034,0.057969
521,0.000481,0.095779,0.021737
522,-0.153291,0.5144,0.003621
523,-0.230177,0.648359,-0.014495
524,-0.172512,0.598124,0.076085
525,0.192696,-0.054924,0.094201
526,0.519462,-0.289352,0.076085
527,0.596348,-0.574014,0.094201
528,0.634791,-0.674483,-0.032611
529,0.36569,-0.289352,-0.014495
530,-0.576164,0.045545,0.003621
531,-0.633829,-0.121903,-0.032611
532,-0.537721,0.146014,-0.032611
533,0.077367,0.363697,0.039853
534,0.36569,-0.188883,-0.014495
535,0.481019,-0.222372,0.003621
536,0.346468,-0.389821,-0.068843
537,-0.230177,-0.406566,-0.159423
538,-0.441614,-0.188883,-0.086959
539,-0.326285,0.263228,0.039853
540,-0.191734,0.698593,0.076085
541,-0.441614,0.899531,0.039853
542,-0.345506,0.531145,0.039853
543,-0.326285,-0.624248,-0.014495
544,0.038924,-0.90891,-0.032611
545,-0.153291,-0.741462,-0.014495
546,-0.595386,-1.042869,-0.086959
547,-0.191734,-0.640993,-0.068843
548,0.231139,0.0288,-0.014495
549,1.115329,0.095779,0.021737
550,1.115329,0.012055,0.076085
551,0.711677,0.045545,-0.032611
552,-0.076405,0.531145,-0.086959
553,-0.057183,1.435366,-0.105075
554,0.173475,1.351641,0.021737
555,0.596348,1.267917,0.130433
556,-0.134069,0.765572,0.130433
557,-0.576164,0.346952,0.112317
558,-0.422392,0.296717,-0.014495
559,-0.230177,0.079034,0.021737
560,-0.26862,-0.038179,-0.032611
561,-0.499278,-0.557269,-0.014495
562,-0.480057,-0.406566,-0.014495
563,0.135032,-0.155393,0.003621
564,0.673234,0.112524,-0.014495
565,0.192696,-0.038179,-0.068843
566,-0.480057,-0.272607,-0.086959
567,-0.480057,-0.607504,-0.068843
568,-0.076405,-1.026124,0.021737
569,-0.287842,-1.193573,-0.050727
570,-0.114848,-0.992635,-0.050727
571,-0.037962,-0.322841,0.021737
572,-0.307063,0.06229,0.021737
573,0.038924,0.112524,-0.050727
574,0.288804,0.5144,0.076085
575,0.673234,0.531145,0.057969
576,0.404133,0.413931,-0.014495
577,0.404133,0.413931,0.003621
578,0.481019,0.196248,-0.014495
579,0.692456,0.263228,-0.068843
580,0.250361,0.531145,-0.105075
581,0.346468,0.815807,-0.068843
582,-0.576164,1.267917,-0.014495
583,-0.826044,0.933021,0.021737
584,-0.345506,0.346952,0.039853
585,-0.153291,0.012055,-0.032611
586,-0.403171,-0.389821,0.003621
587,0.11581,-0.624248,0.021737
588,0.308025,-0.875421,-0.014495
589,0.173475,-0.607504,-0.014495
590,-0.556943,-0.42331,-0.123191
591,-0.095626,0.246483,-0.050727
592,-0.076405,0.346952,0.039853
593,-0.595386,0.146014,0.021737
594,-0.249399,-0.038179,0.021737
595,-0.172512,-0.121903,0.003621
596,-0.076405,0.229738,0.021737
597,0.135032,0.045545,-0.014495
598,0.346468,-0.624248,0.057969
599,0.250361,-0.959145,0.039853
600,0.173475,-0.791697,0.021737
601,0.36569,-0.691228,-0.050727
602,0.211918,-0.188883,0.003621
603,-0.499278,0.296717,0.021737
604,-0.460835,-0.038179,-0.032611
605,-0.26862,-0.389821,-0.032611
606,-0.230177,-0.406566,-0.032611
607,0.173475,-0.49029,0.039853
608,-0.134069,-0.021435,-0.032611
609,-0.364728,0.095779,-0.032611
610,-0.249399,0.279972,0.003621
611,0.308025,0.598124,-0.014495
612,0.596348,1.351641,0.057969
613,0.077367,1.03349,0.057969
614,-0.499278,0.564634,-0.014495
615,-0.172512,0.54789,-0.014495
616,-0.153291,-0.121903,-0.105075
617,0.019703,0.095779,-0.032611
618,0.11581,0.229738,0.039853
619,0.019703,-0.172138,0.021737
620,0.096589,-0.239117,-0.050727
621,-0.01874,-0.808441,-0.032611
622,-0.153291,-0.9424,-0.014495
623,-0.076405,-0.640993,-0.032611
624,0.173475,0.313462,-0.032611
625,0.231139,1.301407,0.003621
626,-0.249399,1.050234,0.003621
627,-0.134069,0.531145,0.057969
628,-0.076405,0.263228,0.076085
629,-0.037962,0.212993,0.003621
630,-0.01874,0.012055,0.039853
631,-0.037962,-0.138648,-0.032611
632,-0.01874,-0.205628,-0.032611
633,-0.01874,-0.255862,-0.050727
634,-0.01874,-0.105159,-0.050727
635,0.000481,-0.00469,-0.068843
636,0.000481,0.012055,-0.014495
637,0.000481,-0.038179,0.039853
638,-0.037962,-0.121903,0.039853
639,-0.01874,-0.239117,0.003621
640,-0.037962,-0.557269,-0.050727
641,-0.076405,-0.808441,-0.032611
642,-0.095626,-0.724717,-0.050727
643,-0.095626,-0.406566,-0.105075
644,-0.076405,-0.105159,-0.105075
645,0.058146,0.648359,0.003621
646,0.077367,0.782317,0.076085
647,0.019703,0.430676,0.039853
648,0.000481,0.095779,0.039853
649,0.000481,-0.00469,-0.014495
650,-0.01874,-0.00469,-0.014495
651,-0.01874,-0.038179,-0.050727
652,-0.01874,-0.038179,-0.032611
653,-0.01874,-0.038179,-0.014495
654,-0.01874,-0.038179,-0.014495
655,0.000481,-0.038179,0.003621
656,-0.01874,-0.071669,0.021737
657,0.000481,-0.088414,0.021737
658,-0.037962,-0.088414,-0.014495
659,0.000481,-0.088414,-0.068843
660,-0.01874,-0.138648,-0.032611
661,-0.01874,-0.138648,-0.032611
662,-0.01874,-0.105159,-0.032611
663,-0.057183,-0.054924,0.003621
664,0.000481,-0.021435,0.057969
665,0.019703,0.045545,0.021737
666,0.000481,-0.021435,0.039853
667,0.000481,-0.038179,0.021737
668,0.000481,-0.138648,-0.032611
669,-0.037962,-0.188883,0.003621
670,-0.057183,-0.255862,-0.014495
671,-0.037962,-0.389821,0.039853
672,-0.057183,-0.540524,0.021737
673,-0.134069,-1.143338,0.003621
674,-0.114848,-1.411255,0.003621
675,-0.095626,-1.059614,0.039853
676,-0.114848,-0.607504,-0.032611
677,0.038924,0.54789,-0.032611
678,0.211918,1.904221,0.039853
679,0.250361,1.870731,0.039853
680,0.135032,1.167448,0.021737
681,0.135032,0.614869,0.003621
682,0.154253,0.430676,0.003621
683,-0.01874,0.212993,0.021737
684,0.077367,0.06229,0.003621
685,-0.01874,-0.071669,-0.014495
686,0.019703,-0.021435,-0.014495
687,0.135032,0.129269,0.003621
688,0.288804,0.179503,-0.014495
689,0.173475,-0.00469,-0.014495
690,-0.345506,-0.054924,0.021737
691,-0.134069,-0.00469,0.003621
692,-0.095626,-0.054924,0.003621
693,-0.057183,-0.155393,0.021737
694,-0.037962,-0.624248,-0.014495
695,-0.057183,-0.741462,-0.014495
696,-0.076405,-0.523779,-0.086959
697,-0.076405,-0.255862,-0.105075
698,-0.057183,-0.088414,-0.050727
699,0.019703,0.212993,0.039853
700,0.058146,0.196248,0.039853
701,0.000481,0.045545,-0.032611
702,-0.01874,0.179503,-0.032611
703,0.019703,0.146014,-0.068843
704,0.038924,0.045545,0.003621
705,0.019703,-0.172138,-0.050727
706,0.000481,-0.105159,-0.032611
707,0.019703,0.179503,0.003621
708,-0.01874,0.246483,0.021737
709,0.038924,0.296717,0.039853
710,0.058146,0.263228,0.094201
711,0.038924,0.079034,0.057969
712,-0.037962,0.045545,0.003621
713,0.058146,0.012055,0.021737
714,0.038924,-0.038179,0.003621
715,0.019703,-0.00469,0.039853
716,-0.01874,-0.021435,0.112317
717,0.000481,-0.021435,0.130433
718,0.000481,-0.038179,0.094201
719,0.019703,-0.038179,0.112317
720,0.000481,-0.038179,0.021737
721,-0.01874,-0.054924,0.021737
722,-0.01874,-0.038179,0.003621
723,-0.01874,-0.071669,-0.032611
724,-0.037962,-0.105159,-0.141307
725,-0.01874,-0.205628,-0.213771
726,-0.01874,-0.239117,-0.159423
727,-0.01874,-0.239117,-0.123191
728,-0.01874,-0.322841,-0.050727
729,0.019703,-0.272607,-0.014495
730,0.038924,-0.138648,0.021737
731,0.019703,-0.071669,0.021737
732,0.019703,-0.038179,0.003621
733,0.000481,-0.121903,0.003621
734,0.019703,0.045545,0.021737
735,0.019703,0.246483,-0.032611
736,0.000481,0.06229,-0.014495
737,0.000481,0.129269,0.021737
738,0.038924,0.279972,0.021737
739,0.038924,0.229738,-0.032611
740,0.019703,0.146014,0.021737
741,0.019703,0.079034,0.039853
742,0.000481,0.045545,0.076085
743,0.019703,0.079034,0.076085
744,0.000481,0.045545,0.057969
745,0.000481,0.012055,0.094201
746,0.000481,-0.00469,0.130433
747,0.000481,-0.038179,0.057969
748,0.000481,-0.088414,-0.014495
749,0.000481,-0.071669,-0.014495
750,-0.01874,-0.071669,-0.123191
751,0.000481,-0.105159,-0.177539
752,0.000481,-0.071669,-0.141307
753,-0.01874,-0.088414,-0.141307
754,-0.01874,-0.155393,-0.068843
755,0.019703,-0.088414,-0.014495
756,0.000481,-0.071669,-0.050727
757,0.000481,0.012055,-0.014495
758,0.000481,0.162759,0.003621
759,-0.01874,0.112524,-0.032611
760,-0.057183,0.012055,-0.014495
761,0.019703,0.045545,0.021737
762,0.000481,0.045545,0.021737
763,0.000481,0.045545,0.039853
764,0.000481,0.0288,0.112317
765,0.000481,0.012055,0.039853
766,0.000481,0.012055,0.076085
767,-0.01874,0.045545,0.039853
768,-0.037962,0.012055,0.039853
769,-0.01874,-0.021435,0.057969
770,-0.01874,-0.021435,0.039853
771,-0.037962,-0.038179,0.021737
772,-0.057183,-0.121903,0.039853
773,-0.076405,-0.255862,0.021737
774,-0.037962,-0.49029,-0.105075
775,-0.076405,-0.523779,-0.086959
776,-0.057183,-0.339586,-0.105075
777,0.058146,0.112524,-0.068843
778,0.077367,0.5144,-0.014495
779,0.058146,0.447421,-0.032611
780,0.038924,0.212993,0.021737
781,0.038924,-0.021435,0.003621
782,0.019703,-0.038179,0.021737
783,0.000481,0.012055,-0.014495
784,0.019703,0.0288,-0.014495
785,-0.01874,0.146014,-0.032611
786,0.019703,0.112524,-0.014495
787,0.000481,-0.088414,-0.032611
788,0.019703,-0.071669,-0.032611
789,0.000481,0.012055,0.003621
790,0.000481,0.045545,0.039853
791,0.019703,0.146014,0.021737
792,0.019703,0.296717,0.021737
793,0.019703,0.212993,0.021737
794,0.019703,0.112524,-0.014495
795,0.000481,0.079034,-0.014495
796,0.019703,0.0288,0.021737
797,-0.01874,0.0288,0.003621
798,0.000481,-0.021435,-0.014495
799,-0.037962,-0.105159,0.021737
800,0.000481,-0.121903,-0.032611
801,0.000481,-0.222372,-0.014495
802,-0.01874,-0.188883,-0.050727
803,-0.01874,-0.205628,-0.068843
804,-0.01874,-0.021435,-0.086959
805,0.000481,0.045545,-0.014495
806,0.019703,0.212993,-0.014495
807,0.000481,0.179503,0.003621
808,0.000481,0.06229,0.021737
809,0.019703,0.0288,0.021737
810,0.019703,0.06229,0.021737
811,0.038924,0.0288,-0.032611
812,0.019703,0.012055,-0.032611
813,0.019703,0.012055,-0.032611
814,0.000481,-0.00469,0.039853
815,0.019703,0.045545,0.021737
816,0.000481,-0.00469,0.057969
817,0.000481,0.0288,0.166665
818,0.000481,0.0288,0.112317
819,0.019703,-0.00469,0.112317
820,0.019703,0.0288,0.112317
821,0.000481,-0.021435,0.057969
822,-0.057183,-0.021435,0.003621
823,-0.01874,-0.071669,-0.086959
824,-0.037962,-0.054924,-0.086959
825,0.000481,-0.054924,-0.123191
826,-0.01874,-0.054924,-0.086959
827,0.000481,-0.071669,-0.159423
828,-0.01874,-0.038179,-0.050727
829,0.000481,-0.021435,0.076085
830,0.038924,0.012055,0.039853
831,-0.01874,0.012055,0.057969
832,0.000481,0.06229,0.021737
833,0.019703,0.06229,0.094201
834,0.019703,0.095779,0.166665
835,0.000481,0.079034,0.166665
836,0.000481,0.06229,0.148549
837,0.000481,0.079034,0.275361
838,0.000481,0.079034,0.184781
839,-0.01874,0.012055,0.112317
840,-0.037962,-0.00469,0.076085
841,-0.037962,-0.088414,-0.086959
842,-0.057183,-0.121903,-0.159423
843,-0.01874,-0.138648,-0.159423
844,0.000481,-0.088414,-0.123191
845,0.000481,-0.054924,-0.105075
846,-0.01874,-0.038179,-0.032611
847,0.000481,-0.021435,-0.105075
848,0.000481,-0.038179,-0.068843
849,0.038924,-0.038179,-0.032611
850,0.019703,-0.038179,-0.032611
851,0.000481,-0.038179,-0.050727
852,0.019703,-0.00469,0.003621
853,0.019703,0.0288,0.021737
854,0.000481,0.0288,0.003621
855,0.000481,0.0288,-0.032611
856,0.019703,0.012055,-0.068843
857,0.019703,0.012055,-0.086959
858,0.000481,-0.00469,-0.032611
859,-0.01874,-0.00469,-0.032611
860,-0.01874,-0.00469,-0.014495
861,0.019703,0.0288,0.003621
862,0.019703,0.012055,0.039853
863,0.000481,-0.071669,0.021737
864,0.000481,-0.105159,0.057969
865,0.000481,-0.205628,0.003621
866,-0.037962,-0.255862,-0.032611
867,0.000481,-0.121903,-0.032611
868,0.000481,0.129269,-0.032611
869,0.000481,0.279972,0.057969
870,0.038924,0.279972,0.021737
871,0.038924,0.229738,0.094201
872,0.019703,0.146014,0.039853
873,0.038924,0.095779,0.039853
874,0.000481,0.045545,0.021737
875,0.000481,0.012055,-0.014495
876,-0.01874,0.0288,0.021737
877,-0.01874,0.012055,-0.032611
878,0.019703,0.045545,0.021737
879,0.019703,0.0288,0.076085
880,-0.01874,-0.00469,0.039853
881,0.000481,0.012055,0.076085
882,-0.01874,-0.00469,0.039853
883,0.000481,0.012055,-0.032611
884,-0.037962,-0.00469,-0.068843
885,-0.01874,-0.038179,-0.050727
886,-0.037962,-0.038179,-0.068843
887,-0.037962,-0.00469,-0.014495
888,0.000481,-0.00469,0.021737
889,0.000481,0.012055,0.112317
890,0.019703,0.0288,0.184781
891,0.000481,0.0288,0.148549
892,0.019703,-0.00469,0.148549
893,0.019703,0.0288,0.112317
894,-0.01874,-0.00469,0.057969
895,0.000481,-0.00469,0.021737
896,-0.01874,0.012055,-0.050727
897,0.000481,-0.054924,-0.195655
898,0.000481,-0.054924,-0.286235
899,0.019703,-0.088414,-0.231887
900,0.000481,-0.088414,-0.177539
901,-0.01874,-0.105159,-0.105075
902,-0.01874,-0.088414,-0.068843
903,0.000481,-0.021435,0.003621
904,-0.037962,0.0288,-0.032611
905,0.019703,0.06229,0.021737
906,0.019703,0.079034,0.057969
907,0.038924,0.0288,0.039853
908,0.038924,0.0288,0.039853
909,0.038924,0.012055,0.003621
910,0.038924,-0.00469,-0.032611
911,0.019703,-0.021435,-0.068843
912,-0.01874,-0.038179,-0.068843
913,-0.01874,-0.038179,-0.068843
914,0.000481,-0.00469,0.003621
915,0.019703,0.0288,0.057969
916,0.000481,-0.00469,0.057969
917,0.019703,0.012055,0.076085
918,0.019703,-0.021435,0.057969
919,0.019703,-0.00469,0.039853
920,0.000481,-0.00469,0.057969
921,0.019703,-0.00469,0.057969
922,0.000481,0.012055,0.021737
923,-0.01874,0.012055,0.057969
924,0.000481,-0.00469,0.112317
925,0.019703,-0.00469,0.039853
926,0.000481,-0.00469,0.057969
927,0.000481,0.012055,0.076085
928,0.000481,0.0288,0.021737
929,0.000481,0.045545,0.021737
930,0.019703,0.0288,-0.068843
931,0.000481,0.045545,-0.050727
932,0.019703,0.012055,-0.050727
933,0.019703,-0.00469,-0.086959
934,0.019703,-0.00469,-0.032611
935,0.000481,-0.00469,0.003621
936,-0.01874,-0.00469,-0.032611
937,0.000481,0.012055,-0.014495
938,0.019703,-0.00469,0.021737
939,0.019703,-0.00469,-0.032611
940,0.038924,-0.00469,0.003621
941,0.019703,-0.038179,0.003621
942,0.000481,-0.038179,-0.032611
943,-0.037962,-0.038179,-0.050727
944,0.000481,-0.00469,-0.014495
945,-0.01874,0.012055,-0.032611
946,0.000481,0.012055,-0.014495
947,-0.037962,0.0288,-0.014495
948,-0.01874,-0.00469,-0.032611
949,0.000481,0.012055,0.021737
950,-0.01874,-0.021435,0.057969
951,0.000481,0.012055,0.003621
952,0.019703,-0.00469,0.039853
953,0.000481,-0.00469,0.039853
954,-0.01874,-0.088414,-0.014495
955,0.019703,-0.138648,-0.014495
956,0.000481,-0.105159,-0.050727
957,-0.01874,-0.188883,-0.014495
958,0.000481,-0.222372,0.021737
959,-0.01874,-0.188883,0.021737
960,0.000481,-0.088414,-0.014495
961,0.019703,0.0288,0.021737
962,0.019703,0.0288,0.039853
963,0.038924,0.179503,0.021737
964,0.058146,0.346952,0.003621
965,0.038924,0.330207,0.003621
966,0.038924,0.179503,-0.050727
967,0.000481,0.146014,0.003621
968,0.019703,0.129269,0.039853
969,0.038924,0.095779,0.021737
970,0.038924,0.045545,-0.014495
971,0.019703,-0.00469,-0.014495
972,0.019703,0.0288,0.003621
973,0.000481,0.045545,0.039853
974,0.019703,0.0288,0.039853
975,0.019703,0.012055,0.003621
976,0.019703,0.012055,0.057969
977,0.019703,-0.021435,-0.032611
978,-0.01874,-0.038179,0.057969
979,-0.01874,-0.00469,0.076085
980,0.019703,-0.00469,0.039853
981,0.019703,-0.038179,0.021737
982,-0.01874,-0.021435,-0.014495
983,-0.01874,-0.038179,-0.068843
984,0.000481,-0.071669,-0.105075
985,-0.01874,-0.105159,-0.086959
986,-0.037962,-0.121903,-0.086959
987,0.000481,-0.121903,-0.014495
988,-0.01874,-0.054924,0.057969
989,0.019703,-0.038179,0.021737
990,-0.01874,0.012055,0.003621
991,-0.01874,0.0288,0.003621
992,0.019703,0.06229,-0.050727
993,0.038924,0.129269,-0.050727
994,0.000481,0.112524,0.003621
995,0.019703,0.06229,-0.032611
996,0.019703,0.0288,0.021737
997,-0.01874,-0.021435,0.039853
998,-0.037962,-0.021435,-0.014495
999,0.000481,-0.00469,0.039853
1000,-0.01874,0.012055,0.003621
1001,0.000481,-0.00469,0.003621
1002,0.000481,-0.00469,-0.014495
1003,-0.01874,0.012055,0.003621
1004,0.000481,-0.00469,0.021737
1005,-0.037962,-0.00469,0.057969
1006,0.000481,0.012055,0.057969
1007,-0.01874,-0.021435,0.039853
1008,0.000481,-0.00469,0.057969
1009,0.019703,0.012055,0.039853
1010,0.019703,0.012055,-0.014495
1011,0.000481,-0.00469,-0.014495
1012,-0.01874,-0.00469,-0.014495
1013,-0.01874,-0.00469,-0.086959
1014,0.000481,-0.021435,-0.014495
1015,-0.01874,-0.00469,-0.014495
1016,0.000481,-0.00469,-0.032611
1017,-0.01874,-0.00469,-0.014495
1018,-0.01874,-0.021435,0.003621
1019,-0.01874,-0.021435,-0.032611
1020,-0.037962,-0.00469,-0.014495
1021,0.000481,0.012055,0.003621
1022,-0.01874,0.012055,0.021737
1023,0.019703,0.012055,0.039853
1024,0.000481,-0.00469,0.039853
1025,0.000481,0.012055,0.057969
1026,0.000481,0.0288,0.076085
1027,0.019703,0.012055,0.057969
1028,0.019703,0.012055,0.057969
1029,0.038924,0.012055,0.039853
1030,0.038924,0.045545,0.021737
1031,0.019703,0.0288,0.039853
1032,0.019703,-0.00469,0.039853
1033,0.019703,-0.021435,0.057969
1034,0.000481,-0.00469,-0.014495
1035,0.038924,-0.00469,-0.014495
1036,-0.037962,-0.054924,-0.068843
1037,-0.037962,-0.021435,-0.105075
1038,-0.037962,-0.054924,-0.086959
1039,-0.076405,-0.038179,-0.086959
1040,-0.076405,-0.021435,-0.086959
1041,0.000481,-0.00469,-0.014495
1042,0.019703,0.012055,0.003621
1043,0.000481,-0.021435,-0.032611
1044,0.000481,-0.038179,0.039853
1045,0.019703,-0.071669,-0.014495
1046,-0.01874,-0.121903,-0.032611
1047,-0.037962,-0.138648,-0.032611
1048,-0.037962,-0.121903,-0.032611
1049,-0.037962,-0.054924,-0.050727
1050,0.019703,0.0288,-0.014495
1051,0.058146,0.06229,-0.014495
1052,0.058146,0.095779,0.003621
1053,0.038924,0.112524,0.021737
1054,0.038924,0.162759,0.021737
1055,0.019703,0.045545,0.039853
1056,0.019703,-0.054924,0.021737
1057,0.000481,-0.071669,0.057969
1058,0.000481,-0.038179,0.021737
1059,-0.01874,-0.038179,0.057969
1060,-0.01874,0.0288,0.039853
1061,-0.01874,0.129269,0.021737
1062,0.000481,0.179503,0.003621
1063,0.019703,0.196248,-0.032611
1064,0.000481,0.045545,-0.014495
1065,-0.01874,-0.088414,-0.014495
1066,0.000481,-0.105159,-0.014495
1067,0.000481,-0.054924,0.003621
1068,0.000481,-0.038179,0.021737
1069,-0.01874,-0.021435,0.003621
1070,0.000481,-0.00469,0.003621
1071,0.038924,-0.038179,0.021737
1072,0.000481,-0.155393,0.003621
1073,-0.037962,-0.205628,-0.032611
1074,-0.037962,-0.121903,0.021737
1075,-0.01874,-0.021435,0.021737
1076,0.000481,0.079034,-0.014495
1077,-0.037962,0.112524,0.021737
1078,-0.037962,0.095779,0.039853
1079,-0.01874,0.146014,0.003621
1080,0.000481,0.196248,0.021737
1081,0.038924,0.229738,0.057969
1082,0.038924,0.06229,-0.014495
1083,0.019703,0.012055,0.021737
1084,-0.01874,-0.00469,0.003621
1085,0.000481,0.0288,-0.014495
1086,0.019703,0.0288,0.003621
1087,0.000481,0.012055,-0.014495
1088,0.000481,0.012055,-0.032611
1089,-0.01874,-0.00469,0.003621
1090,0.000481,0.012055,0.021737
1091,-0.01874,0.045545,-0.032611
1092,-0.01874,0.045545,0.003621
1093,0.000481,0.06229,-0.014495
1094,0.000481,-0.00469,-0.032611
1095,0.000481,-0.00469,-0.014495
1096,-0.01874,-0.021435,-0.050727
1097,0.019703,-0.021435,-0.050727
1098,0.000481,-0.021435,-0.014495
1099,-0.01874,-0.021435,0.021737
1100,0.000481,-0.00469,0.003621
1101,0.000481,-0.021435,0.039853
1102,0.000481,-0.00469,0.003621
1103,0.000481,0.012055,0.003621
1104,-0.01874,-0.021435,0.003621
1105,-0.01874,-0.00469,-0.050727
1106,-0.01874,-0.054924,0.003621
1107,-0.037962,0.012055,0.003621
1108,-0.037962,-0.021435,0.021737
1109,-0.01874,-0.021435,-0.014495
1110,-0.01874,0.012055,0.057969
1111,-0.01874,-0.00469,0.003621
1112,0.000481,-0.00469,0.003621
1113,0.000481,0.012055,0.039853
1114,-0.01874,0.012055,0.057969
1115,0.000481,0.0288,0.094201
1116,0.000481,0.079034,0.076085
1117,0.019703,0.0288,0.094201
1118,0.000481,-0.00469,0.039853
1119,0.000481,0.045545,0.021737
1120,0.000481,-0.021435,-0.068843
1121,-0.037962,-0.071669,-0.159423
1122,-0.037962,-0.071669,-0.141307
1123,-0.057183,-0.038179,-0.123191
1124,-0.037962,-0.021435,-0.032611
1125,-0.01874,-0.021435,0.003621
1126,0.000481,-0.00469,0.003621
1127,-0.01874,-0.021435,-0.014495
1128,-0.01874,-0.00469,0.039853
1129,-0.01874,-0.00469,0.039853
1130,0.000481,-0.00469,-0.014495
1131,0.000481,-0.021435,0.003621
1132,-0.01874,-0.038179,-0.014495
1133,-0.01874,-0.071669,0.021737
1134,0.000481,-0.021435,0.021737
1135,0.000481,-0.00469,0.039853
1136,0.019703,0.0288,0.003621
1137,0.000481,0.045545,0.021737
1138,0.000481,0.0288,-0.032611
1139,0.000481,0.045545,-0.014495
1140,0.000481,-0.00469,0.021737
1141,0.000481,-0.054924,-0.014495
1142,0.000481,-0.071669,-0.014495
1143,0.000481,-0.054924,0.003621
1144,-0.01874,-0.00469,0.039853
1145,-0.01874,-0.00469,0.039853
1146,0.019703,0.06229,0.039853
1147,0.000481,0.079034,0.003621
1148,0.000481,0.112524,-0.050727
1149,0.019703,0.112524,0.003621
1150,0.019703,0.045545,-0.014495
1151,0.000481,0.012055,-0.032611
1152,-0.01874,-0.00469,0.003621
1153,0.019703,-0.054924,-0.032611
1154,-0.037962,-0.021435,-0.014495
1155,-0.01874,0.012055,0.039853
1156,0.019703,0.06229,-0.014495
1157,0.000481,0.045545,-0.050727
1158,-0.01874,0.012055,-0.014495
1159,0.000481,0.012055,-0.032611
1160,0.000481,-0.021435,-0.050727
1161,0.000481,-0.021435,0.021737
1162,0.000481,-0.021435,-0.032611
1163,0.000481,-0.038179,0.003621
1164,0.000481,-0.038179,0.057969
1165,0.019703,-0.071669,0.003621
1166,0.038924,-0.038179,-0.014495
1167,0.000481,-0.021435,0.021737
1168,0.000481,-0.00469,-0.014495
1169,0.000481,0.012055,-0.014495
1170,0.019703,0.06229,0.057969
1171,0.019703,0.146014,0.039853
1172,0.038924,0.06229,0.057969
1173,0.038924,0.06229,0.057969
1174,-0.01874,0.0288,0.003621
1175,-0.01874,-0.00469,0.039853
1176,-0.01874,-0.00469,0.003621
1177,0.019703,0.012055,-0.014495
1178,0.000481,-0.00469,-0.032611
1179,0.000481,-0.00469,-0.014495
1180,0.000481,0.012055,-0.050727
1181,-0.01874,0.012055,-0.068843
1182,0.000481,-0.00469,-0.032611
1183,0.000481,-0.038179,-0.032611
1184,0.019703,-0.00469,-0.014495
1185,-0.01874,-0.00469,0.003621
1186,0.000481,-0.038179,-0.032611
1187,-0.01874,-0.054924,-0.014495
1188,0.000481,-0.105159,0.021737
1189,0.000481,-0.071669,0.003621
1190,0.000481,-0.054924,0.021737
1191,0.000481,-0.021435,0.039853
1192,-0.01874,0.0288,0.003621
1193,0.000481,0.079034,0.076085
1194,0.019703,0.129269,0.021737
1195,0.019703,0.146014,0.021737
1196,0.000481,0.06229,0.003621
1197,0.000481,0.0288,-0.014495
1198,-0.037962,0.012055,-0.050727
1199,-0.01874,0.012055,-0.014495
1200,-0.01874,0.012055,0.039853
1201,-0.01874,0.0288,0.003621
1202,-0.037962,-0.00469,0.003621
1203,-0.01874,0.012055,-0.032611
1204,0.000481,-0.021435,-0.050727
1205,0.000481,-0.054924,-0.032611
1206,0.000481,-0.054924,-0.032611
1207,0.019703,-0.054924,-0.014495
1208,0.000481,-0.021435,0.003621
1209,-0.01874,-0.021435,0.057969
1210,0.019703,0.0288,0.003621
1211,0.019703,0.06229,0.094201
1212,0.019703,0.0288,0.039853
1213,0.019703,-0.021435,0.039853
1214,0.000481,-0.021435,0.021737
1215,0.000481,-0.054924,0.021737
1216,0.000481,-0.021435,-0.014495
1217,0.000481,-0.00469,0.003621
1218,0.000481,0.012055,0.003621
1219,-0.01874,0.045545,-0.014495
1220,0.000481,0.045545,-0.014495
1221,0.000481,0.06229,0.003621
1222,-0.01874,0.012055,0.003621
1223,0.019703,0.012055,0.003621
1224,0.019703,0.012055,-0.014495
1225,0.000481,0.012055,-0.032611
1226,0.019703,0.0288,-0.032611
1227,0.000481,-0.00469,0.003621
1228,0.000481,-0.00469,-0.032611
1229,0.000481,-0.00469,-0.014495
1230,0.000481,-0.038179,-0.050727
1231,0.000481,-0.021435,-0.050727
1232,0.000481,-0.038179,-0.050727
1233,-0.01874,-0.021435,-0.050727
1234,0.000481,-0.00469,-0.014495
1235,0.019703,0.0288,0.039853
1236,0.019703,0.045545,0.057969
1237,0.019703,-0.021435,0.076085
1238,0.019703,-0.00469,0.057969
1239,0.000481,0.012055,0.057969
1240,0.000481,0.012055,0.021737
1241,0.000481,-0.021435,0.003621
1242,0.019703,-0.054924,0.003621
1243,0.019703,-0.021435,-0.014495
1244,-0.01874,-0.071669,-0.014495
1245,-0.01874,-0.038179,0.003621
1246,0.000481,-0.054924,0.003621
1247,-0.01874,-0.021435,0.057969
1248,-0.01874,-0.021435,0.003621
1249,0.000481,-0.021435,-0.068843
1250,0.000481,0.012055,0.003621
1251,0.000481,-0.00469,-0.032611
1252,-0.01874,0.0288,-0.032611
1253,0.019703,0.06229,-0.014495
1254,-0.01874,0.045545,-0.050727
1255,-0.01874,-0.00469,0.003621
1256,-0.01874,0.012055,0.003621
1257,0.000481,-0.00469,-0.032611
1258,0.000481,-0.071669,-0.032611
1259,-0.01874,-0.138648,0.003621
1260,-0.01874,-0.155393,-0.032611
1261,-0.01874,-0.038179,0.003621
1262,0.000481,-0.00469,0.021737
1263,0.000481,0.06229,0.021737
1264,0.019703,0.095779,0.039853
1265,0.000481,0.146014,0.039853
1266,0.000481,0.112524,0.003621
1267,0.000481,0.112524,0.021737
1268,0.019703,0.06229,0.021737
1269,0.038924,0.045545,-0.068843
1270,0.038924,0.045545,-0.014495
1271,-0.01874,0.045545,-0.032611
1272,0.038924,0.045545,-0.032611
1273,0.019703,-0.00469,-0.032611
1274,0.000481,-0.00469,-0.014495
1275,-0.01874,0.0288,-0.032611
1276,-0.037962,0.079034,-0.032611
1277,0.000481,0.06229,0.039853
1278,0.000481,0.012055,0.003621
1279,0.000481,0.012055,0.021737
1280,0.000481,-0.00469,0.076085
1281,0.000481,-0.021435,0.057969
1282,-0.01874,-0.00469,0.021737
1283,-0.037962,-0.00469,0.021737
1284,-0.037962,-0.021435,-0.032611
1285,-0.037962,-0.038179,0.039853
1286,-0.01874,0.012055,0.003621
1287,0.019703,-0.021435,-0.014495
1288,0.000481,-0.00469,0.021737
1289,-0.01874,-0.00469,0.003621
1290,-0.01874,-0.021435,-0.014495
1291,-0.01874,-0.00469,0.003621
1292,-0.01874,-0.021435,-0.014495
1293,-0.057183,-0.021435,-0.014495
1294,-0.01874,-0.021435,0.039853
1295,0.019703,-0.00469,-0.014495
1296,-0.01874,-0.00469,-0.050727
1297,-0.01874,-0.00469,-0.032611
1298,0.000481,-0.021435,-0.014495
1299,-0.01874,-0.021435,-0.032611
1300,-0.01874,-0.00469,0.021737
1301,0.000481,-0.021435,0.003621
1302,-0.01874,-0.038179,-0.050727
1303,0.000481,-0.021435,0.003621
1304,-0.01874,0.012055,-0.014495
1305,0.000481,-0.021435,-0.014495
1306,-0.01874,0.0288,-0.014495
1307,-0.01874,0.012055,-0.032611
1308,0.000481,-0.021435,-0.014495
1309,-0.01874,-0.00469,0.021737
1310,0.019703,-0.021435,-0.032611
1311,0.000481,-0.00469,-0.032611
1312,-0.01874,-0.00469,0.021737
1313,-0.037962,0.012055,-0.014495
1314,0.019703,0.045545,-0.014495
1315,0.019703,-0.021435,0.021737
1316,0.019703,0.012055,0.021737
1317,-0.01874,-0.038179,0.057969
1318,-0.037962,0.012055,0.076085
1319,0.000481,-0.00469,0.021737
1320,0.000481,-0.021435,-0.014495
1321,-0.01874,-0.021435,0.021737
1322,0.019703,-0.021435,0.021737
1323,0.019703,-0.00469,0.003621
1324,0.000481,-0.00469,0.003621
1325,-0.037962,-0.00469,-0.050727
1326,0.000481,0.045545,0.003621
1327,-0.01874,0.045545,0.003621
1328,0.000481,0.045545,-0.014495
1329,-0.01874,-0.00469,0.021737
1330,-0.01874,-0.00469,-0.014495
1331,-0.01874,-0.021435,-0.032611
1332,-0.01874,-0.038179,-0.014495
1333,0.000481,-0.00469,0.003621
1334,-0.01874,-0.00469,0.003621
1335,0.000481,-0.021435,0.021737
1336,0.000481,0.0288,0.039853
1337,0.019703,0.012055,-0.014495
1338,0.019703,-0.00469,0.057969
1339,0.019703,-0.00469,0.021737
1340,0.000481,0.012055,-0.014495
1341,0.000481,-0.021435,0.003621
1342,0.019703,-0.021435,0.021737
1343,-0.01874,-0.021435,0.021737
1344,0.019703,-0.038179,0.021737
1345,0.000481,-0.105159,0.039853
1346,0.000481,-0.155393,-0.014495
1347,-0.037962,-0.138648,0.003621
1348,-0.01874,-0.088414,0.003621
1349,0.000481,-0.00469,-0.014495
1350,-0.037962,0.06229,-0.032611
1351,0.019703,0.179503,-0.014495
1352,0.019703,0.212993,0.021737
1353,0.019703,0.196248,0.021737
1354,0.019703,0.129269,0.021737
1355,0.019703,0.079034,-0.032611
1356,0.019703,0.06229,0.003621
1357,0.038924,0.0288,-0.014495
1358,-0.01874,0.012055,-0.068843
1359,0.000481,0.012055,-0.050727
1360,0.000481,-0.00469,-0.050727
1361,0.000481,-0.021435,0.021737
1362,0.000481,-0.021435,0.021737
1363,0.019703,0.012055,0.021737
1364,0.000481,-0.021435,-0.014495
1365,-0.01874,-0.021435,-0.014495
1366,0.000481,-0.00469,0.003621
1367,0.000481,-0.021435,-0.032611
1368,0.019703,-0.00469,0.003621
1369,0.000481,0.012055,-0.050727
1370,0.000481,-0.00469,0.003621
1371,0.000481,-0.021435,-0.014495
1372,-0.01874,-0.00469,-0.014495
1373,0.000481,-0.021435,-0.068843
1374,0.000481,-0.00469,-0.032611
1375,0.019703,-0.00469,-0.050727
1376,-0.037962,-0.021435,-0.050727
1377,-0.01874,-0.021435,-0.014495
1378,-0.01874,-0.00469,-0.050727
1379,-0.037962,-0.021435,-0.014495
1380,-0.01874,-0.00469,0.021737
1381,-0.01874,-0.00469,0.003621
1382,-0.01874,-0.00469,0.003621
1383,0.000481,-0.00469,0.021737
1384,0.000481,-0.00469,-0.014495
1385,-0.01874,0.012055,0.021737
1386,0.000481,-0.021435,0.039853
1387,0.000481,-0.021435,0.003621
1388,-0.01874,-0.021435,0.039853
1389,0.000481,-0.00469,0.057969
1390,-0.01874,0.012055,0.021737
1391,0.019703,-0.00469,0.039853
1392,-0.037962,0.012055,-0.014495
1393,0.000481,-0.00469,-0.050727
1394,-0.01874,-0.00469,-0.014495
1395,0.000481,-0.038179,0.003621
1396,0.000481,-0.00469,-0.032611
1397,0.000481,-0.00469,-0.014495
1398,0.000481,-0.00469,-0.050727
1399,0.000481,-0.021435,-0.050727
1400,-0.01874,-0.021435,0.003621
1401,0.000481,0.012055,0.021737
1402,0.019703,0.0288,0.021737
1403,0.000481,0.012055,0.039853
1404,0.000481,0.012055,0.003621
1405,-0.01874,-0.00469,0.021737
1406,0.000481,-0.038179,0.057969
1407,0.000481,-0.038179,0.003621
1408,0.000481,-0.038179,0.021737
1409,0.000481,-0.00469,0.039853
1410,0.000481,-0.00469,-0.014495
1411,0.000481,0.012055,-0.050727
1412,0.000481,-0.00469,-0.014495
1413,-0.01874,0.012055,-0.050727
1414,-0.01874,0.012055,-0.014495
1415,0.019703,0.012055,0.021737
1416,0.019703,-0.00469,-0.014495
1417,0.019703,0.012055,0.021737
1418,0.000481,0.012055,0.039853
1419,0.019703,0.045545,0.021737
1420,0.000481,0.079034,0.003621
1421,0.019703,0.06229,0.039853
1422,0.019703,0.0288,-0.032611
1423,0.000481,-0.021435,-0.014495
1424,-0.01874,-0.038179,-0.014495
1425,-0.01874,-0.021435,-0.050727
1426,0.000481,-0.038179,0.003621
1427,0.000481,-0.105159,-0.050727
1428,0.000481,-0.088414,-0.050727
1429,-0.01874,-0.088414,-0.050727
1430,-0.037962,-0.071669,-0.014495
1431,-0.01874,-0.00469,-0.050727
1432,-0.01874,-0.00469,-0.014495
1433,-0.01874,0.0288,0.003621
1434,0.019703,0.0288,-0.032611
1435,0.000481,0.045545,-0.014495
1436,0.019703,0.045545,-0.014495
1437,0.000481,0.06229,-0.050727
1438,0.019703,0.06229,0.021737
1439,0.000481,0.079034,0.003621
1440,0.000481,0.06229,-0.014495
1441,0.000481,0.095779,0.021737
1442,0.000481,0.06229,0.057969
1443,0.000481,0.045545,0.021737
1444,-0.01874,0.0288,0.057969
1445,0.000481,0.045545,0.039853
1446,0.000481,0.079034,0.021737
1447,0.000481,-0.00469,-0.014495
1448,0.019703,-0.00469,-0.014495
1449,0.019703,-0.021435,-0.014495
1450,0.000481,-0.038179,0.003621
1451,0.000481,-0.00469,0.021737
1452,0.000481,-0.00469,0.003621
1453,-0.01874,-0.021435,0.003621
1454,0.000481,-0.038179,0.003621
1455,0.000481,-0.038179,-0.032611
1456,-0.01874,-0.00469,-0.014495
1457,-0.01874,-0.021435,-0.032611
1458,-0.01874,0.012055,0.021737
1459,-0.01874,0.012055,0.021737
1460,0.000481,-0.038179,0.021737
1461,-0.01874,-0.00469,-0.032611
1462,0.019703,-0.021435,0.021737
1463,0.000481,0.012055,0.039853
1464,0.019703,-0.00469,-0.032611
1465,0.019703,0.012055,-0.014495
1466,-0.037962,-0.00469,-0.032611
1467,0.000481,-0.00469,0.003621
1468,0.000481,0.0288,0.039853
1469,0.019703,-0.00469,0.003621
1470,0.000481,0.0288,0.021737
1471,0.000481,-0.00469,0.021737
1472,0.019703,-0.021435,-0.014495
1473,0.000481,-0.021435,-0.032611
1474,0.019703,0.012055,-0.014495
1475,0.000481,-0.00469,-0.050727
1476,0.000481,-0.00469,0.039853
1477,0.000481,-0.00469,0.039853
1478,0.000481,-0.00469,-0.032611
1479,0.019703,0.012055,0.003621
1480,0.000481,-0.00469,-0.014495
1481,-0.01874,-0.021435,-0.068843
1482,-0.01874,-0.021435,-0.050727
1483,-0.01874,-0.00469,-0.014495
1484,0.000481,-0.00469,-0.050727
1485,-0.01874,0.0288,-0.050727
1486,0.000481,0.012055,0.039853
1487,0.000481,0.0288,0.003621
1488,0.000481,-0.00469,0.021737
1489,-0.01874,-0.038179,0.003621
1490,-0.01874,-0.038179,-0.032611
1491,0.000481,-0.021435,-0.014495
1492,0.000481,-0.038179,0.003621
1493,0.000481,0.012055,0.057969
1494,0.000481,-0.00469,0.057969
1495,0.019703,0.0288,0.076085
1496,-0.01874,0.0288,0.039853
1497,-0.01874,0.079034,0.057969
1498,0.019703,0.045545,0.003621
1499,0.000481,0.012055,-0.032611
1500,-0.01874,-0.00469,-0.050727
1501,-0.01874,-0.038179,-0.068843
1502,0.019703,-0.038179,-0.032611
1503,-0.01874,-0.054924,0.003621
1504,-0.01874,-0.021435,-0.032611
1505,-0.01874,-0.021435,-0.050727
1506,-0.01874,-0.021435,-0.014495
1507,0.019703,0.012055,-0.050727
1508,-0.01874,0.012055,-0.050727
1509,-0.01874,-0.00469,-0.014495
1510,-0.01874,-0.00469,-0.050727
1511,0.000481,-0.00469,0.021737
1512,0.000481,0.012055,0.021737
1513,0.000481,-0.021435,-0.014495
1514,-0.01874,-0.021435,0.003621
1515,-0.01874,-0.021435,0.021737
1516,0.000481,-0.038179,0.039853
1517,-0.01874,-0.021435,0.039853
1518,-0.037962,-0.088414,0.057969
1519,-0.01874,-0.071669,-0.014495
1520,-0.01874,-0.071669,0.003621
1521,-0.01874,-0.038179,0.076085
1522,-0.01874,-0.00469,0.003621
1523,0.000481,0.06229,0.003621
1524,0.000481,0.129269,0.039853
1525,0.000481,0.146014,-0.014495
1526,0.000481,0.095779,-0.068843
1527,0.019703,0.095779,0.021737
1528,0.019703,0.045545,-0.068843
1529,0.019703,0.045545,-0.032611
1530,0.000481,0.0288,0.003621
1531,-0.01874,0.012055,0.003621
1532,0.019703,-0.00469,0.021737
1533,0.000481,-0.00469,-0.032611
1534,-0.01874,0.012055,-0.068843
1535,-0.01874,0.012055,-0.068843
1536,-0.01874,-0.00469,-0.032611
1537,0.000481,-0.00469,-0.014495
1538,0.000481,-0.00469,0.021737
1539,0.000481,-0.00469,0.021737
1540,-0.01874,0.012055,-0.032611
1541,0.000481,-0.021435,0.039853
1542,-0.01874,-0.021435,0.021737
1543,0.019703,-0.021435,-0.032611
1544,0.000481,-0.021435,0.003621
1545,-0.01874,-0.021435,0.003621
1546,0.000481,-0.00469,0.003621
1547,0.000481,-0.021435,-0.050727
1548,0.000481,-0.00469,0.003621
1549,-0.01874,-0.00469,-0.014495
1550,0.000481,-0.00469,0.039853
1551,-0.01874,0.0288,0.003621
1552,0.000481,0.045545,0.003621
1553,0.019703,0.012055,0.003621
1554,0.000481,0.012055,0.039853
1555,0.000481,0.0288,0.039853
1556,0.000481,-0.038179,0.094201
1557,0.000481,-0.00469,0.057969
1558,-0.01874,-0.021435,0.057969
1559,-0.01874,-0.00469,0.021737
1560,0.000481,-0.00469,-0.014495
1561,0.019703,0.012055,-0.050727
1562,0.000481,-0.00469,0.003621
1563,-0.01874,0.0288,-0.032611
1564,-0.01874,-0.00469,-0.032611
1565,-0.037962,-0.00469,0.003621
1566,-0.01874,-0.00469,0.021737
1567,0.000481,-0.038179,0.021737
1568,-0.037962,-0.00469,0.003621
1569,0.000481,0.012055,-0.032611
1570,-0.01874,-0.038179,-0.032611
1571,-0.01874,-0.00469,0.003621
1572,-0.037962,-0.00469,-0.050727
1573,-0.01874,-0.021435,0.003621
1574,-0.01874,-0.00469,-0.014495
1575,0.000481,-0.00469,0.021737
1576,0.000481,0.012055,-0.014495
1577,0.000481,-0.038179,0.021737
1578,-0.01874,-0.00469,0.003621
1579,0.000481,-0.038179,-0.014495
1580,0.000481,0.012055,0.021737
1581,-0.01874,0.012055,0.003621
1582,0.000481,-0.00469,0.021737
1583,-0.01874,0.045545,0.021737
1584,0.000481,0.045545,0.039853
1585,0.000481,-0.00469,0.021737
1586,0.019703,-0.038179,0.003621
1587,0.000481,-0.021435,-0.014495
1588,-0.01874,-0.038179,-0.050727
1589,-0.01874,-0.054924,-0.032611
1590,-0.01874,-0.021435,-0.050727
1591,0.000481,-0.054924,-0.014495
1592,-0.01874,-0.021435,0.039853
1593,0.000481,0.0288,0.003621
1594,0.000481,0.045545,0.003621
1595,-0.01874,0.0288,0.003621
1596,-0.01874,0.012055,-0.068843
1597,0.000481,0.06229,-0.032611
1598,0.000481,0.045545,-0.014495
1599,0.000481,0.012055,-0.014495
1600,0.000481,-0.00469,0.003621
1601,0.000481,0.012055,0.039853
1602,-0.01874,0.0288,0.039853
1603,0.019703,0.0288,0.039853
1604,0.000481,-0.00469,0.039853
1605,-0.037962,0.012055,0.003621
1606,-0.01874,-0.00469,-0.032611
1607,0.000481,0.0288,-0.032611
1608,0.000481,0.0288,-0.032611
1609,0.000481,0.012055,-0.014495
1610,0.019703,0.012055,0.003621
1611,0.038924,-0.021435,-0.050727
1612,0.000481,-0.00469,0.003621
1613,0.019703,0.045545,-0.032611
1614,0.019703,-0.00469,-0.014495
1615,0.019703,-0.00469,-0.068843
1616,0.000481,-0.00469,-0.032611
1617,0.019703,-0.00469,-0.032611
1618,-0.01874,-0.00469,-0.032611
1619,0.000481,-0.00469,0.003621
1620,-0.01874,-0.021435,0.021737
1621,-0.01874,-0.038179,0.021737
1622,-0.01874,0.012055,0.039853
1623,-0.01874,0.012055,0.003621
1624,-0.01874,0.012055,0.039853
1625,-0.01874,-0.021435,-0.032611
1626,0.000481,-0.00469,-0.032611
1627,-0.01874,-0.054924,-0.032611
1628,-0.01874,-0.021435,0.021737
1629,-0.01874,0.012055,-0.032611
1630,0.000481,-0.00469,-0.014495
1631,0.000481,-0.00469,-0.068843
1632,0.000481,-0.00469,-0.050727
1633,-0.01874,-0.021435,-0.014495
1634,0.019703,-0.00469,0.003621
1635,0.019703,0.012055,0.021737
1636,0.000481,-0.00469,0.039853
1637,0.019703,0.012055,0.094201
1638,0.019703,0.012055,0.094201
1639,-0.01874,0.0288,0.130433
1640,0.019703,0.0288,0.076085
1641,0.000481,0.012055,0.057969
1642,0.000481,0.012055,0.076085
1643,0.019703,-0.00469,0.021737
1644,0.019703,0.012055,0.003621
1645,0.000481,-0.021435,0.003621
1646,0.000481,-0.038179,-0.014495
1647,0.000481,-0.054924,-0.014495
1648,-0.01874,-0.038179,0.021737
1649,-0.01874,-0.00469,0.021737
1650,-0.037962,0.012055,-0.032611
1651,0.000481,0.045545,-0.014495
1652,-0.01874,0.045545,-0.050727
1653,-0.01874,0.012055,0.021737
1654,0.000481,0.0288,0.021737
1655,0.000481,0.012055,-0.014495
1656,0.000481,0.012055,0.003621
1657,0.000481,0.012055,0.003621
1658,-0.01874,0.012055,-0.032611
1659,0.000481,0.0288,-0.050727
1660,-0.01874,-0.00469,-0.068843
1661,-0.01874,-0.00469,-0.050727
1662,0.000481,-0.00469,-0.014495
1663,0.019703,-0.00469,0.003621
1664,0.000481,0.012055,0.003621
1665,0.019703,0.012055,0.039853
1666,0.000481,-0.021435,0.003621
1667,-0.01874,0.012055,0.021737
1668,-0.01874,0.012055,0.057969
1669,0.019703,-0.00469,0.021737
1670,0.019703,0.012055,-0.014495
1671,0.000481,0.012055,-0.014495
1672,0.019703,0.012055,-0.014495
1673,0.000481,-0.00469,-0.014495
1674,0.019703,-0.021435,0.021737
1675,-0.01874,-0.00469,-0.032611
1676,0.019703,-0.038179,-0.032611
1677,0.000481,-0.021435,-0.014495
1678,-0.01874,0.012055,-0.014495
1679,0.000481,-0.00469,-0.014495
1680,0.000481,0.012055,0.003621
1681,-0.01874,-0.00469,0.057969
1682,0.000481,-0.021435,0.003621
1683,-0.01874,0.012055,0.039853
1684,0.000481,0.0288,0.039853
1685,0.000481,-0.00469,-0.014495
1686,-0.01874,0.012055,0.021737
1687,0.000481,-0.021435,-0.014495
1688,-0.01874,-0.00469,-0.086959
1689,-0.057183,-0.038179,-0.032611
1690,-0.01874,-0.021435,-0.068843
1691,-0.037962,-0.00469,0.003621
1692,-0.037962,-0.021435,0.039853
1693,-0.01874,0.012055,0.021737
1694,0.038924,0.0288,0.021737
1695,0.000481,0.0288,0.021737
1696,0.000481,0.012055,0.021737
1697,-0.01874,-0.00469,-0.014495
1698,-0.01874,-0.00469,0.021737
1699,-0.01874,-0.00469,-0.014495
1700,0.000481,0.012055,0.003621
1701,0.019703,0.012055,0.021737
1702,0.019703,0.012055,0.003621
1703,0.000481,0.012055,-0.032611
1704,0.019703,-0.00469,-0.014495
1705,0.019703,0.012055,-0.032611
1706,0.000481,0.012055,-0.032611
1707,-0.01874,0.012055,0.003621
1708,-0.037962,-0.021435,-0.032611
1709,0.000481,-0.00469,-0.032611
1710,-0.01874,-0.021435,-0.032611
1711,-0.037962,-0.021435,-0.050727
1712,-0.01874,-0.021435,0.003621
1713,0.000481,-0.038179,-0.050727
1714,0.000481,-0.00469,-0.050727
1715,-0.01874,-0.00469,0.003621
1716,-0.01874,-0.00469,-0.014495
1717,-0.01874,0.012055,0.003621
1718,0.019703,0.0288,0.057969
1719,0.000481,0.012055,0.076085
1720,-0.01874,0.0288,0.021737
1721,-0.01874,0.012055,0.057969
1722,0.000481,0.012055,0.003621
1723,0.019703,0.012055,0.021737
1724,0.019703,0.0288,0.039853
1725,0.000481,0.012055,0.021737
1726,0.000481,0.012055,0.039853
1727,-0.01874,0.0288,0.039853
1728,0.019703,-0.00469,0.057969
1729,0.019703,0.012055,0.039853
1730,0.019703,0.012055,0.021737
1731,-0.01874,-0.00469,-0.032611
1732,0.000481,0.0288,-0.068843
1733,0.000481,-0.021435,-0.014495
1734,0.000481,0.012055,-0.032611
1735,0.000481,-0.00469,-0.014495
1736,0.019703,-0.00469,0.021737
1737,0.000481,0.012055,0.003621
1738,-0.01874,0.012055,0.003621
1739,0.000481,0.012055,0.094201
1740,0.000481,-0.00469,0.039853
1741,0.000481,-0.021435,-0.032611
1742,-0.037962,0.012055,-0.032611
1743,0.038924,0.012055,-0.032611
1744,0.000481,-0.00469,-0.050727
1745,-0.037962,-0.038179,-0.068843
1746,-0.01874,-0.021435,-0.014495
1747,0.000481,-0.00469,-0.050727
1748,0.000481,-0.021435,-0.032611
1749,-0.01874,-0.00469,-0.032611
1750,0.000481,-0.021435,-0.068843
1751,-0.01874,-0.00469,-0.014495
1752,-0.037962,-0.054924,-0.050727
1753,-0.01874,-0.00469,0.021737
1754,-0.01874,0.012055,0.094201
1755,-0.01874,-0.00469,0.057969
1756,0.000481,0.012055,0.057969
1757,-0.01874,0.012055,0.057969
1758,-0.01874,-0.00469,0.003621
1759,0.019703,0.0288,0.021737
1760,0.019703,0.012055,0.021737
1761,0.019703,-0.00469,-0.014495
1762,0.000481,0.012055,0.039853
1763,0.019703,0.012055,0.039853
1764,0.000481,0.012055,0.021737
1765,0.000481,-0.00469,0.021737
1766,0.000481,0.012055,0.003621
1767,0.000481,-0.021435,-0.032611
1768,0.000481,0.012055,-0.050727
1769,0.000481,0.012055,-0.014495
1770,0.000481,0.012055,-0.050727
1771,-0.01874,-0.00469,-0.014495
1772,0.000481,-0.00469,0.003621
1773,0.000481,-0.00469,0.021737
1774,0.000481,0.012055,0.021737
1775,-0.01874,-0.021435,0.003621
1776,-0.01874,-0.00469,-0.014495
1777,0.000481,-0.021435,-0.050727
1778,0.019703,-0.00469,-0.014495
1779,0.000481,-0.00469,-0.068843
1780,0.019703,0.012055,-0.014495
1781,0.000481,0.012055,0.021737
1782,-0.01874,-0.00469,-0.032611
1783,0.000481,0.012055,-0.014495
1784,-0.01874,-0.038179,-0.014495
1785,0.000481,-0.00469,-0.050727
1786,-0.01874,-0.021435,-0.068843
1787,-0.01874,-0.00469,-0.050727
1788,0.000481,0.012055,-0.014495
1789,0.000481,-0.00469,-0.014495
1790,0.000481,-0.00469,0.057969
1791,0.019703,0.012055,0.021737
1792,0.000481,-0.00469,0.057969
1793,0.000481,0.012055,0.039853
1794,0.000481,-0.00469,-0.032611
1795,0.000481,0.0288,0.021737
1796,0.019703,-0.00469,0.003621
1797,0.000481,-0.038179,-0.014495
1798,0.019703,0.012055,0.003621
1799,0.000481,-0.00469,0.021737
1800,0.000481,0.012055,0.021737
1801,0.000481,-0.00469,0.021737
1802,0.000481,-0.021435,0.003621
1803,-0.01874,0.012055,-0.014495
1804,-0.01874,-0.021435,0.039853
1805,0.000481,0.012055,-0.014495
1806,0.000481,-0.021435,-0.014495
1807,0.000481,-0.021435,0.021737
1808,-0.01874,-0.021435,0.021737
1809,-0.01874,-0.021435,0.021737
1810,-0.037962,-0.00469,0.094201
1811,0.000481,-0.021435,0.057969
1812,-0.01874,-0.00469,0.003621
1813,-0.037962,-0.00469,0.021737
1814,-0.01874,0.0288,0.039853
1815,0.019703,0.045545,0.039853
1816,0.000481,0.0288,0.039853
1817,0.000481,0.012055,-0.032611
1818,0.000481,-0.00469,-0.032611
1819,0.000481,-0.00469,-0.032611
1820,0.000481,-0.00469,-0.032611
1821,0.000481,-0.00469,-0.014495
1822,0.019703,-0.021435,-0.014495
1823,-0.01874,-0.00469,-0.050727
1824,0.000481,0.012055,-0.032611
1825,0.000481,0.012055,-0.014495
1826,0.000481,-0.00469,-0.032611
1827,0.000481,0.0288,0.003621
1828,0.000481,0.0288,-0.014495
1829,0.000481,0.012055,0.003621
1830,0.019703,0.012055,-0.050727
1831,-0.01874,-0.00469,-0.032611
1832,0.000481,0.012055,-0.068843
1833,0.000481,-0.021435,-0.014495
1834,0.000481,0.012055,0.021737
1835,0.019703,-0.00469,-0.014495
1836,-0.01874,-0.021435,0.021737
1837,0.000481,0.012055,-0.032611
1838,0.000481,-0.021435,-0.032611
1839,0.000481,-0.00469,-0.032611
1840,-0.01874,0.0288,-0.032611
1841,-0.037962,0.0288,-0.014495
1842,0.000481,0.0288,0.003621
1843,-0.01874,-0.021435,0.003621
1844,-0.01874,0.012055,-0.014495
1845,0.000481,-0.00469,0.021737
1846,0.000481,-0.00469,-0.014495
1847,-0.037962,0.012055,-0.014495
1848,0.019703,0.0288,-0.032611
1849,0.000481,-0.00469,0.003621
1850,0.019703,-0.00469,0.003621
1851,0.000481,-0.00469,0.021737
1852,0.019703,0.012055,0.021737
1853,0.019703,0.012055,0.003621
1854,0.019703,0.012055,0.039853
1855,-0.01874,-0.00469,0.021737
1856,0.019703,-0.00469,-0.032611
1857,-0.01874,-0.021435,0.003621
1858,-0.01874,0.012055,-0.032611
1859,0.000481,0.012055,-0.032611
1860,-0.01874,0.012055,-0.014495
1861,0.000481,0.012055,0.039853
1862,-0.01874,-0.021435,0.003621
1863,-0.01874,-0.021435,0.039853
1864,-0.01874,-0.00469,0.003621
1865,-0.037962,-0.00469,-0.032611
1866,-0.01874,-0.00469,0.003621
1867,-0.01874,-0.00469,-0.014495
1868,0.000481,-0.021435,-0.014495
1869,0.000481,0.012055,0.039853
1870,0.000481,0.012055,0.094201
1871,0.019703,0.012055,0.057969
1872,0.019703,-0.00469,0.076085
1873,0.000481,-0.021435,0.021737
1874,0.038924,0.0288,-0.014495
1875,0.019703,0.012055,0.021737
1876,0.019703,-0.00469,-0.014495
1877,0.019703,-0.00469,-0.032611
1878,0.000481,-0.00469,0.021737
1879,-0.01874,-0.021435,0.021737
1880,0.000481,-0.021435,-0.014495
1881,0.019703,-0.021435,0.021737
1882,0.000481,-0.00469,0.003621
1883,-0.01874,-0.021435,-0.050727
1884,-0.01874,-0.00469,0.003621
1885,-0.01874,0.012055,-0.050727
1886,0.000481,0.0288,0.003621
1887,0.000481,0.0288,0.021737
1888,0.000481,-0.021435,0.021737
1889,-0.01874,-0.021435,0.003621
1890,0.000481,-0.00469,0.021737
1891,0.019703,0.0288,-0.032611
1892,0.000481,-0.00469,-0.014495
1893,0.000481,-0.021435,-0.014495
1894,-0.01874,0.012055,-0.050727
1895,0.000481,0.012055,-0.014495
1896,0.000481,0.012055,-0.032611
1897,0.000481,-0.00469,-0.032611
1898,-0.01874,-0.00469,-0.032611
1899,0.000481,0.012055,0.021737
1900,-0.01874,-0.021435,0.003621
1901,-0.01874,0.012055,-0.032611
1902,-0.037962,-0.00469,-0.014495
1903,-0.01874,-0.021435,-0.032611
1904,-0.01874,-0.00469,0.021737
1905,-0.037962,-0.00469,0.039853
1906,-0.01874,-0.00469,0.003621
1907,0.000481,0.012055,0.039853
1908,0.000481,0.012055,0.003621
1909,0.000481,-0.00469,-0.068843
1910,-0.01874,-0.038179,-0.050727
1911,0.000481,-0.00469,-0.068843
1912,0.000481,-0.00469,-0.068843
1913,0.000481,-0.00469,-0.050727
1914,-0.01874,-0.00469,0.021737
1915,0.000481,0.012055,0.003621
1916,0.000481,0.0288,0.039853
1917,0.000481,0.0288,-0.032611
1918,-0.01874,-0.00469,0.021737
1919,0.019703,0.0288,0.003621
1920,0.000481,0.012055,0.021737
1921,0.019703,0.0288,0.039853
1922,0.000481,0.0288,0.076085
1923,0.000481,0.012055,0.094201
1924,0.000481,0.012055,0.021737
1925,-0.01874,-0.00469,0.057969
1926,-0.01874,0.012055,0.021737
1927,0.000481,0.012055,-0.032611
1928,-0.01874,0.012055,-0.014495
1929,0.000481,-0.021435,0.003621
1930,-0.01874,-0.00469,-0.032611
1931,-0.01874,0.012055,0.003621
1932,-0.01874,-0.021435,0.039853
1933,0.000481,-0.00469,0.003621
1934,0.019703,-0.00469,0.003621
1935,0.000481,0.012055,-0.032611
1936,0.000481,0.012055,-0.086959
1937,0.019703,0.012055,0.003621
1938,0.019703,-0.00469,-0.068843
1939,0.038924,0.012055,0.003621
1940,0.038924,0.012055,-0.014495
1941,0.000481,-0.00469,0.021737
1942,0.000481,0.012055,0.021737
1943,0.000481,0.012055,0.057969
1944,0.000481,-0.00469,0.021737
1945,0.000481,-0.00469,-0.014495
1946,-0.01874,-0.00469,0.003621
1947,0.000481,-0.038179,-0.050727
1948,-0.01874,-0.00469,-0.014495
1949,-0.01874,-0.021435,0.003621
1950,-0.037962,-0.00469,0.003621
1951,-0.01874,-0.00469,0.057969
1952,-0.01874,0.0288,-0.014495
1953,0.000481,-0.00469,0.003621
1954,0.019703,-0.021435,0.003621
1955,0.019703,-0.00469,0.003621
1956,0.000481,0.012055,0.003621
1957,0.000481,0.0288,0.003621
1958,0.000481,0.012055,0.021737
1959,0.000481,0.012055,-0.014495
1960,0.019703,-0.021435,-0.014495
1961,0.000481,-0.038179,0.003621
1962,0.000481,-0.00469,-0.014495
1963,-0.01874,-0.00469,-0.068843
1964,-0.037962,-0.00469,-0.068843
1965,-0.037962,0.012055,-0.014495
1966,-0.01874,-0.038179,-0.014495
1967,-0.037962,-0.054924,0.003621
1968,0.000481,-0.021435,-0.014495
1969,0.000481,0.012055,0.003621
1970,0.000481,0.012055,0.003621
1971,0.000481,0.012055,0.039853
1972,0.019703,0.012055,0.094201
1973,0.000481,0.0288,0.021737
1974,0.019703,0.045545,0.021737
1975,0.019703,0.0288,0.039853
1976,0.000481,0.012055,0.094201
1977,0.019703,-0.00469,0.021737
1978,0.019703,0.012055,0.003621
1979,0.019703,0.012055,0.003621
1980,0.000481,-0.00469,-0.032611
1981,-0.01874,-0.00469,0.003621
1982,0.000481,-0.00469,-0.014495
1983,0.000481,-0.00469,-0.050727
1984,-0.01874,0.0288,-0.032611
1985,0.019703,-0.021435,0.003621
1986,0.000481,0.012055,-0.014495
1987,-0.01874,0.012055,0.021737
1988,0.000481,0.012055,0.021737
1989,-0.01874,-0.021435,0.003621
1990,-0.01874,-0.021435,0.003621
1991,-0.01874,-0.038179,-0.032611
1992,0.000481,-0.038179,-0.032611
1993,0.000481,-0.021435,-0.032611
1994,-0.01874,-0.021435,-0.032611
1995,-0.01874,-0.00469,0.039853
1996,-0.01874,0.012055,0.057969
1997,-0.01874,-0.00469,0.039853
1998,0.000481,-0.00469,0.021737
1999,-0.01874,-0.00469,0.057969
2000,0.000481,-0.021435,0.003621
2001,-0.037962,0.012055,0.003621
2002,-0.037962,0.0288,0.076085
2003,0.000481,0.012055,-0.014495
2004,0.000481,0.0288,0.021737
2005,0.000481,0.0288,0.076085
2006,-0.01874,0.0288,0.021737
2007,0.019703,0.012055,-0.032611
2008,0.000481,-0.021435,-0.032611
2009,0.000481,-0.00469,-0.014495
2010,-0.01874,-0.00469,-0.032611
2011,0.000481,-0.021435,0.039853
2012,-0.01874,-0.00469,-0.032611
2013,-0.01874,-0.00469,-0.014495
2014,-0.01874,0.0288,0.021737
2015,-0.01874,-0.00469,0.003621
2016,-0.01874,-0.00469,0.039853
2017,0.019703,-0.00469,-0.032611
2018,0.000481,0.012055,-0.068843
2019,0.000481,0.012055,-0.068843
2020,0.000481,-0.00469,-0.032611
2021,-0.01874,-0.00469,-0.050727
2022,0.000481,-0.00469,-0.032611
2023,-0.037962,-0.021435,-0.032611
2024,0.000481,-0.021435,-0.068843
2025,0.000481,-0.00469,0.003621
2026,-0.01874,0.0288,0.003621
2027,-0.037962,0.0288,-0.032611
2028,-0.037962,-0.021435,-0.050727
2029,-0.01874,-0.00469,0.021737
2030,0.019703,-0.00469,0.021737
2031,0.000481,0.012055,0.057969
2032,0.000481,0.012055,0.094201
2033,0.000481,-0.00469,0.057969
2034,0.019703,0.012055,0.057969
2035,0.019703,0.012055,0.057969
2036,-0.01874,0.012055,0.021737
2037,-0.01874,0.012055,0.021737
2038,0.019703,0.0288,0.003621
2039,-0.01874,-0.021435,-0.014495
2040,0.019703,-0.00469,0.003621
2041,0.000481,0.012055,0.039853
2042,0.000481,-0.00469,0.003621
2043,0.000481,0.012055,0.021737
2044,-0.01874,0.012055,-0.014495
2045,0.019703,0.0288,-0.014495
2046,0.038924,0.012055,-0.014495
2047,0.019703,0.0288,-0.050727
2048,0.038924,0.012055,-0.050727
2049,0.000481,-0.021435,-0.014495
2050,-0.01874,-0.00469,0.039853
2051,-0.01874,-0.021435,-0.014495
2052,0.000481,0.012055,0.021737
2053,0.019703,0.012055,-0.014495
2054,0.019703,-0.00469,-0.014495
2055,0.019703,0.0288,-0.050727
2056,0.000481,0.012055,-0.032611
2057,0.000481,-0.00469,-0.032611
2058,-0.037962,0.079034,0.003621
2059,-0.057183,-0.00469,0.039853
2060,0.000481,-0.00469,-0.032611
2061,-0.037962,-0.038179,-0.032611
2062,0.000481,-0.00469,-0.068843
2063,-0.01874,0.012055,-0.050727
2064,0.000481,-0.038179,-0.050727
2065,-0.01874,0.012055,-0.050727
2066,-0.037962,-0.00469,-0.014495
2067,-0.01874,-0.038179,0.003621
2068,0.000481,0.012055,0.076085
2069,0.000481,0.012055,0.057969
2070,0.019703,0.0288,0.112317
2071,0.019703,0.0288,0.039853
2072,-0.037962,0.0288,-0.014495
2073,-0.037962,0.0288,0.039853
2074,0.000481,0.0288,0.003621
2075,0.019703,-0.00469,0.003621
2076,0.000481,-0.00469,0.057969
2077,-0.037962,0.012055,0.021737
2078,-0.01874,0.012055,0.003621
2079,0.000481,-0.021435,0.039853
2080,-0.01874,-0.00469,-0.014495
2081,0.000481,-0.00469,-0.014495
2082,0.019703,0.012055,0.021737
2083,-0.01874,0.012055,-0.032611
2084,-0.01874,0.012055,0.021737
2085,0.000481,0.0288,0.021737
2086,0.000481,0.012055,0.003621
2087,-0.01874,0.012055,0.021737
2088,-0.01874,0.012055,-0.032611
2089,0.000481,0.012055,-0.014495
2090,0.000481,0.012055,-0.068843
2091,0.019703,-0.021435,-0.032611
2092,0.000481,-0.00469,-0.068843
2093,-0.01874,-0.021435,-0.050727
2094,-0.01874,0.0288,0.003621
2095,-0.01874,0.0288,0.003621
2096,-0.01874,-0.00469,-0.014495
2097,-0.01874,-0.00469,0.003621
2098,-0.01874,-0.021435,0.003621
2099,-0.057183,-0.021435,-0.050727
2100,-0.01874,-0.021435,-0.014495
2101,0.019703,-0.038179,0.003621
2102,0.019703,-0.00469,0.057969
2103,0.019703,0.0288,0.076085
2104,0.000481,0.012055,0.021737
2105,-0.01874,-0.00469,0.039853
2106,-0.01874,0.0288,0.003621
2107,0.019703,0.0288,0.003621
2108,0.019703,0.012055,-0.014495
2109,0.000481,0.012055,-0.014495
2110,0.000481,0.012055,-0.032611
2111,-0.01874,0.012055,0.021737
2112,0.000481,-0.00469,0.021737
2113,0.000481,0.012055,0.003621
2114,-0.01874,-0.021435,0.039853
2115,-0.01874,-0.021435,0.021737
2116,0.000481,0.0288,0.003621
2117,0.000481,0.012055,-0.014495
2118,0.000481,0.012055,-0.032611
2119,0.019703,0.012055,0.003621
2120,-0.01874,-0.00469,0.039853
2121,0.019703,0.0288,0.021737
2122,-0.01874,0.0288,0.003621
2123,0.019703,0.0288,0.039853
2124,0.019703,-0.00469,-0.050727
2125,0.000481,-0.021435,-0.032611
2126,0.000481,-0.00469,-0.032611
2127,0.000481,-0.00469,-0.068843
2128,0.000481,-0.00469,-0.014495
2129,0.000481,0.012055,-0.014495
2130,-0.01874,-0.021435,-0.014495
2131,-0.01874,-0.021435,-0.014495
2132,0.000481,-0.00469,0.003621
2133,0.000481,-0.00469,-0.032611
2134,0.000481,-0.00469,-0.050727
2135,0.019703,0.012055,0.003621
2136,0.000481,-0.021435,0.021737
2137,0.000481,-0.021435,0.021737
2138,0.000481,-0.038179,0.039853
2139,0.019703,-0.00469,0.094201
2140,-0.01874,0.012055,0.057969
2141,-0.01874,0.012055,0.094201
2142,0.000481,-0.00469,0.057969
2143,0.019703,0.0288,0.003621
2144,0.019703,0.0288,0.021737
2145,0.019703,0.0288,-0.014495
2146,0.019703,0.012055,-0.014495
2147,-0.037962,0.012055,0.003621
2148,-0.01874,0.012055,0.003621
2149,0.019703,-0.021435,0.039853
2150,0.000481,0.012055,0.057969
2151,0.038924,0.0288,-0.014495
2152,0.019703,0.012055,-0.014495
2153,0.019703,0.012055,-0.032611
2154,0.019703,-0.00469,-0.032611
2155,0.000481,-0.00469,0.021737
2156,0.019703,0.012055,0.003621
2157,0.019703,-0.00469,0.021737
2158,0.000481,-0.00469,0.021737
2159,0.019703,-0.00469,0.003621
2160,0.000481,-0.021435,-0.050727
2161,0.019703,-0.021435,-0.068843
2162,-0.01874,0.012055,-0.050727
2163,-0.057183,-0.021435,-0.086959
2164,-0.057183,-0.00469,-0.086959
2165,-0.037962,-0.00469,-0.086959
2166,-0.037962,-0.00469,-0.032611
2167,-0.01874,-0.038179,-0.050727
2168,-0.01874,-0.00469,-0.050727
2169,0.000481,-0.021435,-0.014495
2170,0.000481,0.012055,-0.014495
2171,0.000481,0.0288,0.003621
2172,0.000481,0.0288,0.003621
2173,0.096589,0.012055,0.076085
2174,-0.01874,-0.00469,0.112317
2175,-0.01874,-0.00469,0.094201
2176,-0.01874,-0.00469,0.057969
2177,0.000481,0.012055,0.021737
2178,-0.01874,0.0288,-0.032611
2179,0.019703,0.045545,-0.014495
2180,0.000481,0.012055,-0.032611
2181,0.019703,-0.00469,-0.032611
2182,0.000481,0.012055,0.003621
2183,-0.01874,-0.00469,0.039853
2184,-0.01874,0.012055,0.094201
2185,0.000481,0.0288,0.003621
2186,0.000481,-0.00469,0.021737
2187,0.019703,0.012055,-0.014495
2188,0.000481,-0.00469,0.003621
2189,0.000481,-0.00469,0.003621
2190,0.019703,0.012055,0.021737
2191,0.000481,0.012055,0.021737
2192,0.038924,-0.021435,0.003621
2193,0.000481,-0.021435,0.021737
2194,0.019703,0.012055,0.021737
2195,0.019703,0.012055,-0.014495
2196,0.019703,-0.00469,-0.014495
2197,0.000481,-0.00469,0.003621
2198,0.000481,-0.00469,-0.050727
2199,0.000481,0.012055,-0.014495
2200,0.000481,-0.00469,0.021737
2201,-0.01874,0.012055,0.003621
2202,-0.01874,0.012055,-0.032611
2203,-0.037962,-0.00469,0.003621
2204,-0.037962,-0.00469,-0.032611
2205,-0.01874,-0.00469,-0.032611
2206,0.019703,-0.00469,0.003621
2207,0.000481,0.012055,-0.032611
2208,0.000481,0.0288,0.021737
2209,-0.01874,-0.00469,0.003621
2210,-0.01874,-0.00469,0.003621
2211,-0.01874,0.012055,0.021737
2212,0.000481,0.012055,-0.050727
2213,0.019703,0.012055,-0.032611
2214,0.019703,0.012055,0.003621
2215,0.000481,0.012055,-0.014495
2216,-0.01874,-0.00469,-0.014495
2217,-0.037962,-0.00469,0.003621
2218,-0.037962,-0.021435,0.021737
2219,0.000481,0.012055,0.021737
2220,0.000481,-0.00469,0.057969
2221,0.019703,-0.00469,0.021737
2222,0.019703,0.0288,-0.014495
2223,0.000481,0.012055,-0.032611
2224,0.000481,0.012055,-0.032611
2225,0.000481,-0.021435,-0.050727
2226,0.000481,-0.021435,-0.050727
2227,0.019703,-0.00469,-0.032611
2228,0.000481,-0.00469,-0.050727
2229,0.019703,-0.00469,0.021737
2230,0.000481,-0.00469,0.003621
2231,-0.01874,-0.00469,-0.068843
2232,-0.01874,-0.021435,-0.014495
2233,0.000481,-0.00469,-0.086959
2234,0.000481,-0.021435,-0.014495
2235,0.000481,-0.00469,0.039853
2236,0.000481,-0.021435,0.021737
2237,0.000481,0.0288,0.076085
2238,-0.01874,0.0288,0.057969
2239,0.000481,0.0288,0.021737
2240,0.000481,0.012055,0.003621
2241,0.000481,0.012055,0.039853
2242,0.000481,-0.00469,-0.032611
2243,0.000481,0.012055,-0.050727
2244,-0.037962,0.012055,0.003621
2245,0.000481,-0.00469,-0.032611
2246,0.019703,-0.00469,0.021737
2247,0.000481,-0.00469,0.039853
2248,0.019703,-0.00469,0.003621
2249,0.000481,-0.00469,-0.014495
2250,-0.01874,0.0288,0.021737
2251,0.000481,0.012055,0.039853
2252,-0.01874,0.012055,0.094201
2253,0.000481,0.012055,0.057969
2254,0.000481,0.0288,0.039853
2255,-0.01874,0.0288,0.039853
2256,0.000481,-0.00469,0.039853
2257,0.019703,0.012055,-0.014495
2258,0.019703,0.0288,-0.032611
2259,0.000481,0.012055,-0.014495
2260,-0.01874,-0.00469,-0.068843
2261,0.000481,-0.021435,-0.050727
2262,0.000481,0.012055,0.021737
2263,0.000481,0.012055,0.003621
2264,-0.01874,-0.00469,0.003621
2265,0.000481,0.0288,0.003621
2266,0.000481,0.012055,-0.032611
2267,0.000481,-0.00469,-0.014495
2268,-0.01874,0.012055,-0.014495
2269,0.000481,0.012055,-0.050727
2270,0.019703,0.012055,0.003621
2271,0.000481,-0.00469,0.021737
2272,0.000481,0.012055,0.003621
2273,0.000481,-0.00469,-0.014495
2274,-0.01874,-0.00469,-0.032611
2275,0.000481,-0.00469,-0.050727
2276,0.000481,0.012055,-0.032611
2277,0.019703,0.012055,-0.014495
2278,0.019703,0.012055,-0.032611
2279,0.000481,-0.00469,0.003621
2280,-0.01874,-0.00469,-0.014495
2281,0.000481,0.0288,0.003621
2282,0.000481,0.012055,0.039853
2283,0.000481,0.012055,0.003621
2284,-0.01874,0.012055,-0.014495
2285,0.000481,0.012055,0.003621
2286,0.000481,0.012055,-0.032611
2287,0.000481,0.0288,-0.032611
2288,0.000481,0.012055,-0.014495
2289,0.019703,-0.00469,-0.014495
2290,0.000481,-0.00469,-0.014495
2291,-0.01874,-0.00469,0.021737
2292,-0.01874,0.012055,0.021737
2293,0.000481,0.012055,-0.050727
2294,-0.01874,0.0288,0.003621
2295,-0.01874,0.0288,0.021737
2296,-0.037962,0.012055,-0.014495
2297,-0.01874,-0.00469,-0.014495
2298,0.000481,-0.00469,-0.014495
2299,0.000481,-0.00469,-0.032611
2300,0.000481,-0.021435,0.021737
2301,-0.01874,-0.021435,-0.032611
2302,0.000481,-0.021435,0.021737
2303,0.000481,0.0288,-0.014495
2304,0.000481,0.0288,-0.032611
2305,-0.01874,0.0288,0.003621
2306,0.000481,-0.021435,0.076085
2307,0.000481,0.012055,0.021737
2308,0.000481,-0.021435,0.021737
2309,0.000481,0.012055,0.039853
2310,0.038924,0.045545,-0.014495
2311,0.019703,0.0288,0.021737
2312,0.000481,0.012055,0.003621
2313,0.019703,0.012055,0.003621
2314,0.019703,0.012055,0.039853
2315,0.019703,-0.00469,0.039853
2316,0.000481,-0.00469,0.039853
2317,0.019703,-0.00469,0.003621
2318,0.000481,-0.00469,0.003621
2319,0.019703,-0.038179,-0.068843
2320,0.000481,-0.00469,-0.032611
2321,0.000481,0.012055,-0.032611
2322,-0.01874,-0.00469,-0.068843
2323,-0.037962,-0.021435,-0.032611
2324,-0.057183,-0.021435,-0.050727
2325,-0.037962,-0.021435,-0.032611
2326,0.000481,-0.00469,0.021737
2327,-0.01874,-0.00469,0.021737
2328,-0.037962,0.012055,-0.014495
2329,0.000481,-0.00469,0.039853
2330,0.000481,-0.00469,0.003621
2331,0.000481,-0.00469,-0.032611
2332,0.000481,0.012055,0.021737
2333,-0.01874,-0.00469,-0.032611
2334,0.000481,-0.00469,-0.014495
2335,0.000481,-0.021435,0.021737
2336,0.000481,0.012055,0.021737
2337,0.000481,-0.021435,0.003621
2338,0.000481,-0.00469,0.003621
2339,-0.01874,0.012055,-0.032611
2340,0.000481,-0.00469,-0.032611
2341,0.000481,-0.021435,-0.014495
2342,0.000481,-0.00469,-0.050727
2343,0.000481,0.012055,-0.014495
2344,-0.01874,-0.00469,0.003621
2345,0.019703,0.012055,0.057969
2346,-0.01874,0.0288,0.039853
2347,0.000481,-0.00469,0.021737
2348,0.000481,0.012055,0.003621
2349,0.000481,-0.00469,0.021737
2350,-0.01874,0.012055,0.003621
2351,0.000481,-0.00469,-0.032611
2352,0.000481,-0.00469,0.021737
2353,0.000481,0.0288,0.039853
2354,0.019703,0.012055,0.039853
2355,0.019703,0.012055,0.039853
2356,-0.037962,0.0288,0.021737
2357,0.000481,-0.00469,0.039853
2358,-0.01874,0.012055,-0.014495
2359,-0.01874,-0.00469,0.039853
2360,0.019703,0.0288,-0.014495
2361,0.000481,0.0288,0.039853
2362,0.000481,0.012055,0.039853
2363,0.000481,0.012055,0.039853
2364,0.000481,-0.00469,0.039853
2365,0.019703,-0.00469,0.003621
2366,0.000481,-0.021435,-0.014495
2367,0.000481,-0.00469,-0.014495
2368,0.000481,-0.00469,-0.014495
2369,0.000481,-0.00469,-0.050727
2370,-0.01874,-0.00469,-0.032611
2371,-0.01874,0.0288,0.039853
2372,-0.01874,-0.00469,-0.014495
2373,0.019703,-0.00469,0.021737
2374,0.000481,-0.00469,0.003621
2375,0.000481,0.012055,-0.032611
2376,0.000481,-0.00469,-0.014495
2377,-0.01874,0.012055,0.003621
2378,0.000481,0.012055,0.003621
2379,0.000481,-0.00469,-0.032611
2380,-0.01874,-0.021435,0.003621
2381,-0.01874,-0.021435,-0.014495
2382,0.000481,-0.00469,0.021737
2383,0.000481,0.012055,0.021737
2384,0.000481,-0.021435,-0.014495
2385,0.000481,0.012055,-0.032611
2386,0.000481,-0.00469,-0.014495
2387,0.000481,-0.00469,0.003621
2388,-0.01874,-0.00469,0.003621
2389,0.019703,-0.00469,0.021737
2390,0.000481,0.0288,0.021737
2391,0.000481,-0.021435,0.039853
2392,0.000481,-0.00469,0.021737
2393,-0.037962,0.0288,0.039853
2394,-0.01874,0.012055,-0.014495
2395,0.000481,0.012055,-0.014495
2396,-0.01874,0.045545,-0.050727
2397,0.000481,0.012055,0.021737
2398,0.019703,-0.021435,0.003621
2399,0.019703,-0.021435,0.003621
2400,-0.01874,0.012055,0.021737
2401,-0.01874,0.012055,0.003621
2402,-0.01874,0.012055,0.003621
2403,-0.01874,-0.00469,-0.032611
2404,-0.01874,-0.021435,0.003621
2405,-0.037962,-0.021435,-0.032611
2406,0.000481,-0.038179,-0.014495
2407,-0.01874,-0.021435,-0.014495
2408,-0.01874,-0.00469,-0.068843
2409,-0.01874,0.012055,0.021737
2410,0.000481,-0.00469,0.003621
2411,0.000481,0.0288,0.003621
2412,0.000481,0.0288,0.003621
2413,0.000481,-0.00469,-0.014495
2414,0.000481,-0.00469,-0.032611
2415,0.000481,-0.021435,0.021737
2416,-0.01874,-0.00469,0.039853
2417,-0.01874,-0.00469,0.021737
2418,0.000481,0.0288,0.057969
2419,0.000481,0.079034,0.021737
2420,-0.01874,0.0288,0.003621
2421,0.000481,-0.00469,0.039853
2422,-0.01874,-0.021435,0.003621
2423,0.000481,0.012055,-0.050727
2424,0.019703,-0.021435,0.021737
2425,0.000481,0.012055,-0.014495
2426,0.000481,-0.00469,-0.014495
2427,0.000481,0.0288,-0.032611
2428,0.058146,-0.00469,0.021737
2429,0.019703,0.012055,-0.032611
2430,-0.01874,0.012055,0.057969
2431,0.000481,0.012055,0.021737
2432,-0.01874,0.012055,-0.014495
2433,0.000481,0.012055,0.003621
2434,0.000481,0.0288,-0.050727
2435,-0.01874,-0.00469,-0.032611
2436,0.000481,-0.00469,0.039853
2437,-0.01874,-0.038179,0.003621
2438,0.000481,0.012055,0.003621
2439,0.000481,-0.021435,0.003621
2440,-0.01874,-0.021435,0.003621
2441,-0.037962,-0.00469,0.003621
2442,0.000481,-0.00469,-0.032611
2443,0.000481,-0.00469,-0.014495
2444,0.000481,0.012055,0.003621
2445,-0.01874,0.0288,0.021737
2446,-0.01874,0.012055,-0.014495
2447,-0.037962,-0.021435,-0.050727
2448,0.000481,-0.00469,-0.014495
2449,0.000481,-0.00469,-0.014495
2450,-0.01874,-0.00469,-0.014495
2451,0.000481,-0.00469,-0.014495
2452,0.000481,0.0288,-0.068843
2453,-0.037962,-0.021435,0.021737
2454,0.000481,-0.021435,0.039853
2455,0.000481,0.012055,0.003621
2456,-0.01874,0.012055,0.057969
2457,0.000481,0.012055,0.021737
2458,0.000481,-0.00469,0.021737
2459,0.019703,0.012055,0.021737
2460,0.000481,0.012055,0.021737
2461,-0.01874,-0.00469,0.021737
2462,0.000481,0.0288,0.021737
2463,0.000481,0.012055,0.057969
2464,0.000481,-0.021435,-0.014495
2465,-0.01874,-0.00469,0.003621
2466,0.000481,0.012055,0.003621
2467,-0.01874,0.012055,-0.068843
2468,0.019703,-0.021435,-0.050727
2469,0.000481,0.0288,0.021737
2470,-0.01874,-0.00469,-0.032611
2471,-0.037962,-0.00469,0.039853
2472,-0.037962,-0.00469,0.039853
2473,0.000481,-0.021435,0.039853
2474,0.019703,0.012055,0.021737
2475,0.019703,-0.00469,0.003621
2476,0.000481,-0.038179,0.021737
2477,0.000481,0.0288,0.003621
2478,0.000481,-0.00469,-0.032611
2479,0.000481,0.012055,-0.014495
2480,-0.01874,-0.00469,-0.014495
2481,-0.037962,-0.00469,0.003621
2482,0.000481,-0.00469,-0.050727
2483,0.000481,-0.021435,0.021737
2484,0.019703,-0.021435,0.003621
2485,0.000481,0.012055,0.003621
2486,0.000481,-0.00469,-0.032611
2487,0.000481,0.012055,-0.032611
2488,0.038924,-0.00469,0.003621
2489,0.000481,0.0288,0.039853
2490,0.000481,0.0288,0.057969
2491,-0.037962,-0.00469,-0.014495
2492,0.019703,0.012055,-0.014495
2493,0.000481,-0.00469,0.003621
2494,0.000481,-0.00469,0.021737
2495,0.058146,-0.00469,-0.014495
2496,0.000481,-0.00469,0.003621
2497,0.000481,0.012055,-0.050727
2498,0.000481,0.0288,0.003621
2499,0.000481,-0.021435,0.021737
2500,-0.01874,-0.021435,-0.014495
2501,0.000481,0.012055,-0.014495
2502,0.000481,0.012055,0.003621
2503,-0.01874,-0.00469,-0.014495
2504,-0.037962,0.012055,-0.032611
2505,0.000481,0.012055,-0.014495
2506,-0.01874,0.012055,0.003621
2507,0.000481,0.012055,0.003621
2508,0.000481,-0.00469,0.057969
2509,0.000481,-0.021435,-0.014495
2510,0.000481,-0.038179,0.039853
2511,0.019703,-0.021435,0.039853
2512,-0.01874,0.012055,0.003621
2513,-0.01874,-0.00469,0.021737
2514,0.000481,-0.00469,0.003621
2515,0.019703,-0.00469,-0.014495
2516,0.019703,0.0288,0.003621
2517,0.019703,-0.00469,0.003621
2518,0.038924,0.012055,-0.068843
2519,0.019703,-0.00469,-0.050727
2520,0.000481,-0.021435,-0.014495
2521,-0.01874,-0.00469,-0.068843
2522,-0.01874,-0.00469,-0.050727
2523,-0.01874,-0.00469,-0.068843
2524,-0.01874,0.012055,-0.032611
2525,-0.01874,0.012055,-0.014495
2526,0.019703,-0.00469,0.021737
2527,0.000481,-0.00469,-0.032611
2528,0.000481,0.012055,-0.014495
2529,-0.057183,-0.00469,-0.032611
2530,-0.01874,-0.021435,-0.032611
2531,-0.01874,-0.021435,0.021737
2532,-0.01874,-0.00469,-0.014495
2533,0.000481,-0.00469,-0.014495
2534,0.000481,-0.00469,-0.014495
2535,0.000481,-0.00469,0.057969
2536,-0.01874,0.0288,0.076085
2537,-0.01874,0.045545,0.057969
2538,-0.01874,0.0288,0.094201
2539,-0.01874,0.012055,0.057969
2540,0.000481,0.012055,0.076085
2541,0.019703,0.0288,0.021737
2542,0.000481,0.012055,-0.014495
2543,0.000481,-0.00469,-0.032611
2544,0.000481,-0.00469,-0.105075
2545,0.000481,-0.00469,-0.050727
2546,0.019703,-0.038179,-0.105075
2547,0.019703,-0.054924,-0.123191
2548,-0.037962,-0.038179,-0.141307
2549,-0.037962,-0.00469,-0.105075
2550,-0.01874,-0.021435,-0.086959
2551,0.000481,0.012055,-0.014495
2552,-0.01874,-0.00469,0.057969
2553,0.000481,-0.00469,0.112317
2554,-0.01874,-0.00469,0.184781
2555,0.000481,0.0288,0.221013
2556,0.019703,0.045545,0.166665
2557,0.038924,0.0288,0.112317
2558,-0.01874,0.045545,0.130433
2559,-0.01874,0.012055,0.076085
2560,0.000481,0.0288,0.057969
2561,-0.01874,0.0288,0.021737
2562,-0.01874,0.0288,0.003621
2563,0.000481,0.0288,0.021737
2564,-0.01874,-0.00469,0.021737
2565,-0.01874,0.012055,-0.050727
2566,0.000481,0.012055,0.021737
2567,0.000481,-0.00469,0.003621
2568,0.000481,0.0288,-0.014495
2569,0.000481,0.0288,-0.050727
2570,0.019703,-0.00469,-0.014495
2571,0.019703,0.012055,-0.050727
2572,0.000481,-0.00469,-0.032611
2573,-0.01874,0.012055,0.021737
2574,-0.01874,-0.021435,-0.032611
2575,-0.01874,0.012055,-0.014495
2576,0.000481,-0.00469,-0.050727
2577,0.000481,-0.00469,-0.050727
2578,0.019703,0.0288,-0.050727
2579,0.019703,-0.021435,-0.014495
2580,-0.01874,-0.00469,-0.032611
2581,-0.01874,-0.00469,0.003621
2582,-0.01874,-0.00469,0.021737
2583,0.019703,-0.021435,-0.014495
2584,0.000481,-0.021435,-0.014495
2585,0.000481,-0.00469,-0.014495
2586,-0.01874,0.079034,-0.050727
2587,-0.01874,-0.00469,-0.032611
2588,0.000481,-0.00469,-0.032611
2589,-0.037962,-0.00469,0.003621
2590,-0.01874,-0.00469,-0.032611
2591,-0.01874,-0.021435,0.039853
2592,0.000481,-0.00469,0.003621
2593,-0.01874,-0.00469,0.039853
2594,-0.01874,-0.00469,-0.014495
2595,-0.01874,-0.00469,-0.032611
2596,0.019703,-0.00469,-0.032611
2597,-0.01874,-0.021435,-0.032611
2598,0.000481,0.012055,-0.050727
2599,0.000481,-0.00469,0.003621
2600,-0.01874,0.012055,0.039853
2601,-0.037962,-0.00469,-0.014495
2602,0.000481,-0.00469,0.021737
2603,0.000481,0.012055,-0.014495
2604,0.019703,0.0288,-0.032611
2605,0.019703,0.012055,-0.032611
2606,0.000481,-0.00469,-0.050727
2607,0.019703,0.012055,-0.014495
2608,-0.057183,-0.021435,0.021737
2609,0.000481,-0.00469,0.021737
2610,-0.037962,0.012055,0.003621
2611,-0.01874,0.012055,0.039853
2612,-0.01874,-0.00469,0.003621
2613,0.000481,-0.00469,-0.032611
2614,0.000481,-0.00469,0.003621
2615,-0.01874,0.0288,0.003621
2616,-0.01874,-0.00469,-0.014495
2617,0.000481,-0.00469,0.003621
2618,0.000481,0.012055,0.057969
2619,0.000481,-0.00469,0.021737
2620,-0.01874,-0.00469,0.021737
2621,0.000481,0.012055,-0.032611
2622,0.000481,-0.00469,-0.050727
2623,0.000481,-0.00469,0.003621
2624,-0.01874,0.012055,-0.050727
2625,0.000481,-0.00469,-0.014495
2626,0.019703,0.079034,0.039853
2627,0.000481,0.012055,0.003621
2628,0.000481,0.0288,0.021737
2629,-0.01874,-0.021435,-0.014495
2630,-0.01874,-0.021435,0.003621
2631,0.000481,0.012055,-0.068843
2632,-0.01874,0.012055,-0.014495
2633,-0.01874,-0.00469,-0.068843
2634,0.000481,-0.00469,-0.014495
2635,0.019703,-0.00469,-0.032611
2636,-0.01874,-0.00469,-0.014495
2637,-0.01874,-0.00469,0.021737
2638,0.000481,-0.00469,0.021737
2639,0.000481,0.012055,-0.032611
2640,-0.01874,-0.00469,-0.050727
2641,-0.01874,-0.00469,-0.014495
2642,0.000481,-0.00469,-0.068843
2643,0.000481,-0.021435,0.003621
2644,0.019703,0.0288,0.039853
2645,-0.01874,-0.038179,0.003621
2646,0.000481,-0.00469,0.039853
2647,0.019703,0.0288,0.021737
2648,0.019703,0.0288,0.039853
2649,0.019703,0.0288,0.003621
2650,0.000481,-0.00469,-0.014495
2651,0.000481,0.012055,-0.014495
2652,0.000481,-0.00469,0.021737
2653,0.000481,0.012055,0.039853
2654,-0.01874,0.012055,0.021737
2655,-0.01874,-0.00469,0.039853
2656,-0.01874,-0.00469,0.021737
2657,0.000481,0.012055,0.003621
2658,-0.01874,-0.00469,-0.032611
2659,0.000481,-0.00469,-0.014495
2660,-0.01874,-0.00469,-0.050727
2661,-0.01874,-0.00469,-0.014495
2662,-0.037962,0.012055,0.021737
2663,0.000481,-0.00469,-0.014495
2664,0.000481,-0.00469,0.003621
2665,0.019703,-0.021435,-0.014495
2666,0.000481,-0.00469,-0.014495
2667,-0.01874,0.012055,0.021737
2668,-0.01874,-0.00469,-0.014495
2669,-0.01874,0.012055,0.039853
2670,-0.01874,-0.00469,-0.014495
2671,-0.01874,0.012055,0.021737
2672,0.000481,-0.00469,0.039853
2673,-0.01874,0.012055,0.021737
2674,0.000481,0.012055,0.003621
2675,0.000481,-0.00469,-0.050727
2676,0.019703,0.012055,-0.014495
2677,-0.01874,-0.00469,-0.014495
2678,0.019703,0.012055,-0.014495
2679,0.019703,0.012055,0.039853
2680,0.000481,0.012055,0.003621
2681,0.000481,0.012055,0.003621
2682,-0.01874,-0.00469,0.039853
2683,-0.01874,0.012055,-0.014495
2684,0.000481,0.012055,-0.032611
2685,-0.01874,-0.00469,-0.014495
2686,-0.01874,-0.00469,-0.050727
2687,-0.01874,-0.00469,0.003621
2688,0.000481,0.012055,0.039853
2689,-0.01874,0.012055,0.021737
2690,0.000481,0.0288,0.039853
2691,0.000481,-0.00469,0.039853
2692,0.000481,-0.00469,0.003621
2693,0.019703,0.012055,0.003621
2694,0.000481,0.012055,-0.014495
2695,-0.037962,-0.00469,-0.032611
2696,-0.037962,0.012055,0.003621
2697,-0.01874,-0.00469,0.003621
2698,-0.01874,0.0288,0.003621
2699,0.000481,-0.00469,0.094201
2700,-0.01874,-0.00469,-0.014495
2701,0.000481,-0.00469,-0.050727
2702,0.000481,-0.038179,-0.050727
2703,-0.01874,-0.021435,-0.032611
2704,-0.01874,-0.021435,-0.068843
2705,-0.01874,-0.00469,-0.032611
2706,0.000481,0.012055,0.003621
2707,0.019703,0.0288,0.021737
2708,0.019703,0.0288,0.094201
2709,0.000481,0.0288,0.094201
2710,0.000481,0.0288,0.021737
2711,-0.01874,-0.00469,0.003621
2712,0.000481,0.012055,0.039853
2713,0.019703,-0.00469,0.003621
2714,0.019703,0.012055,0.039853
2715,0.000481,0.012055,0.021737
2716,-0.01874,0.012055,0.003621
2717,-0.01874,0.0288,0.039853
2718,0.000481,-0.00469,0.039853
2719,0.019703,-0.00469,0.003621
2720,-0.01874,-0.00469,-0.068843
2721,0.000481,-0.00469,-0.050727
2722,0.000481,0.012055,-0.032611
2723,0.019703,-0.00469,0.003621
2724,0.000481,0.012055,0.021737
2725,-0.01874,-0.021435,0.021737
2726,-0.01874,0.012055,0.039853
2727,0.000481,0.012055,0.003621
2728,0.000481,0.012055,-0.032611
2729,0.000481,-0.00469,0.021737
2730,0.000481,0.012055,-0.068843
2731,0.000481,-0.038179,-0.068843
2732,-0.01874,-0.00469,-0.014495
2733,-0.01874,-0.00469,0.039853
2734,0.000481,0.012055,-0.014495
2735,0.000481,0.012055,0.003621
2736,0.000481,-0.021435,0.003621
2737,-0.037962,-0.00469,-0.032611
2738,0.000481,-0.00469,0.003621
2739,-0.01874,0.012055,-0.014495
2740,-0.01874,-0.00469,-0.032611
2741,0.000481,-0.038179,0.039853
2742,-0.037962,0.012055,0.039853
2743,0.000481,-0.00469,0.021737
2744,-0.037962,-0.00469,0.021737
2745,-0.01874,0.012055,0.003621
2746,0.019703,0.012055,-0.032611
2747,0.000481,0.012055,-0.014495
2748,0.019703,-0.021435,0.003621
2749,0.000481,0.012055,-0.032611
2750,0.000481,-0.00469,0.003621
2751,0.000481,-0.00469,-0.032611
2752,0.000481,-0.00469,-0.032611
2753,-0.01874,-0.021435,0.021737
2754,-0.01874,-0.00469,-0.014495
2755,0.000481,-0.021435,-0.050727
2756,-0.037962,0.012055,-0.032611
2757,0.000481,0.012055,-0.032611
2758,-0.01874,-0.021435,-0.050727
2759,0.000481,0.0288,-0.050727
2760,0.000481,-0.00469,-0.050727
2761,-0.01874,-0.00469,0.003621
2762,-0.01874,0.0288,0.057969
2763,-0.01874,0.012055,0.039853
2764,0.000481,0.0288,0.021737
2765,-0.01874,-0.00469,0.039853
2766,-0.01874,0.0288,0.039853
2767,0.000481,0.012055,0.003621
2768,0.019703,-0.00469,0.039853
2769,0.000481,-0.00469,-0.032611
2770,0.019703,-0.00469,0.021737
2771,0.019703,0.012055,0.039853
2772,-0.01874,-0.00469,0.003621
2773,-0.01874,0.012055,0.039853
2774,-0.01874,0.012055,-0.032611
2775,-0.01874,-0.00469,-0.032611
2776,0.019703,-0.00469,-0.050727
2777,0.000481,-0.00469,-0.014495
2778,-0.01874,0.012055,-0.014495
2779,-0.01874,0.012055,0.003621
2780,0.000481,-0.00469,0.021737
2781,0.000481,0.012055,-0.032611
2782,0.019703,0.012055,0.021737
2783,0.000481,0.045545,0.003621
2784,0.000481,0.012055,-0.032611
2785,0.000481,-0.021435,-0.014495
2786,-0.01874,-0.021435,0.021737
2787,-0.01874,-0.021435,-0.032611
2788,0.000481,0.012055,0.003621
2789,-0.01874,-0.00469,0.021737
2790,-0.01874,-0.00469,0.003621
2791,-0.01874,-0.00469,0.021737
2792,0.019703,-0.00469,-0.014495
2793,0.000481,0.079034,-0.014495
2794,0.000481,-0.00469,-0.014495
2795,-0.01874,0.012055,-0.014495
2796,-0.01874,0.012055,-0.032611
2797,0.000481,-0.00469,0.003621
2798,0.000481,-0.021435,0.039853
2799,0.000481,0.0288,0.021737
2800,0.000481,0.012055,0.003621
2801,-0.01874,-0.00469,0.003621
2802,-0.01874,0.012055,-0.014495
2803,0.019703,0.012055,0.003621
2804,0.000481,-0.00469,-0.032611
2805,0.000481,-0.021435,-0.032611
2806,0.019703,-0.021435,-0.014495
2807,-0.01874,0.012055,0.039853
2808,0.000481,0.012055,0.003621
2809,0.000481,0.012055,0.021737
2810,0.019703,0.012055,-0.014495
2811,-0.01874,0.012055,-0.032611
2812,0.000481,-0.00469,-0.014495
2813,-0.01874,0.012055,-0.032611
2814,0.000481,-0.021435,0.021737
2815,-0.01874,0.0288,0.003621
2816,0.019703,0.0288,0.039853
2817,0.000481,-0.00469,-0.014495
2818,0.019703,0.012055,0.021737
2819,0.000481,0.012055,-0.014495
2820,0.000481,-0.021435,-0.014495
2821,0.000481,-0.00469,0.039853
2822,0.000481,-0.021435,-0.032611
2823,-0.01874,0.012055,-0.014495
2824,-0.01874,0.012055,-0.014495
2825,0.000481,0.0288,0.003621
2826,0.019703,0.0288,-0.014495
2827,0.000481,-0.00469,0.021737
2828,-0.01874,0.012055,0.003621
2829,0.000481,-0.038179,-0.014495
2830,-0.01874,-0.021435,0.021737
2831,-0.01874,-0.00469,0.003621
2832,0.000481,0.0288,0.039853
2833,0.038924,0.0288,0.039853
2834,0.000481,0.0288,0.076085
2835,0.019703,0.012055,0.076085
2836,-0.037962,0.012055,0.076085
2837,0.000481,0.0288,0.021737
2838,0.000481,0.012055,-0.032611
2839,-0.01874,-0.00469,-0.014495
2840,-0.037962,0.0288,-0.050727
2841,0.000481,-0.021435,0.039853
2842,-0.01874,-0.021435,0.003621
2843,0.000481,0.0288,0.021737
2844,0.000481,0.012055,0.039853
2845,0.019703,-0.00469,0.021737
2846,0.019703,-0.00469,0.021737
2847,0.019703,-0.00469,-0.050727
2848,0.000481,-0.021435,0.003621
2849,0.000481,-0.038179,0.003621
2850,0.000481,-0.00469,-0.014495
2851,0.000481,0.0288,0.021737
2852,-0.037962,0.012055,0.003621
2853,-0.037962,-0.038179,0.003621
2854,0.000481,-0.00469,0.003621
2855,0.019703,0.012055,-0.032611
2856,-0.01874,0.012055,-0.014495
2857,0.000481,-0.00469,0.003621
2858,-0.01874,-0.00469,-0.014495
2859,0.019703,0.012055,0.021737
2860,0.019703,-0.00469,0.021737
2861,0.000481,0.012055,0.003621
2862,-0.01874,-0.00469,0.021737
2863,0.000481,-0.00469,0.021737
2864,-0.01874,0.012055,0.003621
2865,0.019703,-0.021435,-0.050727
2866,0.019703,0.045545,0.003621
2867,0.000481,-0.00469,-0.032611
2868,0.000481,0.079034,0.003621
2869,-0.01874,-0.00469,0.021737
2870,-0.01874,0.012055,0.003621
2871,-0.037962,0.045545,0.021737
2872,-0.01874,0.012055,0.003621
2873,-0.01874,-0.038179,-0.014495
2874,-0.01874,0.0288,-0.050727
2875,0.019703,-0.00469,-0.032611
2876,0.019703,0.012055,-0.032611
2877,0.019703,-0.021435,0.021737
2878,0.038924,-0.021435,0.021737
2879,0.000481,-0.00469,0.003621
2880,-0.01874,0.012055,0.021737
2881,-0.01874,-0.021435,-0.014495
2882,-0.01874,-0.021435,-0.014495
2883,-0.037962,-0.00469,-0.014495
2884,-0.01874,-0.00469,-0.014495
2885,0.000481,-0.00469,-0.014495
2886,0.000481,0.012055,0.021737
2887,0.019703,0.012055,0.039853
2888,0.000481,-0.00469,-0.014495
2889,0.000481,0.012055,0.039853
2890,-0.01874,0.012055,0.003621
2891,-0.01874,0.0288,-0.014495
2892,0.000481,0.0288,-0.014495
2893,-0.037962,0.0288,-0.014495
2894,0.000481,-0.00469,-0.050727
2895,-0.01874,0.0288,-0.014495
2896,0.019703,0.012055,0.003621
2897,0.000481,0.045545,0.003621
2898,0.019703,0.012055,0.039853
2899,0.000481,0.012055,0.003621
2900,0.000481,-0.00469,-0.014495
2901,-0.057183,-0.00469,0.003621
2902,-0.01874,0.0288,-0.014495
2903,0.000481,-0.00469,-0.032611
2904,0.019703,-0.00469,0.003621
2905,0.000481,0.012055,-0.032611
2906,-0.01874,-0.00469,0.003621
2907,0.000481,-0.00469,0.021737
2908,0.038924,-0.00469,-0.032611
2909,0.000481,-0.00469,-0.014495
2910,0.019703,-0.021435,-0.014495
2911,0.019703,0.012055,-0.032611
2912,0.000481,0.045545,-0.032611
2913,0.019703,-0.00469,-0.032611
2914,0.000481,-0.00469,-0.014495
2915,0.019703,-0.00469,0.003621
2916,0.000481,-0.00469,0.021737
2917,-0.01874,0.045545,-0.014495
2918,-0.01874,-0.00469,-0.050727
2919,-0.01874,0.012055,-0.014495
2920,-0.01874,-0.021435,-0.032611
2921,0.000481,-0.021435,-0.032611
2922,-0.01874,-0.00469,-0.014495
2923,0.019703,-0.00469,-0.050727
2924,0.000481,0.012055,0.003621
2925,0.019703,0.012055,-0.014495
2926,0.019703,-0.021435,0.003621
2927,0.019703,0.012055,0.003621
2928,0.000481,-0.00469,0.003621
2929,0.019703,0.012055,-0.032611
2930,-0.01874,-0.00469,-0.032611
2931,0.000481,0.012055,0.003621
2932,0.000481,0.0288,-0.050727
2933,-0.01874,0.012055,0.003621
2934,-0.01874,-0.00469,0.039853
2935,-0.01874,0.012055,-0.032611
2936,-0.01874,0.012055,0.039853
2937,-0.01874,0.012055,-0.032611
2938,-0.037962,0.012055,-0.032611
2939,-0.01874,-0.00469,-0.014495
2940,0.000481,0.012055,0.021737
2941,0.000481,0.012055,-0.032611
2942,-0.01874,0.012055,0.003621
2943,0.000481,0.012055,0.039853
2944,0.000481,-0.00469,0.003621
2945,-0.037962,-0.00469,0.039853
2946,0.000481,0.012055,0.003621
2947,-0.01874,0.045545,-0.014495
2948,0.000481,0.012055,0.003621
2949,0.000481,-0.00469,-0.050727
2950,0.000481,-0.021435,-0.032611
2951,0.019703,0.012055,0.003621
2952,-0.037962,-0.00469,0.039853
2953,-0.01874,0.012055,0.003621
2954,-0.01874,-0.00469,-0.014495
2955,0.000481,0.012055,0.003621
2956,-0.037962,-0.021435,-0.050727
2957,-0.037962,0.012055,-0.032611
2958,-0.01874,0.0288,-0.014495
2959,0.000481,0.045545,-0.050727
2960,0.000481,0.012055,-0.032611
2961,-0.01874,-0.021435,0.021737
2962,0.000481,-0.00469,-0.014495
2963,-0.076405,-0.00469,0.039853
2964,-0.01874,-0.00469,-0.032611
2965,-0.037962,0.012055,-0.014495
2966,0.019703,-0.00469,-0.032611
2967,-0.037962,0.012055,-0.032611
2968,-0.037962,0.012055,-0.014495
2969,0.000481,0.012055,0.021737
2970,0.019703,-0.021435,0.021737
2971,0.000481,-0.00469,-0.014495
2972,0.000481,-0.00469,-0.014495
2973,0.019703,0.012055,0.003621
2974,0.000481,-0.00469,-0.014495
2975,-0.01874,0.012055,-0.014495
2976,0.000481,-0.00469,-0.014495
2977,0.000481,-0.00469,-0.032611
2978,0.000481,0.012055,0.021737
2979,0.019703,-0.00469,0.039853
2980,-0.01874,0.012055,0.021737
2981,0.000481,-0.021435,0.021737
2982,-0.01874,0.0288,0.003621
2983,0.019703,0.012055,-0.032611
2984,0.000481,-0.00469,-0.068843
2985,-0.01874,0.012055,-0.032611
2986,-0.01874,-0.00469,-0.032611
2987,-0.01874,-0.00469,0.021737
2988,0.000481,0.012055,0.021737
2989,0.000481,0.012055,-0.014495
2990,0.000481,-0.00469,0.021737
2991,0.000481,-0.00469,0.021737
2992,0.000481,-0.00469,-0.050727
2993,-0.01874,-0.00469,0.003621
2994,0.019703,-0.00469,-0.014495
2995,0.000481,-0.00469,-0.032611
2996,0.000481,-0.00469,0.003621
2997,0.019703,-0.021435,0.021737
2998,0.000481,-0.00469,0.003621
2999,0.019703,-0.00469,0.003621
3000,0.000481,0.012055,0.003621
3001,-0.01874,-0.00469,-0.032611
3002,0.000481,-0.00469,0.003621
3003,-0.01874,0.012055,-0.014495
3004,0.000481,-0.00469,-0.032611
3005,0.000481,0.012055,0.021737
3006,0.000481,-0.00469,0.021737
3007,0.000481,0.012055,0.003621
3008,0.019703,-0.021435,0.039853
3009,0.000481,-0.00469,0.003621
3010,-0.01874,-0.00469,0.003621
3011,-0.01874,-0.00469,-0.014495
3012,-0.01874,0.012055,-0.014495
3013,0.000481,0.012055,-0.032611
3014,0.000481,-0.00469,0.003621
3015,0.019703,-0.00469,0.003621
3016,0.000481,-0.00469,-0.014495
3017,-0.01874,-0.00469,0.057969
3018,-0.01874,0.012055,-0.014495
3019,-0.01874,0.0288,0.003621
3020,-0.01874,-0.021435,-0.014495
3021,-0.037962,-0.00469,-0.032611
3022,-0.01874,-0.00469,-0.014495
3023,-0.01874,-0.00469,0.021737
3024,-0.01874,-0.00469,-0.032611
3025,0.019703,0.012055,-0.014495
3026,0.019703,0.012055,0.057969
3027,0.038924,0.0288,-0.014495
3028,-0.01874,0.012055,-0.032611
3029,0.000481,-0.00469,-0.014495
3030,0.019703,0.012055,-0.032611
3031,0.000481,0.0288,-0.050727
3032,0.019703,0.012055,-0.014495
3033,-0.01874,0.012055,-0.014495
3034,0.019703,0.012055,0.003621
3035,0.000481,-0.021435,0.039853
3036,0.019703,-0.00469,-0.014495
3037,0.000481,0.012055,-0.050727
3038,0.000481,0.012055,-0.032611
3039,0.000481,0.012055,-0.014495
3040,-0.01874,-0.00469,-0.032611
3041,0.000481,0.012055,0.021737
3042,0.019703,0.012055,-0.014495
3043,0.019703,0.012055,0.003621
3044,0.000481,-0.00469,0.021737
3045,0.000481,-0.00469,0.003621
3046,0.000481,-0.00469,0.021737
3047,-0.01874,-0.00469,0.003621
3048,-0.01874,0.0288,-0.032611
3049,-0.01874,-0.00469,-0.014495
3050,0.000481,-0.038179,0.021737
3051,0.000481,0.012055,-0.032611
3052,-0.01874,0.012055,-0.014495
3053,0.000481,-0.00469,0.057969
3054,0.000481,0.012055,0.003621
3055,0.000481,0.012055,0.003621
3056,0.000481,-0.00469,0.003621
3057,0.000481,-0.00469,-0.014495
3058,0.000481,0.0288,-0.032611
3059,-0.01874,0.012055,-0.014495
3060,0.019703,0.012055,-0.050727
3061,0.019703,-0.021435,-0.032611
3062,0.000481,0.012055,0.021737
3063,0.000481,0.012055,-0.014495
3064,-0.037962,0.012055,0.003621
3065,-0.037962,0.012055,0.003621
3066,-0.01874,-0.00469,-0.032611
3067,-0.01874,-0.021435,-0.032611
3068,-0.01874,0.012055,-0.032611
3069,-0.037962,-0.021435,-0.032611
3070,-0.01874,0.0288,-0.014495
3071,-0.01874,-0.00469,0.021737
3072,0.019703,-0.00469,-0.014495
3073,0.000481,-0.00469,0.039853
3074,0.000481,-0.00469,-0.014495
3075,-0.01874,0.012055,-0.032611
3076,0.000481,-0.00469,-0.050727
3077,0.000481,-0.00469,-0.050727
3078,0.000481,-0.021435,-0.050727
3079,-0.01874,-0.00469,-0.014495
3080,-0.037962,-0.021435,0.039853
3081,0.000481,0.012055,0.003621
3082,0.000481,0.0288,0.039853
3083,0.019703,-0.00469,0.003621
3084,0.000481,0.012055,-0.032611
3085,0.000481,0.0288,0.003621
3086,-0.01874,0.0288,0.003621
3087,0.000481,0.012055,-0.050727
3088,-0.01874,0.0288,0.003621
3089,0.019703,0.0288,0.021737
3090,-0.01874,-0.00469,0.003621
3091,0.000481,-0.00469,0.021737
3092,0.000481,0.012055,-0.014495
3093,0.019703,-0.00469,-0.032611
3094,0.000481,0.012055,0.003621
3095,0.000481,0.012055,-0.014495
3096,0.000481,-0.00469,0.003621
3097,0.000481,0.012055,0.003621
3098,0.000481,0.012055,0.039853
3099,-0.01874,-0.00469,0.003621
3100,-0.01874,-0.00469,0.003621
3101,0.000481,0.012055,-0.014495
3102,0.000481,0.012055,-0.050727
3103,0.019703,-0.021435,-0.050727
3104,0.038924,0.012055,-0.032611
3105,0.000481,0.012055,-0.050727
3106,0.000481,-0.00469,0.003621
3107,0.000481,-0.00469,0.039853
3108,-0.01874,-0.00469,0.003621
3109,0.000481,-0.00469,0.021737
3110,0.000481,0.012055,-0.014495
3111,-0.01874,-0.00469,-0.014495
3112,-0.01874,0.012055,0.003621
3113,-0.01874,-0.00469,-0.032611
3114,-0.01874,0.012055,-0.014495
3115,0.019703,-0.00469,0.003621
3116,0.000481,0.012055,0.094201
3117,0.000481,0.012055,0.021737
3118,-0.01874,-0.021435,0.021737
3119,0.000481,-0.00469,0.021737
3120,0.000481,-0.021435,-0.014495
3121,0.000481,0.012055,0.039853
3122,0.019703,0.012055,-0.032611
3123,0.019703,-0.00469,-0.014495
3124,0.019703,0.012055,0.003621
3125,0.019703,0.012055,0.039853
3126,0.000481,0.012055,0.003621
3127,-0.01874,-0.00469,0.039853
3128,0.000481,0.012055,0.003621
3129,0.000481,0.012055,-0.032611
3130,0.000481,0.012055,0.003621
3131,0.000481,-0.00469,-0.014495
3132,0.019703,0.012055,-0.032611
3133,0.000481,-0.021435,0.003621
3134,-0.01874,-0.021435,-0.014495
3135,0.000481,-0.00469,0.003621
3136,0.019703,0.012055,0.039853
3137,0.019703,0.012055,0.003621
3138,0.019703,0.012055,-0.014495
3139,0.019703,-0.00469,0.003621
3140,0.000481,-0.00469,-0.032611
3141,-0.01874,-0.00469,0.003621
3142,-0.037962,-0.00469,0.021737
3143,-0.037962,0.012055,0.003621
3144,-0.01874,-0.00469,-0.014495
3145,0.000481,-0.00469,0.057969
3146,0.000481,0.012055,-0.014495
3147,0.019703,-0.00469,-0.014495
3148,0.019703,0.012055,0.021737
3149,0.019703,0.012055,-0.032611
3150,0.000481,-0.00469,0.003621
3151,0.019703,0.012055,0.003621
3152,0.000481,-0.00469,0.021737
3153,0.000481,0.012055,0.003621
3154,-0.01874,-0.00469,0.003621
3155,0.019703,0.0288,-0.014495
3156,-0.01874,0.0288,-0.014495
3157,0.000481,-0.00469,-0.014495
3158,-0.01874,0.012055,-0.014495
3159,-0.01874,-0.00469,-0.014495
3160,-0.01874,-0.00469,0.003621
3161,-0.01874,0.012055,-0.014495
3162,0.000481,-0.00469,0.021737
3163,-0.01874,0.079034,0.021737
3164,-0.01874,0.012055,0.003621
3165,0.000481,-0.00469,0.039853
3166,-0.037962,-0.021435,0.003621
3167,-0.01874,-0.00469,-0.014495
3168,-0.01874,0.012055,-0.032611
3169,0.000481,-0.00469,0.003621
3170,0.000481,0.012055,-0.014495
3171,0.000481,-0.00469,0.003621
3172,0.000481,-0.00469,0.003621
3173,-0.037962,0.012055,0.003621
3174,0.019703,0.012055,0.003621
3175,0.019703,0.0288,-0.014495
3176,0.000481,0.012055,-0.032611
3177,0.000481,0.012055,-0.032611
3178,0.000481,-0.00469,-0.014495
3179,-0.01874,-0.00469,-0.032611
3180,0.000481,0.012055,0.039853
3181,0.000481,0.012055,0.021737
3182,-0.01874,-0.00469,0.003621
3183,0.000481,-0.00469,0.003621
3184,0.000481,0.012055,0.021737
3185,0.019703,-0.00469,-0.032611
3186,0.000481,-0.00469,-0.014495
3187,0.019703,0.012055,-0.050727
3188,-0.01874,0.012055,-0.032611
3189,-0.037962,-0.00469,0.003621
3190,-0.01874,0.012055,0.039853
3191,0.000481,-0.00469,0.003621
3192,-0.01874,0.012055,0.039853
3193,0.000481,-0.00469,0.021737
3194,-0.01874,0.012055,-0.014495
3195,-0.01874,-0.00469,-0.014495
3196,0.000481,0.0288,-0.014495
3197,0.000481,0.0288,-0.014495
3198,0.000481,-0.00469,0.021737
3199,-0.01874,-0.00469,0.021737
3200,0.000481,-0.00469,0.003621
3201,-0.01874,0.012055,0.003621
3202,-0.01874,-0.00469,0.003621
3203,0.019703,-0.00469,-0.032611
3204,-0.037962,0.012055,-0.050727
3205,-0.01874,-0.00469,-0.014495
3206,-0.01874,-0.00469,-0.050727
3207,-0.01874,-0.00469,0.003621
3208,0.000481,0.012055,0.021737
3209,0.000481,0.0288,0.003621
3210,0.019703,-0.00469,0.057969
3211,0.000481,-0.00469,0.003621
3212,0.019703,-0.021435,-0.032611
3213,-0.037962,-0.00469,-0.032611
3214,0.000481,0.0288,0.003621
3215,-0.037962,-0.00469,-0.032611
3216,-0.01874,-0.038179,0.003621
3217,0.000481,-0.021435,0.039853
3218,-0.01874,0.045545,0.003621
3219,-0.01874,-0.021435,0.021737
3220,0.000481,-0.00469,0.003621
3221,0.000481,0.012055,-0.050727
3222,0.019703,0.0288,0.003621
3223,0.038924,0.0288,-0.032611
3224,0.000481,-0.00469,-0.032611
3225,0.000481,-0.021435,0.003621
3226,0.000481,-0.00469,0.094201
3227,-0.01874,0.012055,0.003621
3228,-0.01874,0.012055,0.039853
3229,-0.01874,-0.00469,0.003621
3230,-0.037962,-0.00469,-0.014495
3231,-0.037962,0.012055,0.021737
3232,-0.037962,-0.021435,0.003621
3233,0.000481,0.012055,-0.032611
3234,0.000481,0.012055,0.003621
3235,0.019703,0.0288,0.057969
3236,-0.01874,0.0288,0.021737
3237,-0.01874,0.0288,0.021737
3238,-0.01874,0.0288,0.003621
3239,0.019703,-0.00469,0.003621
3240,0.000481,0.012055,-0.014495
3241,0.000481,-0.00469,-0.032611
3242,0.019703,-0.021435,-0.050727
3243,0.000481,0.012055,-0.014495
3244,-0.01874,0.012055,-0.050727
3245,0.000481,0.0288,0.021737
3246,0.019703,-0.00469,0.076085
3247,0.000481,-0.00469,0.021737
3248,0.000481,-0.00469,-0.014495
3249,0.019703,-0.021435,0.021737
3250,0.000481,-0.00469,0.021737
3251,-0.01874,0.012055,-0.050727
3252,0.019703,-0.00469,0.039853
3253,-0.037962,-0.00469,-0.032611
3254,0.000481,-0.00469,0.003621
3255,0.019703,0.012055,0.021737
3256,0.038924,0.012055,0.003621
3257,0.038924,-0.00469,-0.014495
3258,0.000481,-0.00469,0.003621
3259,0.000481,-0.038179,-0.032611
3260,0.019703,-0.00469,-0.014495
3261,0.000481,-0.00469,0.021737
3262,-0.01874,0.0288,-0.014495
3263,-0.037962,0.012055,0.021737
3264,0.000481,-0.021435,0.021737
3265,0.000481,0.012055,0.021737
3266,0.019703,0.012055,0.021737
3267,-0.01874,0.012055,-0.014495
3268,0.019703,-0.00469,-0.014495
3269,-0.01874,0.012055,-0.014495
3270,-0.01874,-0.00469,0.003621
3271,0.000481,-0.038179,-0.032611
3272,0.000481,-0.00469,0.003621
3273,0.000481,-0.00469,0.021737
3274,-0.01874,0.012055,0.003621
3275,0.019703,0.012055,0.021737
3276,0.000481,-0.00469,0.003621
3277,0.000481,0.0288,-0.014495
3278,-0.01874,-0.00469,-0.032611
3279,-0.037962,-0.00469,-0.014495
3280,-0.01874,-0.00469,-0.050727
3281,-0.01874,0.012055,0.021737
3282,0.000481,0.012055,0.039853
3283,0.000481,-0.00469,0.039853
3284,0.000481,0.045545,0.021737
3285,0.000481,0.012055,0.003621
3286,0.019703,0.0288,-0.014495
3287,-0.01874,-0.00469,-0.014495
3288,-0.01874,-0.021435,-0.014495
3289,0.000481,-0.021435,-0.032611
3290,0.019703,0.0288,0.021737
3291,-0.01874,-0.00469,0.021737
3292,-0.01874,-0.00469,0.021737
3293,0.019703,0.045545,0.039853
3294,-0.01874,0.012055,0.003621
3295,-0.01874,-0.00469,0.003621
3296,0.000481,-0.00469,-0.050727
3297,-0.01874,0.012055,0.021737
3298,0.000481,-0.021435,-0.032611
3299,0.000481,0.012055,-0.014495
3300,0.000481,0.045545,0.021737
3301,0.000481,-0.00469,0.021737
3302,0.000481,-0.00469,0.003621
3303,0.019703,-0.00469,0.039853
3304,0.000481,0.012055,-0.014495
3305,0.000481,0.0288,-0.050727
3306,-0.01874,0.012055,0.021737
3307,0.000481,-0.038179,-0.014495
3308,0.019703,-0.00469,0.003621
3309,-0.01874,0.012055,0.021737
3310,0.000481,-0.00469,-0.014495
3311,0.019703,0.0288,0.021737
3312,0.019703,0.012055,0.039853
3313,0.000481,-0.021435,0.003621
3314,-0.01874,0.0288,-0.014495
3315,0.019703,0.012055,0.003621
3316,0.000481,-0.00469,-0.014495
3317,0.000481,-0.00469,-0.032611
3318,0.019703,-0.00469,0.021737
3319,0.000481,-0.00469,0.021737
3320,-0.01874,0.012055,0.057969
3321,-0.01874,-0.021435,0.003621
3322,0.019703,-0.038179,0.003621
3323,0.000481,-0.00469,-0.050727
3324,0.000481,0.012055,-0.014495
3325,0.038924,-0.00469,-0.032611
3326,0.000481,-0.00469,-0.014495
3327,0.019703,0.012055,0.021737
3328,0.000481,-0.021435,0.003621
3329,0.000481,-0.021435,0.021737
3330,0.000481,0.012055,0.003621
3331,0.000481,-0.00469,-0.032611
3332,-0.01874,-0.00469,0.003621
3333,0.000481,0.012055,-0.032611
3334,-0.01874,0.0288,0.003621
3335,-0.01874,-0.038179,0.003621
3336,-0.01874,-0.00469,0.021737
3337,-0.01874,-0.00469,-0.014495
3338,-0.037962,0.012055,0.039853
3339,-0.01874,-0.00469,0.021737
3340,-0.01874,0.012055,-0.014495
3341,-0.01874,-0.00469,0.021737
3342,-0.01874,-0.038179,-0.032611
3343,0.019703,0.012055,-0.032611
3344,0.019703,0.0288,0.003621
3345,0.019703,0.012055,0.003621
3346,0.019703,0.012055,-0.014495
3347,0.000481,-0.00469,0.039853
3348,0.019703,-0.00469,0.003621
3349,0.000481,-0.00469,-0.014495
3350,0.000481,0.012055,0.003621
3351,0.000481,-0.00469,-0.050727
3352,-0.01874,0.012055,-0.050727
3353,-0.01874,0.012055,0.021737
3354,0.019703,0.012055,-0.068843
3355,0.000481,0.012055,0.021737
3356,-0.01874,-0.021435,0.039853
3357,0.000481,-0.00469,0.003621
3358,0.000481,0.0288,-0.032611
3359,0.019703,-0.00469,0.003621
3360,0.000481,0.012055,-0.014495
3361,-0.01874,-0.00469,-0.032611
3362,0.000481,-0.021435,-0.050727
3363,0.000481,-0.021435,-0.050727
3364,0.019703,-0.00469,0.021737
3365,0.000481,0.012055,0.021737
3366,0.000481,-0.00469,0.003621
3367,0.000481,-0.00469,-0.032611
3368,0.000481,0.012055,0.021737
3369,0.000481,0.012055,0.003621
3370,-0.01874,-0.00469,-0.032611
3371,0.000481,0.012055,0.003621
3372,0.000481,-0.00469,-0.014495
3373,0.019703,-0.00469,0.021737
3374,0.000481,-0.021435,0.021737
3375,-0.037962,0.012055,-0.014495
3376,-0.037962,0.012055,0.039853
3377,0.000481,-0.00469,0.003621
3378,0.019703,-0.021435,-0.032611
3379,-0.01874,0.012055,-0.032611
3380,0.000481,0.012055,0.003621
3381,-0.01874,-0.00469,-0.032611
3382,0.000481,-0.00469,0.003621
3383,-0.01874,-0.00469,0.039853
3384,0.000481,-0.00469,-0.032611
3385,-0.01874,-0.021435,0.021737
3386,0.000481,-0.00469,-0.014495
3387,0.000481,-0.00469,-0.032611
3388,0.000481,-0.00469,-0.032611
3389,0.000481,0.012055,0.003621
3390,0.019703,-0.038179,-0.014495
3391,0.019703,0.012055,0.039853
3392,0.019703,-0.00469,0.057969
3393,0.019703,-0.00469,0.021737
3394,0.019703,-0.00469,0.003621
3395,0.019703,-0.00469,0.003621
3396,0.000481,-0.00469,-0.014495
3397,0.019703,-0.00469,-0.032611
3398,-0.01874,-0.021435,-0.032611
3399,0.000481,0.0288,-0.014495
3400,0.000481,0.012055,0.021737
3401,-0.01874,0.012055,0.039853
3402,-0.01874,-0.00469,-0.050727
3403,0.000481,0.012055,0.057969
3404,-0.01874,0.012055,-0.014495
3405,0.000481,-0.00469,0.003621
3406,0.000481,0.0288,-0.014495
3407,0.000481,-0.021435,-0.032611
3408,-0.01874,-0.00469,-0.032611
3409,0.000481,0.012055,0.003621
3410,0.019703,-0.021435,0.021737
3411,0.000481,0.012055,-0.014495
3412,0.000481,0.012055,0.003621
3413,0.000481,0.012055,-0.032611
3414,0.019703,-0.00469,0.003621
3415,0.000481,-0.00469,-0.014495
3416,-0.01874,0.012055,0.003621
3417,0.000481,0.012055,-0.032611
3418,0.000481,-0.00469,0.021737
3419,0.000481,0.012055,0.021737
3420,-0.01874,0.012055,0.003621
3421,-0.01874,-0.00469,0.039853
3422,0.000481,-0.021435,-0.014495
3423,0.000481,-0.00469,-0.032611
3424,0.000481,0.012055,-0.014495
3425,0.000481,-0.00469,-0.032611
3426,-0.01874,0.012055,-0.032611
3427,0.000481,-0.00469,0.003621
3428,0.000481,-0.00469,0.003621
3429,0.000481,-0.021435,0.003621
3430,0.000481,0.012055,0.039853
3431,0.019703,0.0288,0.003621
3432,0.000481,-0.00469,-0.050727
3433,-0.01874,0.012055,-0.014495
3434,0.000481,-0.00469,0.003621
3435,0.000481,0.012055,-0.014495
3436,0.000481,-0.00469,0.021737
3437,0.000481,-0.00469,0.003621
3438,0.000481,0.0288,0.021737
3439,0.000481,-0.021435,0.003621
3440,-0.01874,0.012055,0.003621
3441,0.000481,0.0288,-0.032611
3442,-0.01874,-0.00469,-0.050727
3443,0.000481,-0.00469,-0.032611
3444,0.000481,-0.021435,-0.014495
3445,0.019703,0.012055,-0.014495
3446,0.000481,0.0288,0.039853
3447,-0.01874,0.0288,0.039853
3448,-0.01874,-0.00469,0.039853
3449,-0.01874,-0.00469,-0.014495
3450,-0.01874,0.012055,-0.014495
3451,-0.01874,-0.00469,-0.014495
3452,-0.01874,0.012055,0.003621
3453,0.000481,-0.00469,0.003621
3454,0.000481,-0.00469,0.039853
3455,0.000481,-0.00469,-0.014495
3456,0.000481,0.012055,0.021737
3457,0.000481,0.012055,0.021737
3458,0.000481,0.0288,-0.014495
3459,-0.01874,-0.00469,-0.050727
3460,0.000481,-0.021435,-0.014495
3461,0.000481,-0.021435,-0.032611
3462,-0.01874,-0.00469,-0.014495
3463,0.000481,-0.00469,0.003621
3464,-0.01874,-0.00469,-0.032611
3465,0.000481,-0.00469,0.003621
3466,0.000481,0.012055,0.039853
3467,0.000481,0.012055,-0.014495
3468,0.000481,-0.00469,-0.032611
3469,0.000481,-0.00469,0.003621
3470,0.000481,-0.00469,0.003621
3471,0.038924,-0.00469,0.003621
3472,0.019703,0.012055,-0.014495
3473,0.038924,0.012055,0.021737
3474,-0.01874,0.012055,0.003621
3475,-0.01874,0.012055,0.057969
3476,-0.01874,-0.00469,-0.014495
3477,-0.01874,0.012055,-0.014495
3478,0.000481,0.0288,0.003621
3479,0.000481,0.012055,-0.032611
3480,0.000481,0.0288,-0.050727
3481,-0.01874,-0.00469,0.021737
3482,0.000481,-0.00469,-0.014495
3483,-0.037962,0.012055,0.003621
3484,-0.01874,-0.00469,0.039853
3485,0.000481,-0.00469,0.003621
3486,0.000481,0.012055,0.039853
3487,0.019703,0.0288,0.021737
3488,0.058146,-0.038179,-0.032611
3489,0.058146,-0.021435,-0.032611
3490,0.038924,0.012055,0.003621
3491,0.019703,-0.00469,0.021737
3492,-0.037962,0.012055,0.003621
3493,-0.076405,-0.021435,0.021737
3494,-0.076405,-0.00469,0.003621
3495,0.000481,-0.021435,0.021737
3496,0.019703,-0.00469,0.003621
3497,0.019703,0.012055,-0.014495
3498,0.000481,0.012055,-0.032611
3499,0.000481,0.012055,0.003621
3500,-0.01874,-0.00469,-0.014495
3501,0.000481,-0.00469,0.021737
3502,0.000481,-0.021435,0.039853
3503,-0.01874,-0.00469,-0.014495
3504,-0.01874,-0.00469,0.003621
3505,0.000481,-0.00469,-0.032611
3506,0.019703,-0.00469,-0.068843
3507,-0.01874,-0.021435,-0.068843
3508,-0.037962,-0.00469,0.021737
3509,0.000481,0.012055,-0.050727
3510,0.000481,-0.00469,0.021737
3511,0.000481,0.0288,0.057969
3512,-0.01874,0.0288,0.003621
3513,0.000481,0.012055,0.039853
3514,0.000481,0.012055,0.021737
3515,0.000481,0.0288,-0.014495
3516,-0.01874,0.012055,0.003621
3517,0.000481,0.012055,-0.014495
3518,0.000481,0.012055,-0.032611
3519,-0.01874,-0.00469,0.021737
3520,0.000481,0.012055,0.003621
3521,0.000481,-0.00469,0.021737
3522,0.019703,-0.00469,0.021737
3523,0.000481,0.012055,0.021737
3524,0.019703,-0.00469,-0.014495
3525,0.000481,0.0288,-0.032611
3526,0.000481,-0.00469,-0.032611
3527,-0.01874,-0.00469,0.003621
3528,-0.01874,-0.00469,0.003621
3529,0.000481,0.012055,0.039853
3530,-0.01874,0.012055,0.003621
3531,-0.037962,-0.00469,0.003621
3532,-0.037962,-0.021435,0.003621
3533,-0.037962,-0.00469,-0.014495
3534,-0.037962,-0.00469,-0.014495
3535,0.000481,-0.00469,0.003621
3536,0.000481,-0.00469,-0.032611
3537,-0.01874,0.012055,0.003621
3538,0.019703,0.012055,0.039853
3539,0.058146,0.0288,0.021737
3540,0.077367,-0.00469,0.003621
3541,0.058146,0.012055,0.003621
3542,0.019703,0.012055,-0.014495
3543,-0.01874,0.012055,-0.014495
3544,-0.01874,-0.00469,-0.050727
3545,-0.01874,0.012055,-0.050727
3546,0.000481,0.012055,0.021737
3547,-0.01874,-0.021435,0.003621
3548,0.019703,-0.00469,0.003621
3549,0.000481,-0.00469,0.021737
3550,0.019703,0.0288,0.003621
3551,0.000481,0.0288,-0.032611
3552,0.000481,-0.00469,-0.032611
3553,0.019703,0.045545,0.003621
3554,0.096589,0.012055,-0.014495
3555,0.077367,-0.00469,0.003621
3556,0.038924,0.012055,0.039853
3557,-0.037962,-0.00469,0.003621
3558,-0.057183,-0.00469,0.039853
3559,-0.134069,-0.021435,0.003621
3560,-0.076405,-0.00469,-0.014495
3561,0.000481,-0.00469,-0.050727
3562,-0.01874,-0.00469,-0.014495
3563,-0.01874,0.012055,-0.050727
3564,-0.01874,-0.00469,-0.014495
3565,0.000481,0.012055,0.039853
3566,0.019703,-0.021435,0.003621
3567,0.019703,0.012055,0.057969
3568,0.019703,0.012055,0.003621
3569,0.019703,-0.021435,0.003621
3570,-0.037962,-0.00469,0.003621
3571,-0.057183,-0.00469,-0.032611
3572,-0.01874,0.012055,-0.032611
3573,0.000481,0.012055,0.021737
3574,-0.01874,-0.00469,0.021737
3575,0.019703,0.012055,0.003621
3576,0.019703,-0.00469,0.021737
3577,0.000481,0.012055,-0.014495
3578,0.000481,0.012055,-0.032611
3579,0.019703,0.012055,0.003621
3580,0.000481,-0.00469,-0.032611
3581,0.019703,-0.00469,-0.050727
3582,0.000481,0.0288,-0.014495
3583,0.000481,-0.00469,-0.050727
3584,0.019703,-0.00469,0.003621
3585,0.000481,-0.00469,0.003621
3586,-0.01874,0.0288,0.021737
3587,-0.037962,-0.00469,-0.014495
3588,-0.01874,0.012055,0.021737
3589,-0.037962,0.012055,-0.014495
3590,0.000481,0.012055,-0.032611
3591,-0.01874,-0.00469,0.003621
3592,0.000481,-0.00469,-0.032611
3593,0.000481,-0.00469,0.021737
3594,0.000481,0.0288,0.021737
3595,-0.01874,-0.00469,0.003621
3596,0.000481,0.012055,0.003621
3597,-0.01874,-0.021435,-0.032611
3598,0.000481,-0.00469,-0.014495
3599,-0.01874,0.012055,-0.032611
3600,-0.01874,-0.00469,0.003621
3601,0.019703,0.0288,-0.014495
3602,-0.01874,-0.00469,0.003621
3603,0.000481,-0.00469,0.039853
3604,0.019703,0.012055,0.003621
3605,0.019703,-0.00469,0.021737
3606,-0.01874,0.012055,0.021737
3607,0.000481,-0.021435,-0.014495
3608,0.000481,-0.021435,-0.050727
3609,0.019703,-0.00469,0.021737
3610,0.000481,0.0288,-0.032611
3611,-0.01874,0.012055,0.003621
3612,0.000481,-0.00469,0.039853
3613,-0.01874,0.012055,-0.032611
3614,0.000481,-0.021435,0.039853
3615,0.000481,-0.00469,0.021737
3616,-0.01874,-0.00469,-0.014495
3617,-0.01874,-0.00469,-0.050727
3618,-0.01874,-0.00469,-0.014495
3619,0.000481,-0.00469,-0.050727
3620,0.000481,0.012055,0.021737
3621,0.000481,0.0288,0.039853
3622,0.000481,-0.00469,0.003621
3623,-0.01874,0.012055,0.021737
3624,0.000481,-0.00469,-0.014495
3625,-0.01874,0.012055,-0.032611
3626,0.000481,0.012055,-0.014495
3627,0.000481,-0.00469,-0.032611
3628,0.000481,0.012055,-0.032611
3629,0.000481,-0.00469,-0.032611
3630,-0.01874,-0.00469,0.021737
3631,-0.01874,-0.038179,0.003621
3632,-0.01874,-0.038179,-0.014495
3633,-0.037962,-0.021435,-0.014495
3634,-0.01874,-0.00469,0.003621
3635,0.000481,0.012055,-0.032611
3636,0.000481,0.0288,0.003621
3637,0.019703,0.045545,0.003621
3638,0.000481,0.0288,0.021737
3639,0.000481,0.012055,0.039853
3640,0.000481,-0.00469,0.003621
3641,0.000481,0.0288,0.039853
3642,-0.01874,0.012055,0.003621
3643,0.000481,0.012055,-0.032611
3644,-0.01874,-0.021435,-0.032611
3645,0.000481,-0.021435,-0.032611
3646,-0.01874,0.012055,-0.014495
3647,0.000481,-0.021435,0.021737
3648,-0.01874,0.0288,0.021737
3649,-0.01874,0.012055,-0.032611
3650,-0.01874,0.012055,0.039853
3651,0.000481,-0.00469,-0.032611
3652,0.077367,0.012055,-0.032611
3653,0.096589,-0.00469,-0.014495
3654,0.038924,0.0288,-0.014495
3655,-0.01874,0.0288,0.003621
3656,-0.076405,-0.00469,0.021737
3657,-0.095626,0.012055,0.039853
3658,-0.037962,-0.00469,-0.032611
3659,0.038924,-0.038179,0.039853
3660,0.019703,0.012055,0.021737
3661,-0.01874,0.012055,-0.014495
3662,-0.01874,-0.00469,-0.014495
3663,-0.01874,0.012055,-0.032611
3664,-0.01874,0.012055,-0.014495
3665,0.000481,-0.00469,0.021737
3666,0.000481,0.012055,0.039853
3667,0.019703,0.0288,-0.014495
3668,0.019703,0.012055,0.021737
3669,-0.01874,-0.00469,0.003621
3670,-0.01874,0.012055,-0.014495
3671,-0.037962,-0.00469,0.021737
3672,0.019703,0.045545,-0.032611
3673,-0.01874,-0.021435,-0.014495
3674,-0.01874,-0.038179,-0.014495
3675,0.000481,-0.021435,0.021737
3676,-0.01874,-0.00469,0.003621
3677,0.038924,0.012055,0.039853
3678,0.000481,0.012055,0.021737
3679,0.038924,-0.00469,-0.032611
3680,0.019703,0.012055,0.003621
3681,0.019703,-0.00469,-0.032611
3682,0.000481,0.012055,-0.014495
3683,0.019703,0.06229,-0.014495
3684,0.019703,0.012055,0.039853
3685,0.038924,0.012055,0.094201
3686,0.000481,0.012055,0.021737
3687,0.019703,0.012055,0.021737
3688,0.038924,0.0288,-0.032611
3689,0.000481,-0.00469,-0.032611
3690,-0.01874,0.012055,-0.032611
3691,-0.01874,0.012055,-0.014495
3692,-0.01874,-0.00469,-0.014495
3693,-0.01874,0.012055,-0.032611
3694,0.000481,-0.00469,-0.014495
3695,0.000481,0.045545,0.021737
3696,-0.01874,0.0288,0.021737
3697,0.019703,0.045545,0.003621
3698,0.000481,-0.00469,0.039853
3699,-0.01874,0.012055,0.021737
3700,0.000481,-0.00469,-0.050727
3701,0.019703,0.012055,0.003621
3702,0.019703,-0.021435,-0.032611
