# Requested Sampling Rate (Hz):,1000
# Actual Sampling Rate (Hz):,999.068
# Requested Duration (s):,5.0
# Actual Duration (s):,5.043
# REST Calibration:,831.4595862068991,832.6049655172403,833.6698965517227
# MAX Calibration:,875.0000,896.0000,903.0000
# Normalization: MVC-based  (x_norm = (x - REST) / (MAX - REST))
sample_idx,EMG1,EMG2,EMG3
0,0.012412,0.006231,0.004761
1,-0.033523,0.006231,0.019185
2,0.012412,-0.009543,0.004761
3,-0.033523,-0.009543,0.004761
4,0.035379,-0.025317,-0.009662
5,-0.010555,-0.025317,-0.009662
6,-0.033523,-0.025317,-0.009662
7,-0.033523,-0.041091,-0.009662
8,-0.010555,-0.009543,-0.009662
9,0.012412,0.006231,0.004761
10,0.058346,0.006231,0.004761
11,0.058346,-0.009543,0.004761
12,0.012412,0.03778,0.004761
13,-0.079457,0.006231,0.004761
14,-0.010555,-0.009543,0.004761
15,0.012412,0.022005,-0.009662
16,0.081313,0.053554,0.004761
17,0.058346,0.022005,0.004761
18,0.035379,0.022005,0.033609
19,-0.010555,-0.041091,0.019185
20,0.012412,-0.072639,0.004761
21,-0.05649,-0.072639,-0.009662
22,-0.010555,-0.072639,0.019185
23,0.012412,-0.025317,0.004761
24,0.012412,-0.041091,-0.024086
25,-0.05649,-0.041091,-0.024086
26,0.035379,-0.041091,-0.03851
27,0.012412,-0.009543,-0.03851
28,0.012412,0.022005,-0.03851
29,0.012412,0.006231,-0.009662
30,-0.079457,0.006231,0.004761
31,-0.010555,0.022005,0.019185
32,-0.033523,0.022005,0.004761
33,-0.033523,-0.025317,-0.009662
34,-0.033523,-0.009543,0.004761
35,-0.010555,-0.009543,-0.024086
36,-0.010555,-0.009543,-0.03851
37,0.012412,-0.009543,-0.024086
38,0.012412,-0.009543,0.004761
39,-0.033523,0.006231,0.019185
40,-0.010555,0.006231,0.019185
41,0.012412,-0.009543,0.033609
42,-0.010555,-0.041091,0.033609
43,0.035379,0.006231,0.019185
44,0.035379,-0.009543,-0.009662
45,0.058346,-0.025317,0.004761
46,0.058346,-0.009543,0.033609
47,0.035379,-0.025317,0.019185
48,0.012412,0.006231,-0.009662
49,0.035379,-0.025317,-0.024086
50,-0.010555,-0.009543,-0.009662
51,-0.05649,-0.009543,-0.009662
52,-0.010555,-0.009543,-0.009662
53,-0.010555,-0.025317,-0.024086
54,0.012412,-0.025317,-0.009662
55,-0.010555,-0.041091,-0.009662
56,-0.033523,-0.009543,-0.009662
57,0.012412,0.006231,-0.009662
58,-0.010555,-0.009543,-0.009662
59,-0.05649,-0.025317,-0.009662
60,-0.010555,-0.009543,-0.009662
61,-0.010555,-0.009543,0.019185
62,0.012412,0.006231,-0.009662
63,-0.05649,-0.025317,-0.024086
64,0.012412,-0.009543,-0.009662
65,0.035379,-0.009543,0.004761
66,-0.010555,0.006231,0.004761
67,0.012412,0.006231,0.004761
68,0.012412,-0.009543,0.019185
69,-0.033523,-0.009543,0.033609
70,0.035379,-0.009543,0.033609
71,-0.010555,0.006231,0.019185
72,-0.010555,0.006231,0.033609
73,0.012412,-0.009543,0.004761
74,-0.010555,-0.009543,-0.009662
75,0.012412,-0.025317,-0.052934
76,0.012412,-0.025317,-0.052934
77,0.012412,-0.025317,-0.03851
78,0.012412,-0.025317,-0.03851
79,0.035379,-0.009543,-0.03851
80,0.012412,-0.025317,-0.009662
81,0.035379,-0.009543,0.004761
82,-0.010555,-0.009543,-0.009662
83,-0.033523,0.006231,0.048033
84,0.012412,0.022005,-0.024086
85,-0.010555,0.022005,0.019185
86,-0.05649,0.03778,0.019185
87,-0.033523,-0.009543,0.019185
88,0.012412,-0.009543,0.033609
89,0.012412,-0.025317,0.048033
90,-0.033523,-0.041091,0.048033
91,0.035379,-0.025317,0.033609
92,0.012412,-0.025317,0.033609
93,-0.033523,-0.025317,0.004761
94,-0.033523,-0.025317,-0.024086
95,-0.033523,-0.041091,-0.03851
96,0.012412,-0.041091,-0.052934
97,-0.010555,-0.041091,-0.03851
98,0.012412,-0.009543,-0.024086
99,0.035379,0.022005,-0.03851
100,0.035379,0.022005,0.004761
101,-0.010555,0.022005,0.033609
102,0.012412,0.03778,0.033609
103,0.035379,-0.009543,0.019185
104,-0.010555,-0.025317,0.004761
105,0.012412,-0.041091,-0.009662
106,-0.033523,-0.056865,-0.024086
107,-0.010555,-0.041091,0.004761
108,-0.010555,-0.025317,0.004761
109,-0.010555,-0.009543,0.048033
110,0.012412,-0.025317,0.019185
111,0.012412,-0.041091,0.004761
112,-0.010555,-0.041091,-0.03851
113,-0.010555,-0.041091,-0.03851
114,-0.033523,-0.009543,-0.03851
115,-0.033523,-0.009543,-0.009662
116,-0.05649,-0.009543,-0.009662
117,-0.033523,-0.009543,0.019185
118,-0.010555,0.03778,0.033609
119,-0.010555,0.03778,0.019185
120,-0.010555,0.006231,0.004761
121,0.012412,0.022005,-0.009662
122,0.012412,0.022005,0.048033
123,0.058346,-0.009543,0.019185
124,0.012412,-0.009543,0.062456
125,0.012412,-0.056865,0.091304
126,0.058346,-0.009543,0.091304
127,0.081313,0.006231,0.048033
128,0.012412,-0.025317,0.033609
129,-0.010555,-0.041091,-0.03851
130,0.012412,-0.056865,-0.096205
131,-0.033523,-0.072639,-0.139476
132,-0.05649,-0.056865,-0.125052
133,0.012412,-0.025317,-0.096205
134,0.012412,-0.041091,-0.067357
135,-0.010555,-0.025317,-0.024086
136,0.012412,-0.009543,-0.024086
137,0.012412,0.022005,-0.024086
138,0.012412,0.022005,-0.009662
139,0.035379,0.006231,0.033609
140,-0.010555,0.022005,0.019185
141,-0.010555,-0.025317,0.033609
142,-0.033523,-0.025317,0.004761
143,-0.010555,-0.041091,0.019185
144,-0.033523,-0.025317,-0.009662
145,0.012412,-0.025317,0.048033
146,0.012412,-0.009543,0.004761
147,-0.033523,0.006231,0.033609
148,0.012412,-0.009543,0.048033
149,0.058346,0.006231,0.062456
150,-0.033523,0.006231,0.048033
151,-0.010555,-0.009543,0.033609
152,-0.010555,-0.009543,-0.009662
153,0.035379,-0.025317,-0.03851
154,0.035379,-0.025317,-0.067357
155,-0.010555,-0.041091,-0.052934
156,-0.010555,-0.041091,-0.024086
157,0.035379,-0.041091,-0.024086
158,-0.010555,-0.009543,-0.009662
159,0.012412,-0.009543,-0.009662
160,0.035379,-0.025317,-0.009662
161,0.058346,-0.009543,0.019185
162,0.012412,-0.009543,0.004761
163,-0.010555,0.006231,0.004761
164,0.035379,-0.009543,0.004761
165,-0.010555,-0.009543,-0.009662
166,-0.010555,-0.009543,0.033609
167,-0.033523,0.006231,0.062456
168,0.035379,0.022005,0.062456
169,0.035379,0.006231,0.033609
170,0.012412,-0.009543,0.033609
171,-0.079457,-0.025317,0.019185
172,-0.010555,0.006231,0.019185
173,-0.010555,0.022005,0.033609
174,-0.033523,-0.009543,-0.024086
175,-0.033523,-0.025317,-0.052934
176,-0.033523,-0.041091,-0.067357
177,-0.05649,-0.056865,-0.096205
178,-0.010555,-0.041091,-0.081781
179,-0.033523,-0.025317,-0.03851
180,-0.010555,-0.009543,0.004761
181,-0.010555,0.006231,0.019185
182,0.012412,-0.009543,0.019185
183,-0.010555,-0.009543,0.019185
184,0.035379,-0.025317,0.048033
185,0.058346,-0.009543,0.033609
186,0.035379,0.022005,0.048033
187,0.058346,0.022005,0.062456
188,0.058346,0.03778,0.105728
189,-0.010555,0.006231,0.07688
190,0.012412,0.006231,0.048033
191,0.012412,-0.009543,0.019185
192,-0.033523,-0.041091,-0.081781
193,-0.010555,-0.056865,-0.081781
194,-0.033523,-0.056865,-0.110629
195,-0.033523,-0.056865,-0.139476
196,-0.033523,-0.056865,-0.110629
197,-0.010555,-0.025317,-0.067357
198,-0.05649,-0.025317,-0.024086
199,-0.010555,-0.025317,0.033609
200,-0.033523,-0.009543,0.048033
201,-0.033523,-0.009543,0.048033
202,0.035379,0.022005,0.091304
203,0.035379,0.053554,0.134575
204,0.058346,0.053554,0.163423
205,0.081313,0.03778,0.120151
206,0.058346,0.022005,0.062456
207,0.035379,-0.009543,0.004761
208,-0.05649,-0.025317,-0.024086
209,-0.079457,-0.056865,-0.096205
210,-0.05649,-0.088413,-0.139476
211,-0.033523,-0.088413,-0.1539
212,-0.033523,-0.056865,-0.125052
213,0.035379,-0.009543,-0.081781
214,0.035379,-0.009543,-0.009662
215,0.035379,0.006231,-0.009662
216,0.035379,0.006231,0.048033
217,0.081313,0.006231,0.07688
218,0.10428,-0.009543,0.091304
219,0.035379,0.022005,0.120151
220,0.035379,0.053554,0.120151
221,0.012412,0.006231,0.091304
222,-0.010555,-0.009543,0.048033
223,-0.033523,-0.025317,0.019185
224,-0.05649,-0.072639,-0.096205
225,-0.102424,-0.072639,-0.182747
226,-0.033523,-0.056865,-0.139476
227,-0.010555,-0.041091,-0.067357
228,-0.033523,0.006231,-0.024086
229,-0.010555,-0.009543,0.048033
230,-0.010555,-0.009543,0.062456
231,-0.010555,0.006231,0.048033
232,-0.033523,0.006231,0.019185
233,-0.033523,-0.025317,-0.052934
234,-0.033523,-0.041091,-0.096205
235,-0.05649,-0.041091,-0.081781
236,-0.033523,-0.025317,-0.052934
237,0.012412,0.006231,0.062456
238,0.058346,0.022005,0.120151
239,0.10428,0.053554,0.148999
240,0.127248,0.053554,0.19227
241,0.127248,0.069328,0.221118
242,0.10428,0.053554,0.134575
243,0.035379,0.022005,0.004761
244,0.012412,-0.025317,-0.125052
245,-0.010555,-0.072639,-0.168324
246,-0.079457,-0.072639,-0.1539
247,-0.033523,-0.056865,-0.139476
248,-0.010555,-0.056865,-0.139476
249,-0.033523,-0.088413,-0.110629
250,-0.102424,-0.072639,-0.096205
251,-0.010555,-0.025317,0.019185
252,0.012412,0.006231,0.091304
253,0.081313,0.03778,0.177846
254,0.127248,0.069328,0.19227
255,0.127248,0.085102,0.19227
256,0.035379,0.03778,0.091304
257,-0.033523,-0.009543,-0.067357
258,-0.102424,-0.056865,-0.125052
259,-0.079457,-0.041091,-0.052934
260,-0.05649,-0.041091,-0.067357
261,-0.033523,-0.009543,0.019185
262,-0.010555,-0.025317,-0.009662
263,0.012412,0.022005,0.07688
264,0.058346,0.006231,0.120151
265,0.012412,0.006231,0.062456
266,0.035379,0.006231,0.062456
267,-0.010555,-0.041091,-0.052934
268,0.012412,-0.072639,-0.096205
269,0.081313,-0.056865,-0.139476
270,0.058346,-0.009543,-0.081781
271,0.058346,0.022005,0.004761
272,0.035379,0.022005,0.120151
273,0.081313,0.03778,0.148999
274,-0.010555,-0.041091,0.019185
275,-0.05649,-0.072639,-0.009662
276,-0.033523,-0.056865,-0.067357
277,-0.05649,-0.088413,-0.1539
278,-0.05649,-0.088413,-0.182747
279,0.058346,-0.041091,-0.139476
280,-0.010555,-0.025317,-0.052934
281,-0.033523,-0.009543,0.004761
282,-0.033523,0.022005,0.07688
283,0.012412,0.03778,0.148999
284,-0.033523,0.03778,0.148999
285,0.012412,0.022005,0.148999
286,0.035379,0.053554,0.148999
287,0.012412,0.022005,0.07688
288,0.035379,-0.025317,-0.024086
289,-0.05649,-0.056865,-0.125052
290,-0.05649,-0.088413,-0.168324
291,0.012412,-0.041091,-0.096205
292,0.035379,0.03778,0.048033
293,0.150215,0.100876,0.221118
294,0.150215,0.085102,0.206694
295,0.058346,-0.009543,-0.052934
296,-0.05649,-0.15151,-0.254866
297,-0.125391,-0.15151,-0.197171
298,-0.102424,-0.119962,-0.197171
299,-0.010555,-0.056865,-0.168324
300,0.012412,-0.009543,-0.024086
301,0.10428,0.069328,0.206694
302,0.150215,0.100876,0.408626
303,0.127248,0.100876,0.293236
304,0.10428,0.069328,0.19227
305,0.058346,-0.009543,0.004761
306,0.035379,-0.088413,-0.254866
307,-0.010555,-0.072639,-0.283714
308,-0.033523,-0.056865,-0.26929
309,-0.079457,-0.072639,-0.110629
310,0.035379,0.006231,0.019185
311,0.035379,0.03778,0.120151
312,0.012412,0.085102,0.120151
313,-0.079457,0.022005,0.07688
314,-0.148358,-0.041091,-0.067357
315,-0.05649,-0.041091,-0.110629
316,-0.079457,-0.072639,-0.125052
317,-0.010555,-0.056865,-0.110629
318,-0.05649,-0.041091,0.062456
319,-0.010555,-0.009543,0.148999
320,0.035379,-0.025317,0.033609
321,0.127248,-0.025317,0.004761
322,0.173182,0.022005,0.048033
323,0.10428,0.022005,0.148999
324,0.10428,-0.009543,0.048033
325,0.10428,0.006231,0.091304
326,0.035379,0.006231,0.148999
327,-0.05649,-0.041091,0.033609
328,-0.125391,-0.088413,-0.125052
329,-0.079457,-0.104187,-0.182747
330,0.012412,-0.056865,-0.226019
331,0.012412,-0.009543,-0.125052
332,0.035379,-0.025317,-0.009662
333,0.058346,0.03778,0.148999
334,0.035379,0.03778,0.206694
335,-0.033523,-0.041091,-0.03851
336,-0.033523,-0.119962,-0.168324
337,-0.05649,-0.104187,-0.125052
338,0.012412,0.006231,0.091304
339,0.150215,0.03778,0.134575
340,0.058346,0.03778,0.07688
341,0.035379,0.006231,0.019185
342,-0.010555,-0.041091,-0.125052
343,-0.033523,-0.009543,-0.096205
344,0.058346,0.022005,0.004761
345,0.058346,0.069328,0.177846
346,0.081313,0.069328,0.249965
347,0.058346,-0.009543,0.048033
348,-0.05649,-0.088413,-0.1539
349,-0.079457,-0.072639,-0.226019
350,-0.079457,-0.072639,-0.168324
351,-0.033523,-0.041091,-0.03851
352,0.058346,0.03778,0.07688
353,0.10428,0.085102,0.120151
354,0.10428,0.11665,0.062456
355,0.10428,0.069328,0.120151
356,0.127248,0.006231,0.07688
357,-0.102424,-0.041091,-0.081781
358,-0.079457,-0.104187,-0.081781
359,-0.033523,-0.104187,-0.110629
360,0.035379,-0.041091,-0.009662
361,0.127248,0.006231,-0.03851
362,0.10428,-0.041091,-0.139476
363,0.035379,-0.041091,-0.168324
364,-0.010555,-0.056865,-0.081781
365,-0.05649,-0.056865,-0.052934
366,-0.010555,0.006231,0.048033
367,0.035379,0.022005,0.19227
368,0.081313,0.085102,0.336508
369,0.10428,0.11665,0.350931
370,0.035379,0.069328,0.120151
371,-0.079457,-0.056865,-0.226019
372,-0.148358,-0.135736,-0.355832
373,-0.102424,-0.088413,-0.197171
374,-0.102424,-0.056865,-0.096205
375,0.035379,-0.009543,0.004761
376,-0.010555,0.006231,0.07688
377,-0.010555,-0.009543,0.062456
378,0.058346,0.022005,0.07688
379,0.10428,0.053554,0.163423
380,0.081313,0.053554,0.163423
381,0.035379,0.022005,-0.009662
382,0.10428,0.006231,0.004761
383,0.10428,0.03778,0.105728
384,0.081313,0.03778,0.177846
385,-0.033523,-0.072639,-0.067357
386,-0.125391,-0.104187,-0.298137
387,-0.033523,-0.025317,-0.226019
388,0.081313,0.069328,-0.024086
389,0.10428,0.11665,0.19227
390,0.173182,0.11665,0.249965
391,0.012412,-0.009543,0.07688
392,-0.125391,-0.104187,-0.125052
393,-0.102424,-0.135736,-0.226019
394,0.035379,-0.041091,-0.1539
395,-0.05649,-0.104187,-0.240442
396,-0.148358,-0.119962,-0.182747
397,-0.033523,-0.056865,-0.052934
398,0.081313,0.053554,0.163423
399,0.012412,0.053554,0.322084
400,0.012412,0.03778,0.177846
401,0.127248,0.069328,0.091304
402,0.058346,0.006231,-0.096205
403,-0.079457,-0.072639,-0.254866
404,-0.102424,-0.056865,-0.182747
405,0.012412,0.022005,0.033609
406,0.081313,0.085102,0.19227
407,0.035379,0.053554,0.249965
408,-0.033523,-0.072639,-0.024086
409,-0.079457,-0.135736,-0.182747
410,0.012412,-0.088413,-0.081781
411,0.035379,-0.072639,-0.139476
412,-0.033523,-0.088413,-0.182747
413,-0.079457,-0.072639,-0.240442
414,-0.033523,-0.041091,-0.110629
415,-0.010555,-0.041091,-0.081781
416,0.012412,-0.025317,-0.03851
417,0.035379,0.006231,0.033609
418,0.127248,0.069328,0.120151
419,0.10428,0.03778,0.105728
420,-0.010555,0.022005,0.19227
421,0.081313,0.085102,0.394203
422,0.10428,0.085102,0.408626
423,0.012412,-0.009543,0.163423
424,-0.033523,-0.072639,-0.197171
425,-0.010555,-0.072639,-0.168324
426,0.035379,0.006231,-0.096205
427,0.081313,0.022005,0.105728
428,0.10428,0.069328,0.120151
429,0.058346,0.069328,0.048033
430,-0.010555,0.053554,0.033609
431,-0.079457,-0.025317,-0.067357
432,-0.102424,-0.119962,-0.197171
433,-0.125391,-0.072639,-0.125052
434,-0.102424,-0.072639,-0.052934
435,0.035379,-0.056865,0.033609
436,0.012412,-0.056865,-0.139476
437,0.035379,-0.009543,-0.067357
438,0.081313,0.053554,0.07688
439,0.10428,0.006231,0.062456
440,0.035379,-0.072639,0.033609
441,0.012412,-0.072639,-0.125052
442,-0.010555,-0.041091,-0.26929
443,0.035379,0.022005,-0.168324
444,0.035379,-0.025317,-0.03851
445,0.012412,-0.025317,0.062456
446,-0.033523,-0.041091,0.048033
447,0.035379,-0.041091,0.048033
448,0.012412,-0.009543,0.004761
449,0.035379,-0.041091,-0.067357
450,0.127248,0.03778,0.062456
451,0.173182,0.085102,0.206694
452,0.196149,0.148198,0.322084
453,0.150215,0.11665,0.221118
454,-0.033523,0.069328,0.019185
455,-0.148358,-0.041091,-0.024086
456,-0.102424,-0.119962,-0.283714
457,-0.079457,-0.167284,-0.370256
458,-0.010555,-0.072639,-0.096205
459,0.035379,-0.072639,-0.052934
460,-0.125391,-0.15151,-0.240442
461,-0.102424,-0.088413,-0.312561
462,-0.033523,-0.041091,-0.240442
463,0.012412,0.022005,0.048033
464,0.058346,0.022005,0.206694
465,0.081313,0.03778,0.134575
466,0.10428,0.069328,0.134575
467,0.10428,0.053554,0.163423
468,0.10428,0.053554,0.177846
469,-0.148358,-0.072639,0.004761
470,-0.194293,-0.119962,-0.168324
471,0.012412,-0.009543,-0.110629
472,0.127248,0.100876,0.033609
473,0.150215,0.100876,0.177846
474,0.10428,0.03778,0.249965
475,-0.079457,-0.056865,0.105728
476,-0.079457,-0.056865,0.033609
477,-0.033523,-0.072639,-0.024086
478,0.058346,-0.056865,-0.1539
479,0.035379,-0.056865,-0.110629
480,0.012412,0.006231,0.019185
481,0.081313,0.069328,0.19227
482,-0.033523,0.006231,0.120151
483,-0.010555,-0.025317,-0.009662
484,-0.033523,-0.041091,-0.096205
485,-0.102424,-0.025317,-0.067357
486,-0.125391,-0.104187,-0.096205
487,-0.079457,-0.041091,0.048033
488,-0.102424,-0.041091,-0.024086
489,-0.010555,-0.041091,-0.096205
490,0.058346,0.006231,0.019185
491,0.058346,0.053554,0.062456
492,0.10428,0.053554,0.091304
493,0.127248,0.085102,0.206694
494,0.196149,0.11665,0.221118
495,0.10428,0.022005,0.091304
496,-0.171326,-0.104187,-0.197171
497,-0.148358,-0.135736,-0.254866
498,-0.079457,-0.088413,-0.182747
499,0.058346,0.053554,-0.03851
500,0.035379,0.053554,0.19227
501,0.035379,0.022005,0.004761
502,-0.033523,-0.072639,-0.211595
503,0.012412,-0.041091,-0.125052
504,-0.010555,-0.056865,-0.182747
505,0.012412,-0.088413,-0.139476
506,0.058346,-0.025317,-0.03851
507,0.10428,0.022005,0.019185
508,0.035379,0.006231,0.062456
509,-0.010555,-0.009543,-0.009662
510,0.012412,-0.025317,-0.024086
511,-0.010555,-0.009543,0.048033
512,-0.033523,-0.041091,0.048033
513,-0.079457,-0.056865,0.105728
514,-0.079457,-0.025317,0.134575
515,-0.079457,0.006231,0.105728
516,-0.171326,-0.072639,-0.125052
517,-0.102424,-0.025317,-0.125052
518,-0.171326,-0.025317,-0.110629
519,-0.102424,-0.056865,-0.009662
520,-0.033523,-0.072639,-0.067357
521,-0.033523,-0.041091,-0.110629
522,0.035379,-0.009543,-0.110629
523,0.150215,0.069328,0.019185
524,0.150215,0.022005,0.048033
525,0.127248,-0.009543,0.004761
526,0.081313,0.022005,-0.009662
527,-0.033523,-0.041091,0.004761
528,-0.033523,-0.056865,0.004761
529,0.081313,-0.009543,0.033609
530,0.081313,0.022005,0.091304
531,0.150215,0.03778,0.105728
532,0.150215,-0.009543,0.048033
533,0.150215,-0.009543,-0.024086
534,0.081313,-0.025317,-0.096205
535,-0.010555,-0.041091,-0.125052
536,0.173182,0.006231,-0.009662
537,0.196149,0.069328,0.120151
538,0.127248,0.069328,0.177846
539,-0.079457,-0.025317,0.120151
540,-0.194293,-0.025317,0.048033
541,-0.102424,-0.025317,0.019185
542,-0.05649,-0.009543,-0.03851
543,-0.05649,-0.041091,-0.067357
544,-0.079457,-0.025317,-0.096205
545,-0.102424,-0.009543,-0.03851
546,-0.102424,0.006231,-0.009662
547,-0.125391,-0.025317,-0.052934
548,0.012412,-0.041091,-0.096205
549,0.058346,-0.025317,-0.096205
550,0.012412,-0.072639,-0.096205
551,0.035379,-0.056865,-0.03851
552,0.058346,-0.025317,-0.024086
553,0.035379,-0.025317,-0.009662
554,0.127248,0.022005,0.019185
555,0.219116,0.053554,0.07688
556,0.127248,0.069328,0.091304
557,0.081313,0.03778,0.033609
558,0.10428,0.022005,-0.03851
559,0.035379,0.03778,-0.067357
560,-0.033523,0.006231,-0.067357
561,-0.102424,-0.072639,-0.052934
562,-0.05649,-0.119962,-0.03851
563,-0.102424,-0.056865,0.004761
564,-0.125391,-0.072639,0.019185
565,-0.148358,-0.009543,0.07688
566,-0.102424,0.006231,0.048033
567,-0.05649,0.006231,0.004761
568,-0.010555,-0.041091,-0.03851
569,0.035379,0.006231,-0.067357
570,0.081313,0.069328,-0.024086
571,0.035379,0.053554,-0.03851
572,-0.010555,0.03778,-0.052934
573,-0.05649,0.006231,0.004761
574,-0.033523,-0.041091,-0.009662
575,0.127248,-0.009543,0.019185
576,0.10428,-0.056865,-0.009662
577,0.150215,-0.056865,0.048033
578,0.242083,0.006231,0.019185
579,0.173182,-0.009543,-0.009662
580,0.081313,-0.009543,-0.024086
581,-0.010555,-0.009543,0.004761
582,-0.240227,0.03778,0.033609
583,-0.125391,0.022005,0.033609
584,-0.05649,0.022005,0.004761
585,-0.010555,-0.056865,-0.03851
586,-0.010555,-0.056865,-0.052934
587,-0.010555,-0.041091,-0.067357
588,-0.05649,-0.009543,0.004761
589,-0.010555,-0.025317,-0.009662
590,0.035379,-0.041091,-0.009662
591,0.058346,-0.025317,-0.03851
592,0.035379,-0.025317,-0.024086
593,0.058346,-0.025317,-0.024086
594,0.035379,-0.009543,-0.067357
595,0.012412,-0.041091,0.004761
596,0.012412,-0.025317,-0.024086
597,-0.079457,-0.041091,-0.024086
598,-0.21726,-0.009543,-0.03851
599,-0.148358,-0.025317,-0.009662
600,-0.05649,-0.009543,0.019185
601,-0.033523,0.022005,0.07688
602,-0.05649,0.006231,0.048033
603,-0.079457,-0.009543,0.033609
604,-0.05649,-0.056865,-0.024086
605,-0.05649,-0.041091,-0.03851
606,0.035379,-0.025317,-0.024086
607,0.081313,-0.009543,-0.024086
608,0.127248,0.022005,-0.009662
609,0.10428,0.006231,0.004761
610,0.081313,0.022005,0.048033
611,0.10428,0.022005,0.062456
612,0.10428,0.03778,0.062456
613,0.035379,0.022005,0.048033
614,-0.05649,-0.009543,-0.024086
615,-0.033523,-0.041091,-0.052934
616,-0.010555,-0.025317,-0.052934
617,0.058346,-0.009543,-0.024086
618,0.058346,-0.025317,-0.024086
619,0.012412,-0.056865,-0.03851
620,0.035379,-0.025317,-0.052934
621,-0.079457,-0.025317,-0.03851
622,-0.263194,-0.009543,-0.024086
623,-0.37803,0.006231,-0.009662
624,-0.21726,-0.009543,0.004761
625,-0.171326,-0.009543,-0.009662
626,-0.148358,-0.025317,-0.009662
627,-0.102424,-0.025317,0.048033
628,-0.033523,0.006231,0.004761
629,0.058346,0.006231,0.019185
630,0.150215,0.006231,0.004761
631,0.288018,-0.009543,0.004761
632,0.310985,0.006231,-0.009662
633,0.333952,-0.009543,-0.009662
634,0.310985,-0.009543,-0.009662
635,0.219116,-0.009543,0.004761
636,0.10428,-0.009543,-0.009662
637,-0.05649,0.006231,0.019185
638,0.012412,-0.025317,0.004761
639,0.058346,0.03778,0.048033
640,0.081313,0.069328,-0.024086
641,0.035379,0.053554,-0.024086
642,0.081313,0.006231,-0.024086
643,0.127248,0.006231,-0.009662
644,0.081313,-0.025317,0.004761
645,0.058346,-0.025317,-0.009662
646,0.081313,-0.041091,0.004761
647,0.058346,-0.041091,-0.009662
648,-0.033523,-0.072639,-0.009662
649,-0.079457,-0.056865,0.004761
650,-0.102424,-0.009543,-0.009662
651,-0.102424,-0.009543,0.004761
652,-0.010555,-0.025317,-0.009662
653,-0.033523,-0.009543,-0.009662
654,0.150215,-0.009543,-0.009662
655,0.242083,-0.009543,0.004761
656,0.265051,-0.009543,0.033609
657,0.219116,0.006231,0.048033
658,0.127248,0.006231,0.019185
659,0.035379,0.006231,-0.009662
660,-0.033523,-0.009543,-0.024086
661,-0.148358,-0.025317,-0.03851
662,-0.240227,-0.025317,-0.03851
663,-0.263194,-0.056865,-0.03851
664,-0.171326,-0.025317,-0.009662
665,0.012412,-0.009543,0.019185
666,0.035379,0.006231,0.004761
667,0.081313,0.006231,-0.024086
668,0.035379,-0.009543,-0.03851
669,0.035379,0.006231,-0.024086
670,-0.033523,-0.025317,-0.024086
671,-0.05649,-0.025317,-0.024086
672,0.10428,-0.009543,-0.024086
673,0.425821,-0.041091,0.019185
674,0.425821,-0.025317,0.019185
675,0.288018,-0.009543,0.004761
676,0.035379,-0.009543,-0.009662
677,0.058346,-0.009543,0.004761
678,0.10428,0.022005,0.004761
679,0.012412,0.006231,0.019185
680,-0.194293,0.006231,0.004761
681,-0.423964,-0.025317,-0.009662
682,-0.492866,-0.025317,0.004761
683,-0.263194,-0.025317,0.004761
684,-0.102424,-0.025317,-0.009662
685,-0.033523,-0.025317,-0.024086
686,-0.102424,-0.009543,-0.024086
687,-0.05649,-0.009543,-0.009662
688,0.012412,-0.025317,-0.024086
689,0.035379,-0.025317,-0.024086
690,0.081313,-0.025317,-0.009662
691,0.012412,-0.041091,0.004761
692,0.058346,-0.025317,-0.024086
693,0.035379,-0.009543,0.004761
694,-0.010555,0.022005,0.033609
695,0.058346,-0.009543,0.033609
696,0.012412,0.022005,0.033609
697,0.035379,0.022005,0.019185
698,0.012412,0.006231,-0.03851
699,-0.05649,0.006231,-0.03851
700,0.035379,-0.009543,-0.052934
701,-0.010555,-0.025317,-0.009662
702,-0.033523,-0.025317,-0.009662
703,-0.010555,-0.025317,-0.024086
704,-0.010555,-0.041091,-0.03851
705,-0.010555,-0.025317,-0.03851
706,-0.033523,-0.025317,-0.03851
707,0.012412,-0.025317,-0.03851
708,-0.05649,-0.009543,0.004761
709,-0.033523,-0.009543,0.004761
710,-0.010555,-0.009543,0.004761
711,0.058346,0.022005,0.004761
712,0.058346,0.006231,-0.009662
713,0.012412,-0.009543,0.004761
714,0.012412,-0.009543,-0.009662
715,0.035379,-0.009543,0.004761
716,0.035379,-0.025317,-0.009662
717,-0.010555,-0.025317,-0.009662
718,-0.010555,-0.025317,-0.009662
719,-0.010555,-0.009543,-0.009662
720,-0.05649,0.006231,0.048033
721,0.012412,-0.009543,-0.009662
722,0.058346,-0.025317,-0.024086
723,-0.033523,-0.009543,0.033609
724,-0.010555,-0.009543,0.019185
725,0.035379,-0.009543,0.004761
726,0.058346,-0.009543,-0.024086
727,0.035379,-0.025317,-0.009662
728,0.012412,-0.009543,-0.009662
729,0.035379,-0.025317,-0.009662
730,0.035379,0.006231,0.004761
731,0.012412,0.006231,0.004761
732,-0.010555,0.006231,0.004761
733,0.012412,-0.009543,-0.009662
734,0.035379,-0.009543,-0.009662
735,-0.010555,0.006231,-0.024086
736,-0.010555,0.006231,-0.024086
737,-0.010555,-0.025317,-0.009662
738,0.035379,0.022005,0.019185
739,-0.010555,0.006231,0.033609
740,0.012412,0.006231,0.048033
741,0.058346,0.006231,0.019185
742,0.035379,-0.025317,-0.024086
743,-0.033523,-0.041091,-0.03851
744,0.012412,-0.025317,-0.03851
745,0.035379,-0.025317,-0.03851
746,-0.010555,-0.009543,-0.052934
747,0.012412,-0.009543,-0.024086
748,0.035379,0.006231,-0.009662
749,-0.033523,0.006231,-0.009662
750,0.035379,-0.041091,-0.024086
751,-0.010555,-0.041091,-0.024086
752,-0.033523,-0.009543,0.004761
753,0.012412,-0.009543,0.004761
754,-0.010555,0.006231,0.019185
755,-0.010555,-0.025317,0.004761
756,0.035379,-0.025317,0.004761
757,0.012412,-0.025317,0.004761
758,-0.05649,-0.025317,-0.009662
759,-0.033523,-0.009543,0.004761
760,-0.033523,-0.025317,0.004761
761,0.012412,-0.009543,0.004761
762,-0.05649,-0.009543,-0.009662
763,0.058346,-0.009543,-0.024086
764,0.012412,-0.025317,-0.024086
765,0.012412,-0.009543,-0.052934
766,-0.033523,-0.025317,-0.024086
767,0.035379,-0.009543,0.004761
768,0.058346,-0.009543,0.004761
769,0.10428,-0.009543,0.004761
770,0.10428,-0.009543,-0.009662
771,0.012412,-0.025317,-0.009662
772,0.012412,-0.025317,0.019185
773,0.081313,0.006231,0.033609
774,0.081313,0.006231,0.004761
775,0.127248,0.006231,0.004761
776,0.150215,0.006231,0.004761
777,0.081313,-0.025317,0.019185
778,0.058346,-0.009543,0.004761
779,0.081313,-0.009543,0.033609
780,-0.125391,-0.009543,0.004761
781,-0.171326,-0.009543,-0.009662
782,-0.148358,-0.025317,-0.03851
783,-0.05649,-0.041091,-0.081781
784,-0.05649,-0.025317,-0.081781
785,-0.05649,-0.025317,-0.052934
786,-0.010555,-0.025317,-0.03851
787,-0.010555,-0.025317,-0.024086
788,0.035379,-0.009543,-0.009662
789,0.035379,0.006231,-0.009662
790,0.058346,0.006231,-0.009662
791,0.035379,-0.009543,-0.009662
792,0.058346,-0.025317,0.004761
793,-0.010555,-0.009543,0.004761
794,0.035379,-0.009543,-0.009662
795,0.012412,0.006231,-0.009662
796,0.035379,-0.009543,-0.009662
797,-0.010555,0.006231,0.004761
798,0.012412,-0.009543,0.019185
799,0.035379,0.006231,0.004761
800,0.035379,-0.025317,-0.009662
801,0.035379,-0.009543,-0.009662
802,0.081313,-0.009543,0.004761
803,0.035379,-0.009543,0.019185
804,0.012412,-0.009543,-0.009662
805,0.012412,0.006231,0.004761
806,0.012412,-0.009543,0.004761
807,0.012412,-0.009543,0.033609
808,0.012412,-0.009543,0.019185
809,-0.010555,-0.009543,0.019185
810,0.012412,-0.009543,0.019185
811,-0.010555,-0.009543,-0.024086
812,-0.033523,-0.009543,-0.03851
813,-0.010555,-0.025317,-0.009662
814,-0.102424,-0.009543,-0.009662
815,0.012412,-0.009543,-0.024086
816,-0.033523,-0.025317,-0.03851
817,-0.010555,-0.009543,-0.024086
818,0.012412,-0.025317,0.004761
819,-0.033523,-0.009543,-0.009662
820,-0.010555,0.006231,-0.009662
821,-0.010555,-0.009543,-0.009662
822,0.035379,0.006231,0.019185
823,0.035379,0.022005,-0.009662
824,0.058346,0.022005,-0.009662
825,0.035379,0.006231,-0.009662
826,0.012412,0.006231,0.004761
827,0.012412,0.006231,-0.009662
828,0.012412,-0.041091,0.004761
829,0.012412,-0.072639,-0.009662
830,0.012412,-0.056865,-0.009662
831,0.035379,-0.025317,0.004761
832,0.081313,-0.009543,-0.009662
833,-0.010555,0.006231,0.004761
834,0.035379,-0.009543,-0.009662
835,0.012412,-0.009543,-0.024086
836,-0.010555,-0.009543,-0.009662
837,-0.010555,-0.009543,0.004761
838,0.012412,-0.009543,0.004761
839,-0.05649,-0.009543,0.033609
840,0.012412,-0.009543,0.019185
841,0.035379,0.006231,0.033609
842,0.012412,-0.009543,-0.009662
843,-0.05649,-0.009543,-0.024086
844,0.012412,0.006231,-0.009662
845,0.012412,-0.009543,-0.024086
846,-0.079457,-0.025317,-0.024086
847,-0.079457,-0.025317,-0.024086
848,0.035379,-0.025317,-0.03851
849,0.012412,-0.009543,-0.009662
850,-0.05649,-0.009543,-0.009662
851,-0.010555,-0.009543,-0.009662
852,-0.010555,-0.025317,0.004761
853,0.035379,-0.009543,-0.009662
854,0.012412,-0.009543,0.004761
855,-0.010555,-0.009543,0.004761
856,0.058346,-0.009543,-0.024086
857,0.081313,-0.025317,-0.009662
858,0.035379,-0.025317,0.004761
859,0.081313,-0.025317,-0.009662
860,0.058346,-0.041091,0.004761
861,-0.010555,0.006231,0.019185
862,-0.010555,-0.009543,0.004761
863,0.035379,-0.025317,0.004761
864,0.058346,-0.009543,0.004761
865,0.035379,-0.009543,0.019185
866,0.012412,-0.009543,-0.009662
867,-0.033523,-0.025317,-0.024086
868,-0.033523,-0.009543,-0.024086
869,-0.033523,-0.009543,-0.03851
870,-0.033523,-0.009543,-0.024086
871,0.012412,-0.009543,0.004761
872,0.012412,-0.025317,-0.009662
873,-0.010555,-0.009543,0.004761
874,0.012412,0.006231,0.019185
875,0.035379,-0.009543,0.004761
876,0.035379,0.006231,-0.009662
877,-0.010555,-0.025317,-0.024086
878,0.012412,-0.009543,-0.024086
879,0.012412,-0.009543,-0.024086
880,0.012412,-0.009543,-0.009662
881,0.012412,-0.009543,0.004761
882,0.035379,-0.009543,-0.009662
883,0.035379,0.022005,-0.009662
884,0.035379,-0.025317,-0.009662
885,-0.010555,-0.009543,-0.009662
886,0.081313,-0.025317,0.019185
887,0.081313,-0.009543,-0.009662
888,0.012412,-0.009543,-0.009662
889,0.012412,-0.009543,0.019185
890,0.058346,-0.025317,0.048033
891,0.058346,-0.025317,0.019185
892,0.058346,-0.009543,0.004761
893,0.012412,0.006231,0.004761
894,0.058346,-0.009543,0.019185
895,0.035379,0.006231,0.004761
896,0.058346,0.022005,-0.009662
897,-0.010555,-0.009543,-0.03851
898,-0.079457,-0.025317,-0.024086
899,-0.079457,-0.025317,-0.024086
900,-0.079457,-0.025317,-0.024086
901,0.012412,-0.025317,-0.009662
902,0.012412,-0.009543,0.004761
903,-0.033523,-0.009543,-0.024086
904,0.012412,0.006231,-0.009662
905,0.035379,-0.009543,-0.009662
906,0.035379,-0.009543,0.004761
907,0.058346,0.022005,-0.009662
908,0.012412,-0.009543,-0.009662
909,0.012412,-0.009543,-0.009662
910,0.012412,0.006231,-0.009662
911,0.035379,-0.009543,-0.009662
912,0.058346,0.006231,-0.009662
913,0.035379,-0.009543,-0.009662
914,0.012412,-0.009543,-0.009662
915,0.035379,0.006231,0.004761
916,0.012412,-0.009543,-0.009662
917,0.058346,-0.009543,-0.03851
918,0.058346,-0.009543,-0.009662
919,-0.010555,-0.009543,0.019185
920,-0.079457,-0.009543,-0.009662
921,-0.010555,-0.025317,-0.009662
922,-0.010555,-0.009543,-0.03851
923,-0.010555,-0.009543,-0.009662
924,-0.05649,-0.025317,-0.024086
925,-0.033523,-0.025317,-0.009662
926,-0.033523,-0.009543,-0.009662
927,-0.033523,-0.009543,-0.009662
928,-0.010555,-0.009543,-0.009662
929,0.012412,-0.009543,0.004761
930,-0.010555,0.006231,-0.009662
931,-0.010555,-0.009543,-0.009662
932,-0.010555,-0.009543,-0.009662
933,0.012412,-0.009543,0.004761
934,-0.010555,-0.009543,-0.024086
935,0.012412,-0.009543,-0.009662
936,0.035379,-0.025317,0.004761
937,0.10428,-0.009543,0.004761
938,0.058346,-0.009543,-0.009662
939,0.035379,0.006231,-0.009662
940,0.058346,0.006231,0.004761
941,0.012412,-0.009543,-0.009662
942,0.012412,-0.025317,-0.009662
943,0.012412,-0.009543,-0.009662
944,0.035379,-0.009543,-0.009662
945,0.058346,-0.025317,-0.009662
946,0.035379,-0.009543,-0.009662
947,-0.010555,-0.009543,-0.009662
948,0.012412,-0.009543,-0.024086
949,0.012412,-0.009543,-0.009662
950,-0.033523,0.006231,-0.009662
951,0.012412,0.022005,-0.009662
952,0.081313,0.022005,-0.009662
953,0.012412,0.006231,-0.024086
954,-0.010555,0.006231,-0.009662
955,-0.033523,-0.009543,0.004761
956,0.035379,-0.041091,0.004761
957,-0.033523,-0.056865,0.004761
958,-0.033523,-0.041091,0.004761
959,0.012412,-0.025317,0.019185
960,0.035379,-0.009543,0.033609
961,-0.010555,0.006231,0.004761
962,-0.010555,-0.009543,-0.024086
963,0.012412,-0.009543,-0.009662
964,0.035379,-0.009543,-0.024086
965,-0.010555,-0.009543,-0.009662
966,0.012412,-0.025317,0.004761
967,0.127248,-0.025317,-0.009662
968,0.035379,-0.009543,-0.024086
969,0.012412,-0.009543,-0.009662
970,0.012412,0.006231,-0.009662
971,-0.033523,0.006231,0.004761
972,0.081313,-0.009543,-0.009662
973,0.012412,-0.009543,-0.024086
974,0.012412,-0.025317,-0.009662
975,0.035379,-0.009543,-0.009662
976,0.012412,-0.025317,0.004761
977,0.035379,-0.009543,0.004761
978,-0.033523,0.006231,-0.009662
979,0.058346,-0.009543,-0.009662
980,0.012412,-0.009543,-0.024086
981,0.081313,-0.009543,-0.009662
982,0.012412,-0.009543,-0.024086
983,0.012412,0.006231,0.004761
984,0.012412,0.006231,0.004761
985,0.012412,-0.009543,-0.009662
986,-0.010555,0.006231,0.004761
987,0.012412,-0.009543,0.004761
988,0.012412,-0.025317,0.004761
989,-0.05649,0.006231,0.004761
990,0.012412,0.006231,-0.009662
991,0.058346,-0.009543,-0.024086
992,-0.033523,-0.025317,-0.009662
993,0.035379,-0.025317,-0.009662
994,0.012412,-0.025317,-0.009662
995,0.012412,-0.009543,-0.009662
996,0.012412,-0.009543,-0.024086
997,-0.010555,-0.009543,0.004761
998,0.035379,-0.009543,-0.009662
999,0.058346,-0.009543,-0.009662
1000,0.012412,-0.009543,0.004761
1001,0.012412,-0.009543,0.019185
1002,0.035379,0.006231,0.004761
1003,0.012412,-0.009543,-0.009662
1004,-0.010555,-0.009543,-0.009662
1005,0.058346,-0.025317,0.004761
1006,0.058346,0.006231,0.004761
1007,0.012412,-0.009543,-0.009662
1008,0.012412,-0.009543,-0.009662
1009,-0.010555,-0.009543,-0.009662
1010,0.012412,-0.009543,0.048033
1011,0.012412,-0.025317,-0.024086
1012,0.012412,-0.009543,-0.024086
1013,-0.010555,-0.009543,-0.009662
1014,0.035379,0.006231,-0.009662
1015,-0.010555,-0.025317,-0.009662
1016,-0.010555,-0.009543,-0.03851
1017,-0.033523,-0.025317,-0.009662
1018,-0.010555,-0.009543,-0.009662
1019,-0.033523,-0.009543,0.004761
1020,-0.033523,-0.025317,-0.009662
1021,-0.033523,-0.009543,0.004761
1022,-0.010555,-0.025317,0.004761
1023,-0.05649,-0.025317,0.004761
1024,-0.010555,-0.009543,-0.009662
1025,0.012412,-0.009543,-0.009662
1026,0.035379,-0.009543,-0.009662
1027,0.012412,-0.009543,-0.024086
1028,0.012412,-0.025317,0.004761
1029,0.058346,-0.009543,0.004761
1030,0.058346,-0.009543,0.004761
1031,0.035379,-0.009543,0.004761
1032,0.035379,-0.009543,-0.009662
1033,0.035379,0.006231,-0.009662
1034,0.058346,-0.009543,-0.024086
1035,0.035379,0.022005,0.004761
1036,0.012412,0.006231,0.004761
1037,0.035379,-0.009543,-0.009662
1038,0.058346,-0.009543,-0.009662
1039,-0.010555,-0.009543,0.004761
1040,-0.05649,0.006231,0.004761
1041,0.012412,0.006231,0.004761
1042,-0.010555,-0.009543,0.033609
1043,-0.010555,0.006231,0.004761
1044,-0.033523,-0.009543,0.004761
1045,-0.010555,-0.009543,0.019185
1046,-0.010555,-0.009543,0.004761
1047,0.035379,0.022005,0.004761
1048,-0.010555,0.006231,0.004761
1049,0.012412,-0.009543,-0.024086
1050,-0.033523,-0.025317,-0.024086
1051,-0.033523,-0.009543,-0.024086
1052,-0.033523,-0.025317,-0.009662
1053,0.012412,-0.025317,-0.009662
1054,-0.010555,-0.009543,0.004761
1055,0.035379,-0.009543,-0.009662
1056,0.012412,-0.009543,-0.024086
1057,0.058346,-0.009543,-0.024086
1058,-0.010555,-0.025317,-0.009662
1059,0.012412,-0.009543,-0.009662
1060,0.127248,0.006231,0.004761
1061,0.058346,-0.009543,0.004761
1062,0.012412,-0.009543,-0.009662
1063,0.035379,-0.009543,0.004761
1064,0.058346,-0.009543,0.004761
1065,0.035379,-0.009543,0.004761
1066,-0.010555,-0.009543,0.004761
1067,0.035379,0.006231,-0.009662
1068,0.058346,-0.009543,0.004761
1069,0.035379,-0.009543,-0.009662
1070,0.012412,-0.009543,0.004761
1071,0.012412,-0.041091,-0.009662
1072,0.012412,-0.025317,-0.024086
1073,-0.010555,-0.025317,0.048033
1074,-0.010555,-0.009543,-0.024086
1075,-0.010555,0.006231,-0.009662
1076,-0.010555,-0.009543,-0.024086
1077,0.012412,-0.009543,-0.009662
1078,-0.033523,-0.025317,-0.009662
1079,0.012412,0.006231,0.019185
1080,-0.010555,0.006231,0.033609
1081,-0.010555,0.006231,0.019185
1082,0.035379,0.006231,-0.009662
1083,0.035379,-0.009543,-0.009662
1084,-0.010555,-0.025317,-0.009662
1085,-0.010555,-0.025317,-0.024086
1086,0.012412,-0.025317,0.004761
1087,0.035379,-0.009543,0.004761
1088,0.058346,0.006231,0.033609
1089,0.035379,-0.025317,0.004761
1090,-0.010555,-0.025317,0.004761
1091,0.012412,-0.025317,0.004761
1092,-0.010555,-0.009543,-0.009662
1093,-0.010555,-0.009543,-0.009662
1094,-0.010555,-0.009543,-0.009662
1095,0.058346,-0.009543,-0.009662
1096,0.012412,-0.009543,-0.024086
1097,0.035379,-0.009543,-0.009662
1098,0.10428,0.006231,-0.024086
1099,0.012412,-0.009543,-0.024086
1100,-0.033523,-0.009543,-0.009662
1101,-0.033523,-0.025317,0.004761
1102,-0.033523,-0.025317,0.019185
1103,0.012412,0.006231,0.004761
1104,0.035379,-0.009543,-0.009662
1105,-0.010555,0.006231,-0.009662
1106,-0.033523,0.006231,-0.009662
1107,0.012412,0.006231,0.019185
1108,0.058346,-0.009543,-0.009662
1109,-0.010555,-0.025317,-0.009662
1110,-0.033523,-0.041091,-0.009662
1111,-0.033523,-0.041091,-0.009662
1112,-0.05649,-0.009543,-0.009662
1113,-0.010555,0.006231,-0.009662
1114,0.012412,0.006231,-0.009662
1115,0.058346,-0.009543,0.019185
1116,0.035379,-0.009543,0.004761
1117,0.035379,-0.009543,0.004761
1118,0.035379,-0.009543,0.004761
1119,0.058346,-0.025317,-0.009662
1120,0.035379,0.006231,0.004761
1121,0.035379,-0.009543,-0.024086
1122,0.081313,-0.009543,-0.009662
1123,0.012412,-0.009543,-0.009662
1124,0.012412,-0.009543,0.004761
1125,0.035379,-0.009543,-0.009662
1126,0.058346,-0.025317,0.004761
1127,0.035379,-0.009543,0.004761
1128,0.012412,0.006231,-0.009662
1129,0.012412,0.006231,-0.009662
1130,0.012412,-0.009543,-0.009662
1131,0.012412,-0.009543,0.004761
1132,-0.033523,-0.009543,0.004761
1133,-0.010555,-0.025317,0.004761
1134,0.012412,-0.009543,-0.024086
1135,0.035379,-0.009543,0.004761
1136,-0.010555,-0.009543,-0.009662
1137,0.035379,-0.009543,0.004761
1138,0.012412,-0.025317,-0.009662
1139,-0.033523,-0.009543,-0.009662
1140,0.012412,-0.009543,0.004761
1141,0.035379,0.006231,-0.009662
1142,-0.010555,-0.009543,-0.024086
1143,-0.010555,-0.009543,-0.009662
1144,0.035379,0.006231,0.004761
1145,0.012412,0.006231,0.004761
1146,0.035379,0.006231,0.004761
1147,0.012412,0.006231,-0.009662
1148,0.012412,-0.025317,0.004761
1149,0.012412,0.006231,-0.024086
1150,0.035379,0.006231,-0.009662
1151,0.012412,-0.009543,-0.024086
1152,0.035379,-0.009543,-0.009662
1153,0.035379,0.006231,0.004761
1154,0.012412,-0.009543,-0.009662
1155,0.035379,-0.025317,0.004761
1156,0.081313,-0.025317,-0.024086
1157,0.081313,-0.025317,-0.009662
1158,0.035379,-0.025317,0.004761
1159,-0.010555,-0.025317,0.004761
1160,0.012412,-0.009543,-0.024086
1161,-0.010555,-0.009543,-0.009662
1162,-0.010555,-0.009543,-0.009662
1163,-0.010555,-0.009543,0.004761
1164,-0.05649,-0.009543,-0.009662
1165,-0.010555,-0.009543,-0.009662
1166,-0.010555,0.006231,0.004761
1167,-0.033523,-0.009543,-0.009662
1168,-0.010555,-0.009543,0.004761
1169,-0.010555,-0.025317,0.004761
1170,-0.033523,-0.025317,-0.009662
1171,0.035379,-0.025317,-0.009662
1172,-0.010555,-0.009543,-0.009662
1173,-0.010555,-0.025317,-0.009662
1174,-0.010555,-0.009543,0.004761
1175,0.035379,0.006231,-0.024086
1176,0.035379,-0.025317,-0.024086
1177,0.035379,-0.009543,0.004761
1178,-0.010555,-0.009543,0.004761
1179,0.012412,-0.009543,-0.009662
1180,0.035379,-0.025317,-0.009662
1181,0.035379,-0.025317,-0.009662
1182,0.035379,-0.009543,-0.009662
1183,0.012412,0.006231,-0.009662
1184,0.035379,-0.009543,-0.024086
1185,0.035379,-0.009543,-0.009662
1186,-0.010555,-0.009543,-0.009662
1187,0.058346,-0.009543,-0.009662
1188,0.012412,-0.009543,0.004761
1189,0.012412,-0.025317,0.019185
1190,-0.010555,0.006231,0.004761
1191,0.012412,-0.009543,0.004761
1192,0.012412,-0.009543,-0.009662
1193,-0.033523,-0.009543,-0.009662
1194,-0.010555,-0.009543,0.004761
1195,0.012412,-0.025317,-0.009662
1196,-0.010555,0.006231,0.019185
1197,0.012412,-0.009543,0.004761
1198,0.012412,-0.009543,-0.009662
1199,0.035379,-0.009543,-0.009662
1200,-0.033523,-0.009543,-0.009662
1201,-0.010555,-0.025317,-0.009662
1202,0.081313,0.006231,0.019185
1203,0.035379,-0.009543,-0.009662
1204,0.012412,-0.025317,-0.009662
1205,0.035379,-0.009543,0.004761
1206,0.035379,-0.009543,0.004761
1207,0.035379,-0.009543,0.004761
1208,0.035379,-0.009543,0.004761
1209,0.012412,-0.025317,-0.024086
1210,0.012412,-0.009543,-0.009662
1211,0.012412,-0.009543,-0.009662
1212,-0.010555,-0.009543,-0.009662
1213,0.012412,-0.025317,-0.009662
1214,0.058346,-0.009543,-0.024086
1215,0.012412,-0.009543,0.004761
1216,-0.033523,-0.009543,-0.009662
1217,0.035379,-0.009543,-0.009662
1218,0.012412,0.022005,0.004761
1219,0.012412,0.069328,0.004761
1220,0.012412,-0.025317,-0.024086
1221,0.012412,-0.025317,-0.009662
1222,0.012412,-0.009543,-0.009662
1223,-0.010555,-0.025317,0.019185
1224,-0.010555,-0.009543,-0.009662
1225,0.012412,-0.025317,-0.024086
1226,-0.010555,-0.009543,-0.024086
1227,-0.033523,-0.009543,-0.009662
1228,0.035379,-0.041091,-0.009662
1229,0.012412,0.006231,-0.009662
1230,0.035379,0.006231,0.004761
1231,-0.033523,-0.025317,-0.009662
1232,0.012412,-0.009543,-0.009662
1233,0.035379,0.006231,0.004761
1234,0.035379,-0.009543,-0.009662
1235,0.012412,-0.025317,-0.009662
1236,0.035379,-0.009543,-0.009662
1237,0.012412,0.006231,-0.024086
1238,0.035379,0.006231,-0.009662
1239,0.058346,-0.009543,-0.009662
1240,0.012412,-0.009543,0.004761
1241,0.058346,-0.025317,0.019185
1242,0.012412,-0.009543,-0.009662
1243,-0.010555,-0.009543,-0.009662
1244,0.012412,-0.009543,0.004761
1245,0.035379,-0.009543,0.004761
1246,0.012412,-0.009543,-0.009662
1247,0.012412,0.006231,0.004761
1248,0.012412,0.006231,-0.009662
1249,0.012412,-0.025317,0.004761
1250,-0.010555,-0.009543,0.004761
1251,-0.033523,0.006231,-0.024086
1252,-0.010555,-0.009543,-0.024086
1253,-0.033523,-0.041091,-0.024086
1254,-0.05649,-0.009543,-0.009662
1255,0.012412,-0.009543,0.004761
1256,0.035379,-0.009543,0.004761
1257,0.035379,-0.009543,0.004761
1258,-0.033523,-0.009543,-0.009662
1259,-0.010555,-0.009543,-0.024086
1260,0.035379,-0.009543,-0.009662
1261,0.012412,-0.025317,-0.009662
1262,0.012412,0.006231,0.004761
1263,0.012412,-0.009543,-0.009662
1264,0.035379,-0.009543,-0.009662
1265,0.012412,-0.009543,-0.009662
1266,-0.010555,-0.009543,-0.009662
1267,0.035379,0.006231,-0.009662
1268,0.058346,0.006231,-0.009662
1269,0.012412,-0.025317,0.004761
1270,-0.010555,-0.025317,-0.024086
1271,0.012412,-0.009543,-0.024086
1272,0.012412,-0.009543,0.004761
1273,0.012412,-0.009543,0.004761
1274,-0.010555,-0.009543,-0.009662
1275,0.012412,-0.025317,-0.009662
1276,0.012412,-0.025317,-0.009662
1277,0.012412,-0.009543,-0.009662
1278,-0.010555,0.006231,0.019185
1279,-0.05649,-0.025317,-0.009662
1280,-0.033523,-0.009543,-0.009662
1281,-0.010555,0.069328,0.004761
1282,0.012412,0.006231,-0.009662
1283,0.012412,-0.009543,0.004761
1284,-0.010555,-0.009543,-0.009662
1285,-0.05649,-0.009543,-0.009662
1286,0.035379,0.006231,0.004761
1287,0.012412,-0.009543,-0.009662
1288,0.058346,-0.025317,0.019185
1289,-0.010555,-0.009543,0.004761
1290,0.012412,-0.009543,-0.009662
1291,0.058346,0.006231,0.004761
1292,0.035379,-0.009543,0.004761
1293,-0.010555,-0.009543,0.004761
1294,0.012412,0.006231,-0.009662
1295,0.035379,0.006231,-0.009662
1296,0.035379,-0.009543,-0.009662
1297,-0.010555,-0.025317,-0.024086
1298,0.012412,-0.009543,-0.024086
1299,0.035379,0.006231,-0.024086
1300,0.012412,-0.009543,-0.009662
1301,-0.010555,-0.009543,0.004761
1302,0.035379,0.006231,0.004761
1303,0.012412,0.006231,-0.009662
1304,0.035379,0.006231,0.004761
1305,-0.033523,-0.009543,0.004761
1306,0.012412,-0.009543,0.004761
1307,0.058346,-0.009543,-0.009662
1308,-0.010555,-0.009543,0.004761
1309,-0.010555,0.006231,0.033609
1310,-0.010555,-0.009543,0.004761
1311,-0.010555,-0.025317,-0.03851
1312,-0.010555,-0.009543,-0.024086
1313,-0.033523,-0.009543,-0.024086
1314,-0.033523,-0.009543,0.004761
1315,0.012412,-0.009543,-0.009662
1316,-0.010555,-0.009543,-0.009662
1317,-0.010555,0.006231,0.004761
1318,-0.010555,-0.009543,0.004761
1319,0.035379,-0.009543,-0.009662
1320,0.012412,0.006231,-0.009662
1321,0.035379,-0.009543,0.004761
1322,0.058346,-0.025317,0.004761
1323,0.035379,-0.009543,0.004761
1324,0.012412,-0.025317,-0.009662
1325,-0.010555,-0.009543,-0.009662
1326,0.035379,-0.025317,-0.009662
1327,0.035379,-0.025317,0.004761
1328,0.012412,-0.009543,0.004761
1329,0.035379,-0.009543,0.019185
1330,0.012412,-0.009543,0.019185
1331,0.012412,-0.009543,0.019185
1332,-0.010555,0.006231,0.019185
1333,0.035379,-0.009543,0.004761
1334,-0.010555,-0.009543,0.004761
1335,-0.010555,-0.009543,-0.009662
1336,-0.033523,0.006231,-0.009662
1337,-0.010555,-0.025317,-0.009662
1338,-0.010555,-0.025317,-0.03851
1339,-0.010555,-0.025317,-0.024086
1340,-0.010555,-0.025317,-0.009662
1341,0.012412,-0.025317,-0.009662
1342,0.012412,-0.009543,-0.009662
1343,-0.05649,-0.025317,0.004761
1344,-0.010555,-0.009543,-0.024086
1345,0.035379,-0.009543,0.004761
1346,-0.033523,-0.009543,-0.009662
1347,0.012412,0.006231,0.004761
1348,0.012412,-0.009543,-0.009662
1349,0.035379,-0.009543,0.004761
1350,0.035379,-0.009543,0.004761
1351,0.012412,0.006231,0.004761
1352,0.012412,-0.009543,0.004761
1353,0.012412,-0.009543,0.004761
1354,-0.033523,0.006231,-0.009662
1355,0.035379,0.006231,0.004761
1356,0.081313,0.022005,0.004761
1357,0.012412,-0.009543,0.004761
1358,0.012412,-0.009543,-0.009662
1359,0.035379,-0.009543,0.004761
1360,0.012412,-0.009543,-0.009662
1361,-0.010555,-0.025317,-0.009662
1362,-0.033523,-0.009543,0.004761
1363,-0.033523,0.006231,-0.009662
1364,0.058346,-0.009543,0.004761
1365,0.012412,-0.009543,-0.024086
1366,0.012412,-0.009543,-0.009662
1367,0.035379,-0.025317,-0.009662
1368,-0.033523,0.006231,0.004761
1369,-0.05649,-0.009543,-0.009662
1370,-0.033523,-0.025317,0.019185
1371,0.012412,-0.009543,-0.024086
1372,0.012412,-0.009543,-0.009662
1373,-0.010555,0.006231,-0.009662
1374,0.012412,-0.009543,-0.009662
1375,0.058346,-0.025317,-0.024086
1376,0.012412,-0.009543,-0.024086
1377,-0.033523,0.006231,0.004761
1378,-0.010555,-0.009543,0.004761
1379,0.035379,-0.009543,0.019185
1380,0.058346,-0.009543,-0.024086
1381,0.012412,-0.009543,-0.009662
1382,0.058346,-0.009543,0.004761
1383,0.012412,-0.009543,0.019185
1384,-0.010555,0.006231,0.004761
1385,-0.010555,-0.009543,0.004761
1386,0.035379,-0.009543,0.004761
1387,0.012412,-0.009543,0.004761
1388,-0.010555,-0.025317,-0.009662
1389,-0.010555,-0.009543,-0.009662
1390,0.035379,-0.009543,0.004761
1391,-0.010555,-0.009543,0.004761
1392,0.012412,-0.009543,0.004761
1393,-0.010555,-0.009543,-0.009662
1394,-0.033523,-0.025317,0.004761
1395,-0.033523,-0.009543,-0.009662
1396,-0.033523,0.006231,0.004761
1397,-0.033523,0.022005,0.004761
1398,0.012412,-0.009543,0.004761
1399,0.012412,-0.009543,0.004761
1400,0.012412,-0.009543,0.004761
1401,-0.033523,-0.025317,0.004761
1402,0.035379,-0.025317,0.048033
1403,0.012412,-0.009543,-0.009662
1404,-0.05649,-0.009543,0.004761
1405,0.035379,-0.009543,-0.009662
1406,0.012412,0.006231,0.004761
1407,0.035379,-0.025317,-0.009662
1408,-0.05649,-0.025317,0.004761
1409,-0.010555,0.006231,0.004761
1410,0.035379,-0.009543,-0.009662
1411,0.012412,-0.025317,-0.009662
1412,0.012412,-0.009543,-0.024086
1413,0.081313,0.006231,0.004761
1414,0.012412,-0.009543,0.004761
1415,-0.010555,-0.009543,-0.009662
1416,-0.010555,-0.009543,0.004761
1417,0.012412,0.006231,0.004761
1418,0.012412,-0.025317,-0.009662
1419,0.035379,0.006231,0.004761
1420,-0.033523,0.006231,0.004761
1421,0.035379,-0.009543,0.004761
1422,0.035379,-0.009543,0.004761
1423,-0.010555,-0.009543,-0.009662
1424,-0.033523,-0.025317,-0.009662
1425,-0.010555,-0.025317,-0.009662
1426,-0.033523,0.006231,-0.009662
1427,-0.033523,-0.009543,-0.009662
1428,0.012412,-0.009543,0.019185
1429,-0.033523,-0.025317,0.004761
1430,0.012412,-0.009543,-0.009662
1431,-0.010555,-0.041091,-0.009662
1432,-0.033523,-0.025317,0.004761
1433,0.035379,0.006231,0.004761
1434,0.035379,-0.009543,-0.024086
1435,-0.010555,-0.041091,-0.024086
1436,0.012412,-0.041091,-0.03851
1437,0.035379,-0.009543,-0.024086
1438,0.035379,0.006231,-0.024086
1439,0.012412,-0.009543,0.004761
1440,-0.010555,-0.025317,-0.009662
1441,-0.010555,-0.009543,-0.009662
1442,-0.010555,-0.009543,-0.009662
1443,-0.010555,-0.009543,0.004761
1444,0.058346,-0.025317,-0.009662
1445,0.058346,-0.025317,0.019185
1446,-0.010555,0.022005,0.019185
1447,-0.033523,-0.009543,0.019185
1448,0.012412,-0.009543,-0.009662
1449,0.012412,-0.009543,-0.009662
1450,0.035379,-0.009543,0.004761
1451,-0.033523,-0.009543,0.004761
1452,0.012412,-0.009543,0.004761
1453,-0.010555,-0.009543,0.019185
1454,0.012412,-0.009543,-0.009662
1455,-0.033523,-0.009543,-0.009662
1456,-0.010555,-0.009543,-0.024086
1457,0.012412,-0.025317,-0.009662
1458,-0.010555,-0.009543,-0.009662
1459,0.012412,-0.009543,-0.009662
1460,0.035379,0.006231,-0.009662
1461,0.012412,-0.025317,0.004761
1462,-0.010555,-0.025317,-0.009662
1463,0.035379,-0.009543,-0.009662
1464,-0.010555,0.006231,-0.009662
1465,0.058346,-0.009543,0.004761
1466,-0.010555,-0.009543,-0.009662
1467,0.035379,-0.025317,0.019185
1468,0.035379,-0.009543,-0.024086
1469,0.035379,-0.009543,-0.009662
1470,0.035379,-0.009543,-0.009662
1471,-0.033523,-0.025317,-0.009662
1472,0.035379,-0.025317,-0.009662
1473,0.012412,-0.009543,-0.009662
1474,0.012412,-0.025317,-0.009662
1475,0.035379,-0.009543,-0.009662
1476,0.035379,-0.009543,-0.009662
1477,0.012412,-0.009543,0.004761
1478,-0.079457,0.006231,0.004761
1479,-0.010555,-0.009543,-0.009662
1480,-0.010555,-0.009543,-0.009662
1481,-0.033523,-0.009543,-0.009662
1482,-0.033523,0.006231,-0.009662
1483,-0.010555,0.006231,-0.009662
1484,0.012412,0.006231,0.004761
1485,-0.033523,0.006231,-0.009662
1486,0.035379,0.022005,0.004761
1487,0.058346,-0.009543,0.019185
1488,-0.010555,0.006231,0.019185
1489,-0.010555,-0.025317,0.004761
1490,0.012412,-0.009543,0.004761
1491,0.012412,-0.009543,0.004761
1492,-0.05649,-0.009543,0.004761
1493,-0.010555,-0.009543,0.004761
1494,0.035379,-0.025317,0.004761
1495,0.035379,-0.009543,0.004761
1496,0.012412,-0.009543,-0.009662
1497,-0.010555,-0.009543,-0.009662
1498,0.012412,-0.025317,-0.009662
1499,0.035379,-0.025317,-0.009662
1500,0.012412,-0.025317,-0.009662
1501,0.035379,-0.025317,-0.024086
1502,0.012412,-0.009543,-0.024086
1503,0.127248,-0.009543,0.004761
1504,0.012412,-0.025317,-0.009662
1505,0.012412,-0.009543,-0.024086
1506,0.012412,-0.009543,-0.009662
1507,-0.033523,-0.009543,-0.009662
1508,-0.010555,-0.009543,0.004761
1509,-0.010555,-0.009543,0.004761
1510,-0.010555,-0.025317,-0.009662
1511,-0.010555,-0.009543,0.004761
1512,-0.033523,0.006231,-0.009662
1513,-0.033523,-0.009543,0.004761
1514,0.012412,0.006231,0.004761
1515,-0.010555,-0.009543,0.019185
1516,-0.010555,-0.009543,0.004761
1517,-0.010555,-0.009543,0.004761
1518,-0.010555,0.006231,-0.009662
1519,-0.010555,-0.009543,0.004761
1520,0.035379,-0.025317,0.004761
1521,-0.010555,-0.009543,0.004761
1522,0.035379,-0.009543,0.004761
1523,-0.010555,-0.025317,0.004761
1524,-0.010555,-0.009543,-0.009662
1525,0.012412,-0.009543,-0.024086
1526,0.012412,-0.025317,-0.009662
1527,-0.010555,-0.025317,-0.009662
1528,0.035379,-0.009543,-0.009662
1529,0.058346,-0.025317,0.004761
1530,0.035379,-0.025317,-0.009662
1531,-0.010555,-0.025317,-0.009662
1532,0.035379,-0.009543,-0.009662
1533,0.058346,-0.009543,0.004761
1534,0.012412,-0.009543,0.004761
1535,-0.033523,-0.025317,-0.024086
1536,0.012412,-0.009543,-0.009662
1537,0.035379,0.006231,0.004761
1538,-0.010555,0.006231,0.019185
1539,-0.010555,-0.009543,0.004761
1540,-0.033523,-0.009543,0.004761
1541,0.012412,-0.025317,-0.03851
1542,-0.033523,-0.009543,-0.024086
1543,-0.05649,-0.025317,-0.009662
1544,-0.05649,-0.025317,-0.024086
1545,-0.033523,-0.025317,-0.03851
1546,-0.010555,-0.009543,-0.024086
1547,-0.010555,-0.009543,0.019185
1548,0.012412,0.006231,0.004761
1549,0.035379,-0.009543,0.019185
1550,-0.033523,-0.025317,-0.009662
1551,0.012412,-0.009543,0.004761
1552,0.012412,-0.009543,0.004761
1553,0.012412,-0.009543,-0.009662
1554,-0.010555,-0.009543,-0.009662
1555,0.012412,0.006231,0.004761
1556,-0.010555,-0.009543,0.004761
1557,0.10428,-0.025317,-0.009662
1558,0.012412,-0.025317,-0.009662
1559,0.012412,-0.009543,0.004761
1560,0.035379,-0.009543,0.004761
1561,0.012412,-0.009543,-0.009662
1562,0.012412,-0.009543,-0.009662
1563,0.012412,-0.009543,-0.024086
1564,0.035379,-0.009543,0.004761
1565,-0.010555,0.006231,0.004761
1566,0.012412,-0.009543,0.004761
1567,-0.010555,-0.025317,-0.009662
1568,0.035379,0.006231,-0.009662
1569,0.012412,-0.009543,0.004761
1570,-0.033523,-0.009543,0.004761
1571,0.012412,0.006231,0.004761
1572,0.012412,-0.009543,0.004761
1573,-0.010555,-0.025317,-0.009662
1574,-0.010555,-0.025317,-0.024086
1575,0.012412,-0.009543,-0.009662
1576,-0.010555,-0.009543,0.004761
1577,-0.05649,-0.025317,-0.009662
1578,-0.05649,-0.025317,-0.009662
1579,-0.033523,-0.009543,-0.009662
1580,0.012412,-0.009543,-0.009662
1581,-0.010555,-0.009543,0.004761
1582,0.035379,-0.009543,-0.009662
1583,0.012412,-0.025317,-0.009662
1584,-0.010555,-0.009543,0.004761
1585,-0.010555,-0.009543,-0.009662
1586,-0.010555,-0.009543,-0.009662
1587,0.035379,-0.009543,0.004761
1588,0.035379,-0.025317,0.019185
1589,0.012412,-0.009543,-0.009662
1590,-0.010555,-0.009543,-0.009662
1591,0.035379,-0.009543,-0.009662
1592,0.035379,-0.025317,-0.009662
1593,0.012412,0.006231,-0.009662
1594,0.035379,-0.009543,-0.009662
1595,0.012412,0.006231,-0.024086
1596,-0.033523,-0.025317,-0.009662
1597,0.012412,-0.025317,-0.009662
1598,-0.033523,-0.025317,0.004761
1599,0.012412,-0.009543,0.019185
1600,-0.05649,-0.025317,-0.009662
1601,0.012412,-0.025317,-0.009662
1602,-0.033523,-0.009543,-0.009662
1603,0.012412,-0.009543,0.004761
1604,0.012412,-0.009543,-0.009662
1605,-0.010555,0.006231,-0.009662
1606,-0.010555,-0.009543,-0.009662
1607,-0.010555,-0.009543,0.004761
1608,-0.05649,-0.009543,0.019185
1609,0.012412,-0.025317,0.004761
1610,-0.033523,-0.009543,-0.009662
1611,-0.010555,-0.025317,-0.009662
1612,-0.033523,-0.009543,0.004761
1613,0.012412,-0.025317,-0.009662
1614,0.035379,-0.025317,0.004761
1615,0.058346,-0.009543,-0.024086
1616,-0.010555,-0.009543,0.004761
1617,0.012412,-0.025317,-0.009662
1618,0.035379,-0.009543,-0.009662
1619,0.035379,-0.025317,-0.009662
1620,0.012412,-0.025317,-0.009662
1621,-0.033523,-0.025317,-0.009662
1622,0.035379,-0.025317,-0.009662
1623,0.012412,-0.009543,-0.009662
1624,-0.010555,-0.009543,0.019185
1625,0.081313,-0.009543,-0.009662
1626,0.035379,-0.009543,-0.009662
1627,0.012412,0.006231,-0.009662
1628,-0.010555,0.006231,0.004761
1629,-0.033523,-0.009543,0.004761
1630,0.012412,0.006231,-0.009662
1631,-0.010555,-0.009543,-0.009662
1632,-0.010555,-0.009543,-0.009662
1633,-0.010555,-0.025317,0.004761
1634,-0.033523,-0.025317,0.004761
1635,-0.010555,-0.009543,-0.009662
1636,-0.033523,-0.009543,-0.009662
1637,-0.033523,-0.009543,-0.009662
1638,-0.010555,-0.025317,-0.009662
1639,0.012412,-0.009543,0.004761
1640,0.012412,-0.009543,-0.009662
1641,0.012412,0.006231,-0.009662
1642,-0.033523,-0.009543,-0.009662
1643,-0.033523,-0.041091,-0.009662
1644,-0.010555,-0.009543,-0.009662
1645,0.012412,-0.009543,-0.009662
1646,0.012412,-0.009543,0.004761
1647,-0.010555,-0.009543,-0.009662
1648,0.035379,-0.009543,0.019185
1649,0.035379,-0.025317,-0.009662
1650,0.035379,-0.009543,-0.009662
1651,0.058346,-0.025317,0.004761
1652,0.035379,-0.009543,0.019185
1653,0.058346,-0.009543,0.004761
1654,0.035379,-0.009543,0.004761
1655,-0.010555,-0.009543,0.019185
1656,0.012412,-0.009543,-0.009662
1657,0.035379,-0.009543,-0.024086
1658,0.035379,-0.009543,-0.03851
1659,-0.033523,-0.025317,0.004761
1660,-0.033523,-0.009543,-0.024086
1661,-0.010555,0.006231,0.019185
1662,-0.010555,-0.009543,0.004761
1663,-0.010555,-0.009543,-0.009662
1664,-0.05649,-0.041091,-0.009662
1665,-0.05649,-0.025317,-0.009662
1666,0.012412,-0.009543,0.004761
1667,0.012412,-0.009543,-0.009662
1668,-0.033523,-0.025317,0.004761
1669,-0.033523,0.006231,0.004761
1670,-0.033523,0.006231,0.004761
1671,-0.05649,0.006231,-0.009662
1672,-0.010555,0.006231,0.019185
1673,0.012412,0.006231,0.019185
1674,-0.033523,0.006231,0.019185
1675,-0.010555,-0.025317,-0.009662
1676,-0.05649,-0.041091,-0.009662
1677,-0.010555,-0.009543,-0.024086
1678,-0.033523,-0.009543,-0.024086
1679,0.012412,-0.025317,-0.009662
1680,0.035379,-0.009543,0.004761
1681,0.035379,0.006231,-0.009662
1682,0.012412,-0.009543,-0.009662
1683,0.012412,-0.025317,-0.009662
1684,0.035379,-0.009543,-0.009662
1685,0.012412,0.006231,-0.009662
1686,0.012412,-0.025317,-0.009662
1687,-0.010555,-0.009543,-0.009662
1688,0.035379,-0.009543,-0.009662
1689,0.012412,-0.009543,-0.009662
1690,0.012412,-0.009543,0.004761
1691,-0.033523,-0.025317,-0.009662
1692,0.012412,-0.025317,-0.009662
1693,0.012412,-0.009543,0.004761
1694,-0.033523,-0.009543,0.004761
1695,0.012412,0.006231,0.004761
1696,0.035379,-0.009543,-0.009662
1697,0.012412,0.006231,0.004761
1698,-0.010555,-0.009543,0.004761
1699,-0.05649,-0.009543,-0.009662
1700,-0.033523,-0.025317,-0.009662
1701,-0.010555,-0.009543,0.004761
1702,-0.033523,-0.009543,-0.009662
1703,0.012412,-0.025317,-0.009662
1704,0.035379,-0.009543,-0.024086
1705,-0.033523,-0.009543,-0.009662
1706,-0.033523,-0.025317,0.004761
1707,0.012412,-0.009543,-0.024086
1708,0.012412,-0.009543,0.004761
1709,-0.033523,-0.009543,-0.009662
1710,-0.010555,-0.009543,0.004761
1711,0.035379,-0.009543,0.004761
1712,0.058346,0.006231,0.004761
1713,0.058346,-0.009543,0.004761
1714,0.012412,0.006231,0.004761
1715,0.035379,-0.009543,-0.009662
1716,0.035379,-0.009543,-0.009662
1717,-0.033523,-0.009543,-0.009662
1718,0.035379,0.006231,-0.009662
1719,0.058346,-0.009543,-0.009662
1720,0.035379,-0.025317,-0.009662
1721,0.035379,-0.025317,-0.009662
1722,0.012412,-0.025317,-0.009662
1723,0.012412,-0.041091,-0.009662
1724,0.012412,-0.025317,-0.024086
1725,-0.010555,-0.009543,-0.009662
1726,-0.033523,0.006231,-0.009662
1727,-0.010555,0.022005,0.004761
1728,0.012412,-0.009543,0.004761
1729,-0.033523,0.006231,-0.009662
1730,-0.033523,-0.009543,-0.009662
1731,0.012412,0.006231,-0.009662
1732,-0.010555,0.069328,-0.024086
1733,-0.05649,-0.025317,-0.024086
1734,-0.010555,-0.025317,0.004761
1735,0.012412,-0.025317,0.004761
1736,-0.033523,0.006231,-0.009662
1737,-0.033523,-0.025317,-0.009662
1738,0.035379,-0.009543,-0.009662
1739,0.012412,-0.009543,0.004761
1740,-0.033523,-0.025317,0.004761
1741,0.035379,0.006231,-0.009662
1742,0.035379,-0.009543,-0.009662
1743,0.035379,0.006231,0.004761
1744,-0.010555,-0.009543,-0.024086
1745,0.012412,-0.025317,-0.024086
1746,-0.010555,-0.025317,-0.009662
1747,0.058346,0.006231,0.004761
1748,0.012412,-0.009543,0.004761
1749,0.035379,-0.009543,-0.009662
1750,0.012412,-0.025317,0.004761
1751,0.035379,-0.009543,0.004761
1752,-0.010555,-0.025317,-0.009662
1753,0.012412,-0.025317,-0.009662
1754,0.012412,-0.025317,-0.009662
1755,-0.010555,-0.009543,-0.009662
1756,-0.010555,-0.009543,-0.009662
1757,-0.010555,-0.009543,-0.009662
1758,-0.010555,0.006231,0.004761
1759,-0.033523,-0.025317,0.004761
1760,-0.05649,-0.025317,0.004761
1761,-0.033523,0.006231,-0.009662
1762,-0.010555,-0.009543,-0.009662
1763,-0.010555,-0.025317,0.004761
1764,-0.010555,-0.025317,0.004761
1765,-0.033523,-0.009543,-0.009662
1766,-0.010555,0.006231,-0.009662
1767,-0.05649,-0.009543,-0.009662
1768,-0.010555,-0.025317,0.004761
1769,0.012412,-0.009543,0.004761
1770,0.012412,-0.025317,-0.009662
1771,0.012412,0.006231,-0.009662
1772,-0.033523,-0.009543,0.004761
1773,-0.010555,-0.041091,0.004761
1774,0.058346,-0.041091,-0.024086
1775,0.012412,0.006231,-0.009662
1776,0.035379,-0.025317,-0.009662
1777,0.012412,-0.009543,0.004761
1778,0.035379,-0.009543,-0.024086
1779,0.035379,0.006231,-0.009662
1780,0.058346,-0.009543,-0.024086
1781,0.012412,-0.025317,0.004761
1782,-0.010555,-0.041091,-0.009662
1783,0.012412,-0.009543,0.019185
1784,0.012412,0.006231,0.004761
1785,0.012412,-0.009543,-0.009662
1786,-0.033523,-0.025317,0.004761
1787,-0.033523,-0.009543,-0.009662
1788,-0.05649,-0.009543,0.004761
1789,-0.010555,-0.025317,0.004761
1790,-0.010555,-0.009543,0.019185
1791,-0.033523,-0.009543,0.004761
1792,0.035379,0.022005,0.004761
1793,0.012412,-0.009543,-0.009662
1794,-0.010555,-0.025317,0.004761
1795,0.012412,-0.009543,-0.009662
1796,-0.033523,-0.009543,-0.009662
1797,-0.033523,-0.025317,-0.024086
1798,-0.033523,-0.009543,-0.009662
1799,-0.010555,-0.025317,0.004761
1800,0.012412,-0.025317,-0.009662
1801,0.035379,-0.025317,-0.009662
1802,-0.010555,-0.009543,0.004761
1803,0.035379,-0.056865,-0.009662
1804,0.058346,0.006231,-0.009662
1805,0.012412,-0.025317,-0.009662
1806,-0.033523,-0.025317,-0.009662
1807,-0.010555,-0.025317,0.004761
1808,-0.010555,-0.009543,0.004761
1809,0.012412,-0.009543,-0.024086
1810,0.012412,-0.025317,-0.009662
1811,0.035379,-0.009543,-0.009662
1812,0.012412,-0.009543,-0.009662
1813,-0.010555,-0.009543,0.004761
1814,0.012412,0.006231,0.019185
1815,-0.05649,-0.009543,-0.009662
1816,-0.033523,-0.025317,0.004761
1817,-0.010555,-0.025317,-0.009662
1818,-0.033523,-0.009543,-0.009662
1819,-0.010555,-0.009543,0.004761
1820,-0.010555,0.006231,-0.009662
1821,-0.010555,0.022005,-0.009662
1822,-0.010555,-0.009543,-0.009662
1823,-0.033523,-0.025317,-0.009662
1824,-0.010555,-0.025317,-0.024086
1825,-0.033523,-0.025317,-0.024086
1826,-0.010555,-0.009543,-0.009662
1827,0.012412,-0.009543,0.019185
1828,0.058346,0.006231,-0.009662
1829,0.012412,0.006231,-0.024086
1830,0.012412,-0.025317,-0.009662
1831,-0.010555,-0.009543,-0.024086
1832,0.058346,-0.025317,-0.009662
1833,0.035379,-0.041091,0.033609
1834,-0.010555,-0.009543,0.033609
1835,0.012412,-0.009543,0.019185
1836,-0.010555,0.006231,0.004761
1837,-0.010555,-0.009543,0.004761
1838,0.012412,0.006231,-0.009662
1839,0.058346,-0.009543,-0.024086
1840,-0.010555,-0.009543,-0.009662
1841,-0.010555,-0.009543,-0.009662
1842,0.035379,-0.009543,-0.009662
1843,-0.010555,-0.009543,0.004761
1844,0.012412,0.006231,0.019185
1845,-0.010555,-0.009543,-0.009662
1846,-0.010555,-0.025317,-0.009662
1847,0.012412,-0.009543,-0.024086
1848,-0.033523,-0.009543,-0.009662
1849,-0.033523,0.006231,-0.009662
1850,-0.010555,-0.009543,0.004761
1851,-0.033523,-0.009543,-0.009662
1852,-0.010555,-0.009543,-0.009662
1853,0.035379,-0.025317,-0.009662
1854,-0.010555,0.006231,0.004761
1855,-0.05649,-0.009543,-0.024086
1856,0.012412,-0.009543,0.019185
1857,0.012412,-0.009543,0.004761
1858,0.035379,-0.009543,0.004761
1859,0.058346,-0.025317,-0.009662
1860,-0.010555,-0.009543,-0.009662
1861,0.058346,-0.025317,-0.024086
1862,0.058346,-0.025317,-0.009662
1863,-0.010555,-0.025317,0.004761
1864,0.012412,-0.009543,-0.009662
1865,0.035379,-0.009543,0.004761
1866,-0.010555,-0.025317,0.004761
1867,-0.010555,-0.025317,-0.009662
1868,-0.010555,0.006231,-0.009662
1869,0.058346,-0.009543,0.004761
1870,0.012412,-0.009543,0.004761
1871,0.035379,-0.025317,-0.009662
1872,-0.010555,-0.025317,-0.009662
1873,-0.010555,-0.009543,0.004761
1874,-0.05649,-0.025317,-0.009662
1875,-0.079457,-0.025317,-0.009662
1876,-0.05649,-0.009543,0.004761
1877,-0.010555,-0.009543,0.004761
1878,-0.010555,0.006231,0.019185
1879,-0.033523,-0.009543,0.004761
1880,0.012412,-0.009543,0.004761
1881,-0.033523,-0.025317,0.004761
1882,-0.05649,-0.009543,-0.009662
1883,-0.010555,-0.009543,0.004761
1884,0.012412,-0.025317,-0.009662
1885,-0.010555,-0.025317,-0.009662
1886,-0.010555,-0.009543,0.019185
1887,0.035379,-0.025317,0.004761
1888,0.012412,-0.009543,-0.024086
1889,0.012412,-0.009543,0.004761
1890,0.012412,-0.009543,-0.024086
1891,0.012412,-0.041091,0.004761
1892,0.012412,-0.009543,-0.009662
1893,-0.033523,0.006231,-0.009662
1894,0.012412,-0.009543,0.004761
1895,0.012412,-0.009543,-0.009662
1896,0.012412,0.006231,0.004761
1897,-0.010555,0.006231,0.004761
1898,-0.010555,-0.025317,0.004761
1899,-0.033523,0.006231,-0.024086
1900,0.012412,-0.009543,0.004761
1901,-0.010555,-0.025317,0.004761
1902,-0.010555,-0.009543,-0.024086
1903,0.012412,0.006231,-0.009662
1904,0.012412,-0.025317,0.019185
1905,-0.010555,-0.025317,0.004761
1906,-0.010555,0.006231,-0.024086
1907,-0.033523,0.022005,-0.009662
1908,-0.010555,-0.009543,0.004761
1909,-0.033523,-0.025317,-0.009662
1910,-0.05649,-0.009543,-0.009662
1911,0.012412,-0.025317,-0.009662
1912,0.035379,-0.009543,-0.009662
1913,-0.033523,-0.009543,0.004761
1914,0.012412,-0.025317,0.004761
1915,0.012412,-0.009543,0.004761
1916,0.058346,-0.025317,0.004761
1917,-0.010555,0.006231,0.019185
1918,-0.079457,-0.009543,-0.009662
1919,0.012412,-0.009543,-0.009662
1920,0.012412,-0.009543,-0.009662
1921,-0.010555,0.006231,0.019185
1922,0.035379,-0.009543,-0.009662
1923,0.012412,0.006231,-0.024086
1924,0.035379,-0.009543,-0.024086
1925,-0.010555,-0.009543,-0.03851
1926,0.012412,-0.025317,-0.009662
1927,0.012412,-0.025317,-0.009662
1928,0.035379,0.006231,-0.024086
1929,0.012412,-0.009543,-0.009662
1930,-0.033523,-0.025317,-0.009662
1931,0.012412,-0.009543,-0.009662
1932,-0.010555,-0.009543,-0.009662
1933,-0.079457,-0.025317,-0.009662
1934,-0.05649,0.006231,0.004761
1935,-0.033523,0.006231,-0.009662
1936,0.012412,-0.025317,-0.009662
1937,-0.033523,-0.025317,-0.009662
1938,0.058346,-0.009543,-0.024086
1939,0.012412,-0.009543,0.004761
1940,-0.033523,-0.025317,0.004761
1941,-0.010555,-0.009543,0.004761
1942,0.012412,-0.009543,-0.009662
1943,0.035379,0.006231,-0.009662
1944,-0.010555,0.006231,0.004761
1945,0.012412,-0.025317,0.004761
1946,0.058346,-0.025317,-0.009662
1947,0.012412,-0.025317,0.004761
1948,0.012412,-0.009543,0.004761
1949,0.035379,-0.025317,0.004761
1950,0.035379,-0.025317,0.004761
1951,-0.010555,-0.009543,0.004761
1952,0.035379,0.022005,0.004761
1953,0.012412,-0.009543,0.004761
1954,0.012412,0.006231,0.004761
1955,0.035379,0.006231,0.004761
1956,0.012412,-0.009543,0.004761
1957,0.035379,-0.025317,0.004761
1958,0.012412,-0.009543,-0.009662
1959,-0.010555,-0.009543,-0.024086
1960,-0.05649,-0.009543,-0.024086
1961,-0.033523,-0.025317,-0.009662
1962,-0.010555,-0.025317,-0.009662
1963,0.012412,-0.009543,-0.009662
1964,-0.033523,-0.009543,-0.009662
1965,-0.033523,0.006231,0.004761
1966,0.012412,0.006231,-0.009662
1967,-0.033523,0.006231,-0.009662
1968,-0.010555,-0.009543,-0.024086
1969,0.012412,-0.025317,0.004761
1970,0.035379,-0.025317,-0.009662
1971,0.012412,-0.025317,0.004761
1972,-0.033523,-0.025317,-0.03851
1973,0.012412,-0.009543,0.004761
1974,-0.010555,-0.009543,-0.009662
1975,-0.010555,0.006231,-0.009662
1976,0.035379,0.006231,-0.009662
1977,0.058346,-0.041091,0.004761
1978,-0.010555,-0.025317,0.004761
1979,0.058346,-0.009543,0.004761
1980,0.058346,0.006231,-0.009662
1981,-0.010555,-0.009543,-0.009662
1982,-0.05649,-0.009543,-0.009662
1983,-0.033523,-0.025317,-0.024086
1984,0.081313,-0.025317,0.004761
1985,-0.010555,-0.009543,-0.024086
1986,-0.010555,-0.025317,-0.009662
1987,-0.010555,-0.025317,-0.009662
1988,-0.010555,0.006231,0.004761
1989,0.012412,-0.009543,0.004761
1990,-0.033523,0.022005,0.004761
1991,-0.010555,-0.025317,0.004761
1992,0.035379,-0.009543,0.004761
1993,-0.033523,0.006231,-0.009662
1994,-0.010555,-0.025317,0.004761
1995,-0.05649,-0.009543,-0.009662
1996,0.012412,-0.009543,-0.009662
1997,-0.033523,0.006231,-0.009662
1998,0.012412,-0.009543,-0.024086
1999,0.127248,-0.025317,0.019185
2000,-0.010555,-0.009543,0.004761
2001,-0.010555,-0.025317,-0.009662
2002,-0.010555,-0.025317,-0.009662
2003,-0.010555,-0.009543,-0.009662
2004,0.012412,-0.009543,0.004761
2005,0.012412,-0.009543,0.004761
2006,0.035379,0.006231,0.004761
2007,0.035379,-0.041091,0.004761
2008,0.058346,-0.009543,-0.009662
2009,0.012412,-0.009543,-0.009662
2010,0.012412,-0.009543,-0.009662
2011,0.035379,-0.009543,-0.009662
2012,-0.010555,0.006231,0.004761
2013,-0.010555,-0.025317,-0.009662
2014,-0.010555,-0.025317,-0.009662
2015,0.012412,-0.025317,-0.009662
2016,-0.010555,-0.009543,-0.009662
2017,0.035379,-0.009543,-0.024086
2018,-0.033523,0.006231,0.004761
2019,-0.010555,-0.009543,-0.024086
2020,-0.010555,-0.025317,0.004761
2021,0.012412,-0.009543,-0.009662
2022,0.012412,-0.025317,-0.009662
2023,0.012412,0.006231,0.004761
2024,-0.010555,0.006231,0.004761
2025,-0.033523,-0.009543,0.004761
2026,0.012412,-0.009543,-0.009662
2027,-0.010555,-0.009543,-0.009662
2028,-0.033523,-0.025317,0.004761
2029,-0.079457,-0.009543,0.004761
2030,-0.033523,0.006231,-0.009662
2031,0.035379,0.006231,-0.024086
2032,0.035379,-0.009543,0.019185
2033,0.035379,-0.009543,0.004761
2034,-0.010555,-0.025317,0.004761
2035,0.035379,-0.041091,0.004761
2036,0.058346,0.006231,-0.024086
2037,0.035379,-0.041091,0.048033
2038,0.035379,-0.009543,0.004761
2039,-0.010555,0.006231,0.004761
2040,0.012412,-0.009543,0.004761
2041,0.058346,-0.025317,-0.009662
2042,0.035379,-0.009543,-0.009662
2043,0.012412,-0.025317,-0.009662
2044,0.035379,0.006231,-0.009662
2045,-0.010555,-0.025317,-0.009662
2046,0.058346,-0.009543,-0.009662
2047,-0.010555,-0.009543,-0.009662
2048,-0.010555,-0.009543,-0.009662
2049,-0.033523,-0.009543,0.004761
2050,0.035379,0.006231,0.004761
2051,0.012412,0.006231,-0.009662
2052,-0.010555,-0.009543,0.004761
2053,-0.033523,-0.025317,0.004761
2054,-0.05649,-0.025317,-0.009662
2055,0.012412,0.006231,0.004761
2056,-0.010555,-0.009543,0.004761
2057,-0.05649,-0.025317,0.004761
2058,-0.010555,-0.041091,0.004761
2059,-0.010555,0.006231,0.004761
2060,0.012412,-0.009543,-0.009662
2061,-0.033523,-0.009543,-0.009662
2062,-0.033523,-0.025317,-0.009662
2063,0.012412,-0.009543,0.004761
2064,-0.010555,-0.009543,0.048033
2065,-0.010555,-0.009543,0.019185
2066,-0.010555,-0.009543,-0.024086
2067,0.058346,-0.009543,-0.009662
2068,-0.010555,-0.009543,-0.009662
2069,0.012412,-0.009543,-0.024086
2070,0.012412,-0.009543,-0.009662
2071,0.012412,-0.025317,-0.009662
2072,-0.033523,-0.009543,0.004761
2073,-0.010555,-0.025317,0.004761
2074,0.012412,-0.025317,-0.009662
2075,-0.010555,-0.025317,-0.009662
2076,0.012412,0.006231,0.004761
2077,0.012412,-0.009543,-0.024086
2078,0.035379,-0.009543,0.004761
2079,0.012412,0.006231,0.004761
2080,-0.010555,-0.009543,0.004761
2081,0.058346,-0.025317,-0.009662
2082,-0.010555,-0.009543,-0.009662
2083,0.012412,-0.009543,-0.009662
2084,-0.033523,-0.009543,-0.009662
2085,-0.033523,-0.025317,-0.024086
2086,-0.033523,-0.009543,-0.009662
2087,-0.010555,0.006231,0.004761
2088,-0.010555,-0.025317,-0.009662
2089,-0.010555,-0.009543,0.004761
2090,-0.033523,0.006231,-0.009662
2091,0.035379,0.006231,-0.009662
2092,-0.010555,0.006231,0.004761
2093,0.012412,-0.009543,-0.009662
2094,-0.010555,-0.025317,-0.009662
2095,0.012412,-0.025317,0.004761
2096,0.012412,-0.009543,0.019185
2097,-0.010555,-0.009543,-0.009662
2098,0.035379,-0.009543,-0.009662
2099,0.058346,-0.025317,-0.009662
2100,0.012412,0.006231,-0.009662
2101,0.012412,-0.009543,-0.009662
2102,-0.010555,-0.025317,-0.009662
2103,-0.010555,-0.009543,0.004761
2104,0.012412,0.006231,-0.009662
2105,0.012412,0.006231,0.019185
2106,0.012412,-0.009543,-0.009662
2107,-0.010555,-0.009543,-0.009662
2108,0.012412,-0.025317,0.004761
2109,0.012412,-0.009543,-0.009662
2110,-0.033523,-0.009543,-0.024086
2111,-0.033523,0.006231,0.004761
2112,-0.010555,-0.025317,0.004761
2113,-0.033523,-0.025317,0.004761
2114,-0.033523,0.006231,-0.009662
2115,-0.010555,-0.025317,-0.009662
2116,-0.010555,-0.009543,0.004761
2117,-0.010555,-0.025317,-0.009662
2118,0.012412,-0.009543,-0.009662
2119,-0.033523,-0.025317,-0.009662
2120,0.012412,-0.009543,0.004761
2121,0.012412,-0.009543,0.019185
2122,0.035379,-0.025317,-0.009662
2123,-0.010555,0.006231,0.019185
2124,0.012412,-0.009543,0.004761
2125,0.012412,0.006231,0.004761
2126,0.035379,-0.025317,-0.009662
2127,0.035379,-0.009543,-0.024086
2128,-0.033523,0.006231,0.004761
2129,0.012412,-0.041091,0.004761
2130,-0.010555,-0.025317,-0.009662
2131,0.035379,-0.009543,-0.009662
2132,0.058346,-0.009543,0.004761
2133,0.012412,-0.025317,-0.009662
2134,0.035379,-0.025317,-0.009662
2135,0.012412,-0.009543,-0.024086
2136,0.012412,-0.009543,-0.024086
2137,-0.033523,-0.009543,-0.009662
2138,-0.033523,-0.009543,-0.009662
2139,0.035379,-0.009543,0.004761
2140,-0.010555,-0.009543,0.004761
2141,-0.033523,0.006231,-0.009662
2142,-0.033523,0.006231,-0.009662
2143,-0.033523,-0.009543,0.004761
2144,-0.010555,-0.009543,-0.009662
2145,-0.010555,-0.025317,0.004761
2146,-0.033523,-0.009543,-0.009662
2147,0.081313,-0.025317,-0.009662
2148,0.012412,-0.041091,-0.009662
2149,-0.033523,-0.009543,0.004761
2150,-0.033523,-0.025317,-0.009662
2151,0.035379,-0.009543,-0.009662
2152,-0.010555,-0.025317,-0.009662
2153,0.012412,-0.025317,0.004761
2154,0.035379,-0.009543,0.004761
2155,0.035379,-0.009543,-0.009662
2156,0.035379,-0.025317,-0.009662
2157,0.012412,-0.009543,-0.024086
2158,0.058346,-0.025317,-0.009662
2159,0.012412,-0.009543,-0.009662
2160,0.035379,-0.041091,-0.009662
2161,0.012412,-0.009543,0.004761
2162,0.035379,-0.009543,0.004761
2163,0.035379,0.006231,-0.009662
2164,-0.010555,-0.009543,0.004761
2165,0.012412,-0.025317,-0.009662
2166,0.035379,-0.025317,0.004761
2167,0.035379,-0.009543,-0.009662
2168,0.012412,-0.025317,0.004761
2169,-0.010555,-0.009543,0.004761
2170,0.035379,-0.025317,0.004761
2171,0.012412,-0.009543,-0.009662
2172,-0.033523,0.006231,-0.009662
2173,-0.033523,-0.025317,-0.009662
2174,0.012412,-0.009543,-0.009662
2175,0.012412,-0.025317,0.004761
2176,-0.010555,-0.025317,0.004761
2177,-0.033523,-0.009543,-0.009662
2178,-0.033523,-0.009543,0.004761
2179,0.035379,-0.009543,0.004761
2180,-0.05649,-0.041091,-0.009662
2181,0.012412,-0.009543,0.004761
2182,0.035379,-0.009543,0.019185
2183,0.012412,-0.009543,-0.009662
2184,-0.079457,-0.025317,-0.009662
2185,0.012412,-0.009543,-0.009662
2186,0.012412,0.006231,0.019185
2187,0.058346,-0.009543,0.004761
2188,-0.010555,-0.025317,-0.009662
2189,0.012412,-0.025317,-0.009662
2190,0.035379,-0.025317,-0.009662
2191,-0.010555,0.006231,0.004761
2192,0.058346,-0.009543,-0.009662
2193,0.035379,-0.009543,-0.024086
2194,0.012412,-0.009543,-0.024086
2195,-0.079457,-0.041091,-0.024086
2196,-0.033523,-0.025317,-0.024086
2197,0.035379,-0.009543,0.019185
2198,-0.010555,0.006231,0.004761
2199,-0.010555,0.006231,0.004761
2200,-0.010555,-0.009543,0.004761
2201,0.058346,-0.025317,0.004761
2202,-0.010555,-0.009543,0.004761
2203,-0.033523,-0.009543,0.019185
2204,-0.05649,-0.009543,0.004761
2205,-0.05649,-0.009543,-0.009662
2206,-0.05649,-0.009543,-0.009662
2207,-0.05649,-0.025317,-0.009662
2208,-0.010555,-0.025317,0.004761
2209,0.012412,-0.025317,-0.009662
2210,-0.010555,0.006231,-0.009662
2211,0.035379,-0.009543,-0.009662
2212,-0.010555,-0.025317,-0.024086
2213,0.035379,-0.025317,-0.009662
2214,-0.033523,-0.009543,0.019185
2215,-0.033523,-0.009543,-0.009662
2216,0.012412,-0.025317,-0.009662
2217,0.058346,-0.025317,0.004761
2218,0.058346,-0.009543,-0.009662
2219,0.058346,-0.009543,-0.009662
2220,0.012412,0.006231,0.004761
2221,0.058346,-0.009543,-0.009662
2222,0.058346,-0.009543,0.004761
2223,0.012412,-0.009543,0.048033
2224,0.012412,-0.009543,-0.024086
2225,0.035379,-0.025317,-0.03851
2226,0.012412,-0.009543,-0.024086
2227,0.012412,0.006231,-0.009662
2228,-0.010555,-0.009543,-0.009662
2229,0.012412,-0.025317,0.004761
2230,-0.033523,-0.025317,-0.009662
2231,-0.033523,-0.009543,-0.009662
2232,-0.010555,-0.025317,0.004761
2233,0.012412,-0.025317,-0.024086
2234,-0.05649,-0.009543,-0.009662
2235,-0.079457,0.006231,-0.009662
2236,-0.033523,0.006231,0.004761
2237,-0.033523,-0.025317,0.019185
2238,-0.033523,-0.025317,0.019185
2239,0.012412,-0.009543,0.004761
2240,0.012412,0.006231,-0.009662
2241,-0.010555,-0.041091,-0.009662
2242,-0.05649,-0.009543,0.004761
2243,0.035379,-0.009543,-0.009662
2244,0.035379,-0.025317,0.004761
2245,0.012412,-0.009543,-0.009662
2246,-0.010555,-0.025317,0.004761
2247,0.127248,-0.009543,0.004761
2248,-0.010555,0.006231,0.004761
2249,-0.010555,-0.009543,-0.024086
2250,0.035379,-0.025317,0.004761
2251,0.035379,-0.009543,-0.009662
2252,-0.033523,-0.025317,0.004761
2253,-0.010555,-0.025317,-0.009662
2254,0.012412,-0.009543,-0.009662
2255,0.012412,-0.009543,-0.009662
2256,-0.010555,-0.025317,-0.009662
2257,-0.033523,-0.025317,-0.024086
2258,0.012412,0.006231,0.004761
2259,0.035379,-0.009543,-0.009662
2260,0.012412,-0.025317,0.019185
2261,-0.010555,-0.009543,-0.009662
2262,-0.010555,-0.009543,-0.009662
2263,-0.010555,-0.009543,-0.009662
2264,-0.033523,-0.025317,-0.009662
2265,0.012412,-0.025317,0.004761
2266,-0.010555,-0.025317,-0.024086
2267,-0.010555,-0.025317,0.004761
2268,-0.05649,-0.009543,-0.009662
2269,-0.05649,0.006231,-0.009662
2270,-0.010555,0.006231,-0.009662
2271,-0.010555,0.006231,-0.009662
2272,-0.010555,-0.025317,-0.009662
2273,-0.010555,-0.009543,-0.009662
2274,-0.033523,-0.009543,-0.009662
2275,0.012412,0.006231,0.004761
2276,-0.033523,-0.009543,0.019185
2277,0.012412,-0.009543,-0.009662
2278,0.058346,-0.009543,0.004761
2279,-0.010555,-0.009543,-0.009662
2280,0.012412,-0.009543,0.004761
2281,-0.033523,-0.009543,0.004761
2282,0.058346,-0.009543,0.048033
2283,0.035379,-0.009543,-0.009662
2284,0.058346,-0.009543,0.004761
2285,0.058346,-0.009543,-0.009662
2286,0.012412,-0.041091,-0.024086
2287,0.012412,-0.009543,0.004761
2288,-0.010555,-0.009543,0.004761
2289,0.035379,-0.009543,0.004761
2290,0.058346,-0.009543,0.004761
2291,-0.033523,-0.009543,0.004761
2292,-0.010555,-0.009543,-0.009662
2293,-0.05649,-0.009543,0.048033
2294,-0.010555,-0.009543,-0.009662
2295,-0.010555,-0.009543,-0.024086
2296,-0.05649,-0.025317,-0.024086
2297,-0.033523,-0.009543,-0.009662
2298,-0.010555,-0.009543,-0.009662
2299,0.035379,-0.009543,-0.024086
2300,-0.033523,-0.009543,0.004761
2301,-0.010555,-0.009543,0.004761
2302,0.012412,-0.009543,-0.009662
2303,-0.05649,-0.009543,0.004761
2304,0.012412,-0.009543,-0.009662
2305,-0.010555,-0.009543,0.004761
2306,0.012412,-0.009543,0.004761
2307,-0.010555,-0.025317,-0.009662
2308,0.012412,-0.009543,-0.009662
2309,0.012412,-0.009543,-0.009662
2310,0.035379,-0.009543,0.004761
2311,-0.010555,-0.025317,-0.024086
2312,0.035379,-0.009543,-0.009662
2313,0.035379,-0.009543,-0.009662
2314,0.012412,-0.009543,-0.009662
2315,-0.010555,-0.025317,-0.009662
2316,0.035379,0.006231,-0.009662
2317,0.035379,-0.025317,0.004761
2318,0.035379,-0.025317,0.004761
2319,-0.033523,-0.025317,0.004761
2320,0.012412,-0.025317,0.004761
2321,-0.010555,-0.009543,-0.009662
2322,-0.010555,-0.025317,-0.009662
2323,-0.05649,-0.009543,-0.009662
2324,-0.010555,-0.025317,-0.009662
2325,-0.010555,-0.025317,-0.009662
2326,-0.010555,0.006231,-0.009662
2327,0.012412,0.006231,-0.009662
2328,0.012412,-0.009543,-0.009662
2329,-0.010555,-0.009543,-0.009662
2330,-0.010555,-0.009543,-0.009662
2331,-0.033523,-0.009543,-0.009662
2332,-0.010555,-0.009543,-0.009662
2333,-0.010555,-0.025317,-0.024086
2334,-0.010555,0.006231,-0.009662
2335,-0.010555,-0.025317,-0.009662
2336,0.012412,-0.009543,-0.009662
2337,0.058346,0.006231,-0.009662
2338,-0.010555,0.006231,0.004761
2339,0.012412,-0.025317,0.004761
2340,0.035379,-0.009543,0.004761
2341,-0.010555,-0.009543,-0.024086
2342,-0.033523,-0.009543,-0.009662
2343,0.035379,-0.025317,0.004761
2344,0.035379,-0.025317,0.004761
2345,-0.010555,-0.025317,-0.009662
2346,0.035379,0.006231,-0.009662
2347,0.081313,-0.009543,0.004761
2348,-0.010555,-0.025317,0.004761
2349,-0.010555,-0.009543,-0.009662
2350,-0.033523,-0.009543,0.004761
2351,-0.033523,-0.041091,-0.024086
2352,-0.010555,-0.025317,0.004761
2353,-0.05649,-0.009543,0.004761
2354,-0.05649,-0.025317,-0.024086
2355,0.012412,-0.009543,-0.009662
2356,-0.010555,-0.009543,0.004761
2357,-0.010555,-0.009543,-0.009662
2358,-0.033523,-0.025317,-0.024086
2359,0.012412,-0.025317,0.004761
2360,-0.033523,-0.009543,-0.009662
2361,-0.05649,-0.025317,-0.009662
2362,0.012412,-0.025317,-0.009662
2363,0.012412,-0.025317,0.004761
2364,0.012412,-0.009543,-0.009662
2365,0.012412,-0.009543,0.004761
2366,-0.033523,-0.009543,-0.009662
2367,-0.010555,-0.009543,-0.009662
2368,0.012412,-0.009543,0.004761
2369,0.035379,0.006231,0.004761
2370,0.035379,-0.025317,-0.009662
2371,0.058346,-0.025317,0.004761
2372,0.012412,-0.009543,-0.009662
2373,-0.010555,-0.025317,0.004761
2374,0.035379,0.006231,-0.009662
2375,0.012412,-0.025317,-0.024086
2376,0.012412,-0.025317,-0.024086
2377,0.012412,-0.009543,-0.024086
2378,0.035379,-0.009543,0.004761
2379,-0.010555,-0.009543,-0.009662
2380,0.012412,-0.009543,-0.009662
2381,-0.033523,-0.025317,0.004761
2382,0.012412,-0.009543,0.019185
2383,0.012412,-0.009543,0.004761
2384,-0.010555,-0.009543,-0.024086
2385,-0.033523,-0.009543,-0.009662
2386,-0.010555,0.006231,-0.009662
2387,0.012412,-0.009543,-0.009662
2388,-0.010555,-0.025317,0.004761
2389,-0.010555,-0.009543,-0.009662
2390,-0.033523,-0.009543,-0.009662
2391,-0.010555,-0.009543,-0.009662
2392,-0.010555,-0.009543,-0.009662
2393,-0.010555,-0.009543,-0.009662
2394,0.012412,-0.009543,-0.009662
2395,0.058346,0.006231,-0.009662
2396,0.012412,-0.041091,-0.009662
2397,-0.010555,-0.025317,-0.009662
2398,0.035379,-0.009543,0.019185
2399,0.035379,-0.009543,-0.009662
2400,-0.010555,-0.025317,-0.024086
2401,0.012412,0.006231,-0.009662
2402,0.035379,0.006231,0.004761
2403,0.012412,-0.009543,-0.009662
2404,0.012412,0.006231,0.004761
2405,0.012412,-0.009543,0.004761
2406,-0.010555,-0.009543,-0.009662
2407,-0.033523,-0.025317,0.004761
2408,-0.033523,-0.009543,0.004761
2409,0.012412,-0.009543,-0.009662
2410,-0.010555,-0.009543,-0.009662
2411,-0.033523,-0.009543,-0.009662
2412,-0.033523,-0.041091,-0.009662
2413,0.012412,-0.009543,-0.009662
2414,-0.010555,-0.025317,0.004761
2415,-0.010555,-0.009543,0.004761
2416,0.012412,-0.009543,-0.009662
2417,-0.010555,-0.041091,-0.009662
2418,-0.033523,-0.009543,-0.009662
2419,-0.05649,-0.009543,-0.009662
2420,-0.010555,-0.009543,-0.009662
2421,0.012412,-0.009543,-0.009662
2422,0.012412,-0.025317,-0.009662
2423,0.012412,-0.025317,0.004761
2424,-0.010555,-0.009543,-0.009662
2425,0.035379,-0.025317,-0.009662
2426,0.035379,-0.025317,-0.009662
2427,-0.010555,-0.009543,-0.009662
2428,0.012412,-0.009543,-0.009662
2429,0.012412,-0.025317,-0.009662
2430,0.058346,0.006231,0.004761
2431,0.012412,-0.009543,-0.009662
2432,0.012412,-0.009543,0.019185
2433,-0.033523,0.006231,0.004761
2434,0.012412,-0.009543,-0.009662
2435,0.012412,-0.025317,-0.009662
2436,0.058346,-0.009543,-0.024086
2437,0.012412,-0.025317,-0.009662
2438,-0.05649,-0.025317,0.004761
2439,-0.033523,-0.009543,-0.009662
2440,0.035379,-0.009543,0.004761
2441,-0.010555,-0.025317,0.004761
2442,-0.010555,-0.025317,0.019185
2443,-0.010555,-0.025317,0.004761
2444,0.012412,-0.025317,0.004761
2445,-0.05649,-0.009543,-0.009662
2446,-0.05649,-0.025317,-0.009662
2447,-0.010555,-0.009543,-0.009662
2448,0.035379,-0.009543,-0.009662
2449,0.012412,-0.009543,0.004761
2450,-0.033523,-0.025317,0.019185
2451,-0.033523,-0.009543,0.004761
2452,0.012412,-0.025317,-0.009662
2453,-0.010555,-0.009543,-0.009662
2454,-0.05649,-0.009543,-0.009662
2455,0.035379,-0.025317,0.004761
2456,0.012412,-0.009543,-0.009662
2457,0.035379,-0.025317,-0.009662
2458,0.012412,-0.025317,-0.009662
2459,-0.010555,-0.009543,0.004761
2460,0.012412,0.006231,-0.009662
2461,0.012412,-0.009543,-0.009662
2462,-0.010555,-0.009543,-0.009662
2463,0.035379,-0.009543,-0.024086
2464,-0.033523,-0.025317,-0.009662
2465,0.012412,-0.041091,-0.009662
2466,-0.033523,0.006231,-0.009662
2467,-0.033523,-0.025317,0.004761
2468,0.012412,-0.025317,0.019185
2469,0.012412,-0.025317,-0.009662
2470,-0.033523,-0.009543,0.004761
2471,-0.033523,0.006231,-0.009662
2472,0.012412,-0.025317,0.004761
2473,-0.010555,-0.025317,-0.009662
2474,-0.05649,0.006231,-0.009662
2475,-0.010555,-0.025317,-0.009662
2476,-0.05649,-0.025317,0.004761
2477,-0.05649,-0.056865,0.004761
2478,0.012412,-0.025317,-0.024086
2479,0.012412,-0.025317,-0.009662
2480,-0.010555,-0.009543,-0.009662
2481,-0.033523,0.006231,0.004761
2482,-0.010555,-0.009543,0.004761
2483,-0.010555,-0.009543,-0.009662
2484,-0.05649,-0.009543,0.004761
2485,0.012412,-0.009543,0.004761
2486,0.012412,-0.009543,0.004761
2487,0.035379,-0.025317,0.004761
2488,0.012412,-0.025317,0.004761
2489,0.012412,0.006231,-0.009662
2490,0.012412,-0.009543,0.004761
2491,0.035379,-0.009543,-0.009662
2492,0.012412,-0.025317,-0.009662
2493,0.035379,-0.009543,-0.009662
2494,0.035379,-0.009543,-0.009662
2495,-0.010555,-0.009543,-0.009662
2496,0.035379,-0.041091,-0.009662
2497,-0.033523,-0.009543,-0.009662
2498,0.012412,-0.009543,0.004761
2499,0.035379,-0.009543,0.004761
2500,-0.010555,-0.025317,-0.024086
2501,-0.05649,-0.041091,-0.009662
2502,-0.010555,-0.009543,0.004761
2503,0.012412,-0.009543,-0.009662
2504,-0.033523,-0.025317,-0.024086
2505,0.012412,-0.041091,0.004761
2506,0.035379,-0.009543,-0.009662
2507,0.012412,0.006231,-0.009662
2508,-0.033523,0.006231,-0.024086
2509,-0.010555,-0.009543,-0.009662
2510,-0.033523,-0.009543,-0.009662
2511,-0.033523,-0.009543,0.004761
2512,-0.033523,-0.025317,-0.009662
2513,-0.010555,0.006231,-0.009662
2514,0.012412,0.006231,0.004761
2515,-0.033523,-0.025317,-0.009662
2516,-0.033523,-0.009543,-0.009662
2517,-0.010555,-0.009543,0.004761
2518,0.012412,-0.009543,0.004761
2519,0.058346,-0.009543,0.004761
2520,0.012412,-0.025317,0.004761
2521,-0.010555,-0.025317,0.004761
2522,0.035379,-0.009543,0.004761
2523,0.012412,-0.009543,0.004761
2524,0.012412,-0.025317,0.004761
2525,0.012412,-0.009543,-0.009662
2526,-0.010555,-0.025317,0.004761
2527,-0.033523,-0.025317,-0.009662
2528,-0.033523,-0.009543,-0.009662
2529,0.035379,-0.009543,0.004761
2530,-0.010555,-0.009543,-0.009662
2531,-0.102424,-0.025317,-0.009662
2532,-0.05649,0.03778,-0.009662
2533,0.012412,0.006231,0.004761
2534,-0.033523,-0.041091,-0.009662
2535,-0.010555,-0.025317,-0.009662
2536,-0.010555,-0.025317,0.004761
2537,-0.010555,-0.009543,0.004761
2538,-0.033523,0.006231,0.004761
2539,-0.010555,-0.025317,-0.009662
2540,-0.010555,0.006231,-0.009662
2541,0.012412,0.006231,0.048033
2542,-0.033523,-0.025317,-0.009662
2543,-0.033523,-0.025317,-0.009662
2544,0.012412,-0.009543,-0.009662
2545,-0.010555,-0.025317,-0.009662
2546,-0.010555,-0.009543,0.004761
2547,-0.010555,-0.009543,0.004761
2548,-0.010555,-0.009543,0.004761
2549,0.035379,0.006231,0.004761
2550,0.058346,0.006231,0.004761
2551,0.012412,-0.009543,-0.009662
2552,0.081313,-0.041091,0.019185
2553,0.035379,0.006231,0.004761
2554,-0.010555,-0.009543,0.004761
2555,0.035379,-0.009543,0.019185
2556,0.012412,-0.009543,0.004761
2557,0.035379,-0.025317,-0.009662
2558,0.012412,-0.025317,-0.024086
2559,0.012412,-0.009543,-0.024086
2560,-0.010555,-0.009543,-0.009662
2561,0.058346,-0.025317,0.004761
2562,-0.033523,-0.009543,0.004761
2563,-0.033523,-0.041091,-0.03851
2564,0.012412,-0.025317,0.004761
2565,0.012412,-0.025317,0.019185
2566,-0.033523,-0.009543,0.004761
2567,0.035379,0.006231,0.004761
2568,-0.010555,0.006231,0.004761
2569,-0.05649,0.069328,0.004761
2570,-0.033523,-0.041091,-0.009662
2571,-0.010555,-0.009543,-0.009662
2572,-0.010555,-0.025317,0.004761
2573,-0.033523,-0.041091,-0.009662
2574,-0.010555,-0.009543,-0.009662
2575,-0.010555,-0.025317,-0.024086
2576,0.012412,-0.009543,-0.009662
2577,-0.033523,-0.009543,-0.009662
2578,-0.033523,0.006231,0.004761
2579,0.012412,-0.009543,-0.009662
2580,0.012412,-0.025317,-0.009662
2581,0.035379,-0.025317,-0.009662
2582,0.035379,-0.009543,0.004761
2583,0.035379,-0.009543,-0.024086
2584,0.035379,-0.009543,0.004761
2585,-0.010555,-0.009543,0.004761
2586,0.035379,-0.009543,0.004761
2587,0.012412,0.006231,-0.009662
2588,0.035379,0.006231,-0.009662
2589,0.012412,-0.009543,0.004761
2590,-0.010555,0.006231,-0.009662
2591,0.035379,-0.025317,-0.009662
2592,-0.033523,0.006231,0.004761
2593,-0.010555,0.006231,-0.009662
2594,-0.05649,-0.009543,-0.009662
2595,0.012412,-0.009543,0.004761
2596,0.012412,-0.009543,-0.009662
2597,-0.033523,-0.025317,-0.009662
2598,-0.010555,-0.009543,-0.024086
2599,-0.010555,0.006231,0.004761
2600,0.012412,-0.025317,0.004761
2601,-0.010555,-0.009543,-0.024086
2602,-0.010555,-0.025317,0.004761
2603,-0.010555,-0.025317,-0.009662
2604,-0.033523,-0.009543,-0.009662
2605,0.012412,-0.009543,-0.009662
2606,0.012412,-0.009543,0.004761
2607,0.058346,-0.025317,-0.009662
2608,-0.010555,-0.009543,-0.009662
2609,0.035379,-0.025317,-0.024086
2610,0.012412,-0.025317,-0.009662
2611,-0.010555,-0.009543,-0.009662
2612,0.012412,-0.009543,-0.024086
2613,0.012412,-0.009543,0.004761
2614,0.035379,-0.009543,-0.009662
2615,0.012412,-0.009543,-0.009662
2616,0.012412,-0.025317,-0.024086
2617,-0.010555,-0.009543,-0.024086
2618,0.035379,0.006231,0.004761
2619,0.012412,-0.009543,0.004761
2620,-0.010555,-0.009543,0.004761
2621,-0.033523,-0.041091,0.004761
2622,-0.033523,-0.009543,-0.009662
2623,0.012412,-0.009543,-0.009662
2624,-0.033523,-0.009543,-0.009662
2625,-0.05649,-0.025317,-0.009662
2626,-0.010555,0.006231,-0.009662
2627,0.012412,0.006231,0.033609
2628,-0.010555,-0.025317,0.019185
2629,-0.033523,-0.009543,0.004761
2630,0.012412,-0.025317,-0.024086
2631,-0.033523,0.069328,-0.024086
2632,-0.033523,-0.041091,-0.009662
2633,-0.05649,-0.025317,-0.009662
2634,0.035379,-0.025317,-0.009662
2635,0.012412,-0.025317,0.019185
2636,0.012412,-0.009543,-0.009662
2637,0.012412,-0.025317,-0.009662
2638,0.081313,-0.009543,0.004761
2639,0.012412,0.006231,-0.009662
2640,-0.010555,-0.009543,0.004761
2641,0.012412,-0.025317,0.004761
2642,-0.033523,-0.009543,-0.009662
2643,0.035379,-0.009543,-0.024086
2644,0.035379,-0.025317,-0.009662
2645,-0.010555,-0.025317,-0.024086
2646,-0.010555,-0.009543,0.004761
2647,-0.010555,-0.009543,0.019185
2648,0.081313,0.006231,0.019185
2649,-0.010555,-0.009543,0.004761
2650,-0.033523,-0.025317,-0.009662
2651,-0.010555,-0.025317,0.004761
2652,-0.033523,-0.025317,-0.03851
2653,-0.010555,-0.041091,-0.009662
2654,0.012412,-0.009543,0.004761
2655,-0.05649,-0.025317,0.004761
2656,0.035379,-0.009543,-0.009662
2657,-0.05649,-0.009543,-0.024086
2658,-0.010555,-0.009543,0.004761
2659,0.012412,-0.009543,-0.009662
2660,-0.010555,-0.025317,0.004761
2661,-0.033523,-0.025317,0.004761
2662,-0.033523,-0.009543,0.019185
2663,0.012412,-0.009543,-0.009662
2664,0.058346,-0.009543,0.004761
2665,0.035379,-0.025317,-0.009662
2666,-0.033523,-0.009543,0.004761
2667,0.035379,-0.041091,-0.009662
2668,0.012412,0.006231,0.004761
2669,0.035379,0.006231,0.004761
2670,0.012412,0.006231,-0.009662
2671,-0.010555,-0.025317,0.004761
2672,0.058346,-0.009543,-0.009662
2673,-0.010555,-0.009543,-0.024086
2674,-0.010555,-0.041091,-0.024086
2675,0.012412,-0.025317,-0.009662
2676,0.058346,-0.009543,0.004761
2677,0.035379,0.006231,0.004761
2678,-0.05649,-0.009543,0.004761
2679,0.012412,-0.009543,0.019185
2680,0.035379,-0.009543,0.004761
2681,-0.010555,-0.025317,-0.009662
2682,-0.05649,0.022005,-0.009662
2683,-0.033523,-0.025317,0.004761
2684,-0.010555,-0.009543,-0.009662
2685,-0.033523,-0.025317,0.004761
2686,-0.033523,-0.009543,-0.009662
2687,-0.010555,-0.009543,0.004761
2688,-0.05649,-0.009543,-0.024086
2689,-0.033523,-0.009543,-0.009662
2690,-0.010555,-0.009543,-0.009662
2691,0.012412,-0.009543,-0.009662
2692,-0.079457,-0.025317,-0.009662
2693,-0.033523,-0.009543,-0.009662
2694,-0.010555,-0.009543,-0.009662
2695,0.081313,-0.009543,-0.009662
2696,0.058346,-0.009543,0.004761
2697,-0.05649,-0.009543,0.004761
2698,0.012412,0.006231,0.004761
2699,0.035379,-0.025317,-0.009662
2700,0.035379,-0.009543,-0.009662
2701,0.058346,-0.009543,-0.009662
2702,0.012412,-0.009543,0.004761
2703,0.058346,-0.009543,0.004761
2704,-0.010555,0.006231,-0.009662
2705,-0.033523,-0.025317,-0.024086
2706,-0.010555,-0.009543,-0.009662
2707,-0.033523,-0.025317,-0.009662
2708,-0.033523,-0.009543,-0.009662
2709,-0.010555,-0.009543,0.004761
2710,0.035379,-0.009543,-0.009662
2711,0.012412,-0.009543,-0.009662
2712,0.035379,-0.009543,0.004761
2713,-0.033523,-0.009543,0.019185
2714,-0.010555,-0.009543,0.033609
2715,0.012412,-0.009543,-0.024086
2716,-0.010555,-0.025317,-0.009662
2717,-0.05649,-0.009543,-0.009662
2718,-0.010555,-0.025317,-0.009662
2719,0.012412,-0.009543,-0.009662
2720,-0.05649,-0.041091,-0.009662
2721,-0.05649,-0.041091,-0.024086
2722,-0.010555,-0.025317,-0.024086
2723,-0.05649,-0.009543,0.004761
2724,-0.033523,-0.009543,-0.009662
2725,0.012412,-0.009543,0.004761
2726,0.058346,-0.025317,0.004761
2727,0.058346,-0.009543,-0.009662
2728,-0.010555,-0.009543,-0.009662
2729,0.012412,0.006231,0.004761
2730,0.012412,-0.009543,0.004761
2731,0.035379,-0.009543,-0.009662
2732,0.035379,0.006231,-0.009662
2733,-0.033523,-0.025317,-0.009662
2734,-0.010555,-0.009543,0.004761
2735,0.035379,-0.025317,-0.009662
2736,-0.033523,-0.025317,-0.009662
2737,0.035379,-0.009543,0.004761
2738,-0.010555,-0.009543,-0.009662
2739,-0.010555,-0.009543,-0.009662
2740,-0.010555,-0.041091,-0.024086
2741,0.012412,0.006231,-0.009662
2742,0.012412,-0.009543,-0.009662
2743,-0.05649,-0.009543,-0.009662
2744,-0.010555,-0.025317,-0.009662
2745,0.012412,-0.041091,0.004761
2746,-0.010555,0.006231,-0.009662
2747,-0.033523,-0.009543,0.004761
2748,-0.010555,-0.009543,0.004761
2749,-0.010555,-0.009543,-0.009662
2750,-0.010555,-0.025317,-0.009662
2751,-0.05649,0.006231,-0.009662
2752,0.012412,-0.025317,0.004761
2753,0.035379,-0.009543,0.004761
2754,-0.033523,-0.009543,0.004761
2755,-0.010555,-0.025317,-0.009662
2756,0.035379,-0.025317,0.004761
2757,0.012412,-0.009543,-0.009662
2758,0.012412,0.006231,0.004761
2759,0.012412,-0.009543,0.004761
2760,0.012412,-0.009543,-0.009662
2761,-0.033523,-0.041091,-0.009662
2762,0.127248,-0.009543,-0.009662
2763,0.058346,0.006231,-0.009662
2764,-0.010555,-0.025317,-0.024086
2765,0.035379,-0.009543,0.004761
2766,0.012412,0.006231,-0.009662
2767,-0.033523,-0.009543,-0.024086
2768,-0.010555,-0.025317,-0.009662
2769,-0.010555,-0.025317,0.004761
2770,-0.010555,-0.009543,0.004761
2771,-0.010555,-0.009543,0.004761
2772,-0.010555,0.006231,-0.009662
2773,-0.010555,-0.025317,-0.009662
2774,0.012412,-0.025317,-0.03851
2775,-0.033523,-0.009543,0.004761
2776,0.035379,-0.009543,0.004761
2777,-0.05649,-0.009543,-0.009662
2778,-0.033523,-0.009543,0.048033
2779,-0.010555,0.022005,-0.009662
2780,-0.033523,-0.025317,0.004761
2781,-0.033523,-0.009543,0.004761
2782,0.035379,-0.009543,0.004761
2783,-0.010555,-0.009543,-0.009662
2784,0.012412,-0.009543,0.004761
2785,-0.010555,-0.009543,-0.009662
2786,-0.033523,-0.025317,0.004761
2787,0.035379,-0.025317,-0.009662
2788,0.035379,-0.025317,-0.009662
2789,0.012412,-0.025317,-0.009662
2790,0.058346,-0.025317,-0.009662
2791,0.012412,-0.009543,-0.009662
2792,0.081313,-0.009543,0.019185
2793,0.012412,0.006231,0.019185
2794,0.012412,-0.009543,-0.024086
2795,0.035379,-0.025317,-0.03851
2796,0.035379,-0.009543,-0.024086
2797,-0.033523,-0.009543,-0.009662
2798,-0.033523,-0.041091,0.004761
2799,0.035379,-0.041091,-0.009662
2800,-0.010555,-0.041091,-0.024086
2801,-0.010555,-0.009543,-0.009662
2802,-0.05649,-0.009543,0.004761
2803,0.035379,-0.009543,-0.009662
2804,0.012412,-0.009543,-0.024086
2805,0.012412,-0.009543,-0.009662
2806,-0.033523,-0.009543,-0.009662
2807,0.012412,-0.009543,0.004761
2808,0.012412,-0.009543,-0.024086
2809,-0.010555,-0.025317,-0.009662
2810,0.012412,-0.009543,-0.009662
2811,-0.010555,-0.025317,-0.024086
2812,-0.033523,-0.009543,-0.009662
2813,0.012412,-0.025317,-0.009662
2814,-0.010555,-0.009543,-0.009662
2815,0.035379,-0.025317,-0.009662
2816,-0.010555,-0.009543,-0.009662
2817,0.012412,-0.009543,-0.024086
2818,0.012412,-0.025317,-0.009662
2819,0.012412,-0.009543,0.004761
2820,0.035379,0.006231,-0.009662
2821,0.058346,0.006231,-0.03851
2822,-0.010555,-0.025317,-0.009662
2823,0.012412,0.006231,0.004761
2824,-0.010555,-0.009543,0.004761
2825,-0.010555,-0.009543,0.004761
2826,0.012412,-0.009543,0.004761
2827,0.012412,0.006231,0.033609
2828,0.058346,-0.025317,-0.009662
2829,-0.033523,-0.009543,-0.009662
2830,-0.010555,-0.009543,-0.024086
2831,-0.033523,-0.009543,-0.009662
2832,-0.033523,-0.025317,-0.024086
2833,-0.010555,-0.025317,-0.009662
2834,0.012412,-0.009543,-0.009662
2835,-0.033523,-0.025317,-0.024086
2836,-0.010555,-0.009543,-0.009662
2837,-0.010555,-0.009543,-0.009662
2838,-0.010555,-0.025317,-0.009662
2839,-0.010555,-0.009543,0.048033
2840,-0.033523,-0.025317,0.004761
2841,-0.010555,-0.009543,0.004761
2842,-0.010555,-0.025317,-0.009662
2843,-0.05649,-0.009543,-0.009662
2844,-0.010555,-0.025317,0.004761
2845,-0.033523,-0.009543,-0.009662
2846,-0.010555,-0.009543,-0.009662
2847,-0.033523,-0.009543,-0.009662
2848,-0.033523,-0.009543,0.004761
2849,0.012412,-0.025317,0.004761
2850,0.058346,-0.009543,0.019185
2851,0.012412,0.006231,0.004761
2852,0.035379,-0.009543,-0.009662
2853,0.012412,-0.009543,0.004761
2854,0.058346,-0.009543,0.004761
2855,0.012412,-0.009543,0.004761
2856,0.058346,-0.009543,-0.009662
2857,0.058346,-0.025317,-0.024086
2858,-0.033523,-0.025317,-0.009662
2859,0.012412,-0.009543,-0.024086
2860,-0.010555,-0.009543,-0.009662
2861,-0.010555,-0.009543,0.004761
2862,0.012412,-0.025317,0.004761
2863,0.035379,0.006231,0.004761
2864,-0.05649,-0.009543,0.019185
2865,0.012412,-0.025317,0.004761
2866,-0.010555,-0.009543,0.004761
2867,0.012412,0.006231,0.019185
2868,0.012412,-0.025317,0.004761
2869,-0.033523,-0.025317,-0.024086
2870,-0.033523,-0.025317,-0.009662
2871,-0.033523,-0.025317,-0.024086
2872,-0.05649,-0.025317,-0.024086
2873,-0.010555,-0.025317,-0.024086
2874,-0.033523,-0.025317,0.004761
2875,0.035379,-0.009543,-0.009662
2876,-0.010555,-0.025317,0.004761
2877,-0.033523,-0.025317,-0.009662
2878,-0.033523,-0.009543,0.019185
2879,-0.033523,-0.041091,-0.009662
2880,0.035379,0.006231,-0.009662
2881,0.035379,-0.009543,-0.009662
2882,-0.010555,-0.009543,-0.009662
2883,0.012412,-0.009543,-0.009662
2884,0.035379,-0.025317,-0.009662
2885,0.012412,-0.009543,0.004761
2886,0.012412,-0.009543,-0.009662
2887,0.035379,-0.009543,-0.009662
2888,0.081313,-0.009543,0.004761
2889,0.012412,-0.009543,-0.009662
2890,-0.033523,-0.041091,-0.009662
2891,-0.033523,-0.009543,-0.009662
2892,-0.010555,0.006231,0.004761
2893,-0.010555,-0.009543,-0.009662
2894,0.012412,-0.025317,-0.009662
2895,-0.010555,-0.009543,-0.009662
2896,-0.033523,-0.009543,-0.009662
2897,-0.033523,-0.009543,-0.009662
2898,-0.05649,-0.009543,0.004761
2899,-0.010555,-0.025317,0.004761
2900,0.035379,-0.025317,-0.009662
2901,0.012412,-0.025317,-0.009662
2902,0.012412,-0.009543,-0.009662
2903,0.012412,-0.009543,0.004761
2904,0.058346,-0.009543,0.004761
2905,-0.010555,0.006231,-0.009662
2906,0.012412,-0.009543,-0.009662
2907,0.012412,0.006231,-0.024086
2908,0.035379,-0.025317,-0.024086
2909,0.012412,-0.009543,0.004761
2910,0.012412,-0.009543,0.004761
2911,-0.010555,-0.009543,-0.009662
2912,0.012412,0.022005,-0.009662
2913,0.012412,-0.009543,-0.009662
2914,0.035379,0.006231,-0.009662
2915,0.035379,-0.009543,-0.009662
2916,-0.010555,-0.009543,-0.009662
2917,-0.033523,-0.009543,0.004761
2918,0.035379,-0.009543,-0.009662
2919,-0.033523,-0.009543,0.019185
2920,0.012412,-0.009543,-0.009662
2921,-0.033523,-0.009543,0.004761
2922,-0.05649,0.006231,-0.009662
2923,-0.010555,-0.009543,0.004761
2924,-0.033523,0.006231,0.004761
2925,-0.033523,-0.009543,-0.024086
2926,0.012412,-0.025317,-0.009662
2927,0.012412,-0.009543,-0.009662
2928,-0.05649,0.006231,-0.009662
2929,-0.033523,-0.025317,-0.024086
2930,0.012412,-0.009543,-0.009662
2931,0.035379,-0.009543,0.004761
2932,-0.010555,-0.009543,0.048033
2933,0.012412,-0.009543,0.004761
2934,-0.010555,-0.041091,0.004761
2935,0.035379,-0.009543,0.004761
2936,0.012412,-0.025317,0.004761
2937,0.058346,-0.009543,-0.009662
2938,0.035379,-0.009543,-0.009662
2939,0.012412,-0.009543,-0.009662
2940,0.035379,-0.025317,0.004761
2941,0.035379,0.006231,-0.009662
2942,0.012412,-0.009543,0.004761
2943,0.058346,-0.009543,-0.009662
2944,-0.033523,0.006231,0.004761
2945,-0.010555,0.006231,-0.009662
2946,-0.010555,-0.025317,-0.024086
2947,-0.010555,-0.025317,-0.024086
2948,-0.05649,-0.041091,-0.024086
2949,-0.033523,-0.025317,0.004761
2950,-0.033523,-0.025317,-0.009662
2951,-0.033523,-0.009543,0.004761
2952,-0.010555,-0.009543,0.004761
2953,0.012412,-0.009543,-0.024086
2954,-0.033523,-0.009543,-0.024086
2955,-0.079457,-0.025317,0.004761
2956,0.035379,-0.009543,0.004761
2957,-0.010555,0.006231,-0.009662
2958,-0.05649,-0.025317,-0.009662
2959,-0.05649,-0.025317,-0.009662
2960,0.127248,-0.041091,-0.009662
2961,0.012412,-0.009543,-0.009662
2962,0.035379,-0.041091,-0.03851
2963,0.035379,-0.025317,-0.024086
2964,0.035379,-0.025317,0.004761
2965,0.012412,-0.009543,0.004761
2966,-0.033523,-0.009543,-0.009662
2967,-0.033523,0.006231,0.004761
2968,0.012412,0.006231,-0.009662
2969,0.012412,-0.009543,0.004761
2970,-0.010555,0.006231,0.004761
2971,0.035379,-0.025317,0.004761
2972,0.035379,-0.009543,0.004761
2973,0.012412,-0.009543,0.019185
2974,-0.010555,-0.009543,-0.024086
2975,-0.033523,-0.009543,0.004761
2976,0.012412,-0.025317,-0.009662
2977,0.035379,-0.009543,-0.024086
2978,0.012412,0.006231,-0.009662
2979,-0.010555,-0.009543,-0.009662
2980,-0.05649,-0.025317,-0.024086
2981,-0.05649,-0.009543,-0.009662
2982,-0.033523,0.006231,0.033609
2983,-0.010555,-0.009543,0.004761
2984,0.035379,-0.009543,-0.009662
2985,-0.010555,-0.009543,-0.024086
2986,0.035379,-0.025317,-0.009662
2987,-0.010555,-0.009543,-0.009662
2988,0.012412,-0.009543,-0.009662
2989,-0.010555,-0.009543,-0.009662
2990,0.058346,-0.009543,0.004761
2991,0.012412,-0.025317,-0.009662
2992,0.035379,-0.025317,-0.009662
2993,-0.033523,-0.025317,0.004761
2994,0.035379,-0.009543,-0.009662
2995,0.058346,-0.025317,-0.009662
2996,0.035379,-0.009543,-0.009662
2997,0.035379,0.006231,-0.009662
2998,0.012412,0.006231,-0.009662
2999,0.012412,0.006231,0.004761
3000,0.012412,-0.009543,0.004761
3001,-0.010555,-0.009543,0.004761
3002,-0.010555,0.006231,0.019185
3003,-0.010555,-0.009543,0.004761
3004,-0.010555,-0.009543,-0.009662
3005,-0.05649,-0.025317,-0.009662
3006,-0.010555,-0.009543,-0.009662
3007,-0.033523,0.006231,-0.009662
3008,-0.010555,0.006231,-0.009662
3009,-0.033523,-0.025317,-0.009662
3010,0.035379,-0.009543,-0.024086
3011,-0.033523,-0.025317,-0.009662
3012,-0.05649,-0.009543,0.004761
3013,0.012412,-0.009543,-0.009662
3014,0.058346,-0.009543,0.004761
3015,0.035379,-0.009543,-0.009662
3016,0.035379,-0.025317,-0.009662
3017,-0.010555,-0.009543,-0.024086
3018,0.012412,-0.025317,-0.009662
3019,0.035379,-0.025317,-0.009662
3020,0.012412,-0.025317,0.019185
3021,-0.033523,-0.041091,-0.009662
3022,0.012412,-0.009543,-0.009662
3023,0.035379,-0.009543,0.004761
3024,0.035379,-0.009543,-0.009662
3025,0.035379,-0.056865,-0.024086
3026,-0.033523,-0.025317,-0.009662
3027,-0.033523,-0.009543,-0.009662
3028,-0.033523,-0.009543,-0.024086
3029,-0.010555,-0.025317,-0.009662
3030,0.012412,0.022005,0.004761
3031,0.012412,-0.009543,-0.009662
3032,-0.05649,-0.009543,-0.009662
3033,0.012412,-0.009543,0.004761
3034,-0.010555,-0.009543,0.004761
3035,0.012412,0.006231,0.004761
3036,-0.010555,-0.009543,0.004761
3037,-0.010555,-0.009543,0.004761
3038,-0.010555,-0.009543,-0.009662
3039,0.012412,-0.009543,-0.024086
3040,0.012412,-0.009543,0.004761
3041,0.012412,-0.025317,0.004761
3042,-0.010555,-0.025317,-0.024086
3043,-0.033523,-0.009543,-0.009662
3044,0.035379,-0.009543,0.004761
3045,0.012412,-0.009543,-0.009662
3046,0.012412,0.006231,-0.009662
3047,0.012412,0.006231,-0.009662
3048,0.058346,-0.025317,0.019185
3049,0.058346,-0.009543,0.004761
3050,0.058346,-0.009543,-0.009662
3051,0.012412,0.006231,0.004761
3052,0.035379,0.006231,-0.009662
3053,-0.010555,-0.025317,0.004761
3054,-0.010555,-0.009543,-0.009662
3055,0.012412,-0.009543,0.004761
3056,0.035379,-0.009543,-0.009662
3057,0.012412,-0.009543,0.004761
3058,-0.010555,-0.009543,-0.009662
3059,-0.033523,-0.009543,0.004761
3060,-0.010555,-0.025317,-0.024086
3061,-0.033523,-0.025317,-0.009662
3062,-0.033523,-0.025317,-0.024086
3063,0.012412,-0.041091,-0.024086
3064,0.035379,-0.025317,-0.024086
3065,-0.033523,-0.025317,0.004761
3066,-0.010555,0.006231,0.019185
3067,-0.033523,-0.009543,0.004761
3068,-0.033523,-0.009543,0.004761
3069,0.012412,-0.009543,0.004761
3070,-0.010555,0.006231,0.019185
3071,-0.010555,-0.025317,-0.009662
3072,0.035379,-0.009543,0.004761
3073,0.012412,-0.009543,0.004761
3074,-0.033523,-0.025317,-0.009662
3075,0.012412,-0.025317,-0.009662
3076,0.012412,0.006231,0.004761
3077,0.035379,-0.025317,0.004761
3078,-0.010555,-0.009543,0.004761
3079,0.012412,-0.009543,0.004761
3080,0.035379,-0.009543,-0.009662
3081,0.012412,-0.025317,0.004761
3082,0.035379,-0.009543,0.019185
3083,-0.010555,-0.009543,0.004761
3084,0.012412,0.006231,0.004761
3085,0.035379,0.006231,0.004761
3086,-0.033523,0.006231,-0.009662
3087,0.012412,-0.025317,-0.009662
3088,-0.010555,-0.025317,-0.009662
3089,-0.010555,0.006231,0.004761
3090,-0.05649,-0.025317,-0.009662
3091,-0.010555,-0.009543,0.004761
3092,-0.010555,-0.009543,0.004761
3093,-0.033523,-0.009543,-0.009662
3094,-0.010555,-0.009543,-0.024086
3095,-0.033523,-0.025317,-0.009662
3096,-0.05649,-0.025317,-0.009662
3097,-0.033523,-0.009543,0.004761
3098,0.012412,0.006231,-0.009662
3099,0.058346,-0.009543,-0.009662
3100,-0.033523,-0.025317,0.004761
3101,0.035379,0.006231,-0.024086
3102,0.012412,-0.009543,-0.009662
3103,-0.010555,0.006231,-0.009662
3104,-0.010555,0.022005,-0.009662
3105,-0.033523,-0.025317,-0.009662
3106,0.012412,-0.025317,-0.009662
3107,0.058346,-0.009543,0.004761
3108,0.035379,-0.009543,-0.009662
3109,0.012412,-0.025317,-0.009662
3110,0.035379,-0.009543,0.004761
3111,-0.010555,-0.009543,-0.009662
3112,-0.033523,0.006231,-0.009662
3113,0.035379,-0.041091,0.004761
3114,0.012412,-0.009543,0.004761
3115,0.012412,-0.009543,0.004761
3116,-0.010555,0.006231,0.019185
3117,-0.05649,0.022005,0.004761
3118,0.012412,-0.009543,-0.009662
3119,-0.010555,-0.025317,0.004761
3120,-0.010555,-0.009543,0.004761
3121,-0.079457,-0.025317,0.019185
3122,0.012412,-0.025317,0.004761
3123,-0.010555,-0.009543,-0.009662
3124,0.012412,-0.009543,0.004761
3125,0.012412,0.006231,-0.009662
3126,-0.010555,-0.009543,-0.024086
3127,-0.010555,-0.009543,-0.009662
3128,0.012412,-0.009543,-0.009662
3129,-0.010555,-0.025317,-0.009662
3130,0.035379,-0.009543,-0.009662
3131,-0.033523,0.006231,-0.009662
3132,0.012412,-0.009543,-0.009662
3133,0.035379,-0.009543,0.004761
3134,0.012412,-0.009543,-0.009662
3135,-0.033523,-0.009543,-0.009662
3136,0.012412,-0.009543,-0.009662
3137,0.012412,-0.009543,-0.009662
3138,0.012412,-0.009543,0.004761
3139,0.10428,-0.025317,0.004761
3140,0.081313,-0.009543,-0.024086
3141,0.012412,-0.041091,-0.009662
3142,0.012412,-0.009543,-0.009662
3143,-0.079457,-0.009543,0.004761
3144,-0.033523,0.006231,0.004761
3145,0.012412,-0.025317,0.004761
3146,-0.010555,-0.025317,-0.009662
3147,-0.010555,-0.025317,0.004761
3148,0.012412,-0.025317,-0.009662
3149,0.035379,-0.009543,0.004761
3150,-0.010555,-0.009543,0.004761
3151,-0.033523,-0.009543,0.019185
3152,-0.05649,0.006231,0.019185
3153,-0.010555,-0.009543,0.004761
3154,-0.010555,0.006231,0.019185
3155,-0.05649,-0.009543,-0.009662
3156,-0.010555,-0.041091,-0.009662
3157,-0.079457,-0.041091,-0.009662
3158,-0.05649,-0.009543,-0.009662
3159,0.012412,-0.009543,-0.009662
3160,-0.010555,-0.025317,-0.009662
3161,0.035379,-0.025317,-0.009662
3162,-0.010555,-0.009543,-0.009662
3163,0.012412,-0.025317,0.004761
3164,0.035379,0.006231,-0.009662
3165,0.012412,-0.009543,0.004761
3166,0.035379,-0.009543,-0.009662
3167,0.012412,-0.009543,-0.009662
3168,0.012412,-0.009543,-0.009662
3169,0.012412,-0.041091,-0.009662
3170,-0.010555,-0.025317,-0.009662
3171,0.012412,-0.009543,0.019185
3172,-0.010555,-0.025317,0.004761
3173,0.012412,-0.041091,0.004761
3174,0.012412,0.006231,0.004761
3175,0.081313,-0.009543,0.004761
3176,0.012412,-0.025317,0.004761
3177,0.012412,-0.025317,0.004761
3178,-0.010555,-0.009543,-0.009662
3179,-0.010555,-0.009543,-0.009662
3180,-0.010555,-0.009543,-0.009662
3181,-0.033523,-0.025317,-0.009662
3182,-0.010555,-0.041091,0.004761
3183,-0.033523,-0.009543,-0.009662
3184,0.012412,0.006231,-0.009662
3185,0.012412,-0.025317,-0.009662
3186,-0.010555,0.006231,-0.009662
3187,0.012412,-0.009543,-0.024086
3188,-0.079457,-0.025317,-0.024086
3189,-0.033523,-0.025317,-0.009662
3190,-0.010555,-0.041091,-0.009662
3191,0.012412,-0.009543,-0.009662
3192,0.058346,-0.009543,0.004761
3193,0.035379,-0.025317,0.004761
3194,0.012412,-0.025317,0.019185
3195,0.012412,0.006231,0.004761
3196,0.012412,-0.009543,-0.024086
3197,-0.05649,0.006231,0.019185
3198,0.035379,-0.009543,-0.009662
3199,0.035379,-0.009543,-0.009662
3200,0.035379,-0.009543,0.004761
3201,-0.010555,0.006231,0.004761
3202,0.035379,-0.025317,-0.009662
3203,0.035379,-0.025317,-0.009662
3204,0.035379,-0.009543,0.004761
3205,-0.010555,-0.009543,-0.009662
3206,0.012412,-0.009543,0.004761
3207,0.035379,-0.009543,-0.009662
3208,-0.010555,-0.009543,0.004761
3209,-0.010555,-0.009543,-0.024086
3210,-0.05649,-0.009543,-0.009662
3211,-0.010555,0.022005,-0.009662
3212,0.012412,-0.009543,0.004761
3213,-0.010555,0.006231,-0.009662
3214,-0.010555,-0.009543,0.048033
3215,-0.010555,-0.025317,0.004761
3216,-0.010555,-0.009543,0.004761
3217,-0.010555,-0.009543,-0.009662
3218,-0.033523,0.006231,-0.009662
3219,-0.010555,-0.009543,-0.024086
3220,0.012412,-0.025317,-0.009662
3221,0.035379,-0.009543,-0.024086
3222,0.012412,-0.009543,-0.024086
3223,0.012412,-0.025317,0.048033
3224,-0.010555,-0.025317,0.004761
3225,-0.033523,-0.009543,-0.009662
3226,0.012412,-0.025317,-0.009662
3227,-0.033523,-0.009543,-0.009662
3228,-0.010555,-0.009543,0.004761
3229,0.035379,-0.025317,0.004761
3230,0.058346,-0.009543,-0.009662
3231,0.035379,-0.009543,-0.009662
3232,-0.033523,-0.025317,0.004761
3233,0.012412,0.006231,0.004761
3234,0.058346,-0.009543,0.004761
3235,0.035379,0.006231,0.004761
3236,-0.010555,-0.009543,0.004761
3237,0.035379,-0.025317,-0.009662
3238,-0.010555,-0.025317,-0.009662
3239,0.012412,-0.041091,-0.009662
3240,-0.033523,-0.009543,0.004761
3241,-0.033523,-0.009543,0.004761
3242,0.012412,-0.025317,0.004761
3243,-0.033523,-0.009543,-0.009662
3244,-0.033523,-0.025317,-0.009662
3245,-0.05649,-0.009543,-0.024086
3246,-0.05649,-0.025317,-0.009662
3247,-0.05649,0.006231,-0.024086
3248,-0.010555,-0.025317,-0.009662
3249,0.012412,-0.025317,0.004761
3250,-0.010555,-0.009543,-0.009662
3251,-0.033523,-0.009543,-0.009662
3252,-0.010555,-0.009543,-0.009662
3253,0.035379,0.006231,0.004761
3254,0.058346,-0.025317,-0.009662
3255,-0.033523,-0.009543,0.004761
3256,-0.010555,-0.009543,-0.009662
3257,0.012412,-0.025317,0.004761
3258,0.058346,-0.009543,-0.009662
3259,0.012412,-0.009543,0.004761
3260,0.058346,-0.009543,-0.009662
3261,-0.010555,-0.025317,-0.009662
3262,-0.010555,-0.041091,-0.024086
3263,-0.010555,-0.025317,-0.009662
3264,0.012412,0.006231,0.004761
3265,0.012412,-0.009543,-0.009662
3266,-0.010555,-0.009543,0.004761
3267,0.012412,-0.009543,-0.009662
3268,0.035379,0.006231,0.004761
3269,0.012412,-0.009543,-0.009662
3270,-0.033523,-0.025317,0.004761
3271,-0.010555,-0.009543,0.004761
3272,-0.05649,-0.009543,-0.009662
3273,0.012412,0.006231,0.048033
3274,-0.033523,-0.009543,-0.009662
3275,-0.05649,-0.009543,-0.009662
3276,0.012412,0.006231,0.004761
3277,-0.033523,-0.009543,0.048033
3278,-0.033523,0.006231,-0.009662
3279,-0.010555,-0.009543,0.004761
3280,0.035379,-0.009543,0.004761
3281,-0.010555,0.006231,-0.009662
3282,-0.033523,-0.009543,0.019185
3283,0.035379,-0.009543,-0.009662
3284,0.035379,-0.009543,-0.009662
3285,0.058346,-0.025317,-0.024086
3286,0.012412,-0.041091,-0.03851
3287,-0.033523,-0.056865,-0.009662
3288,-0.033523,-0.025317,0.004761
3289,0.012412,-0.009543,0.004761
3290,0.012412,-0.025317,-0.024086
3291,0.012412,-0.025317,0.004761
3292,0.012412,-0.025317,-0.024086
3293,0.012412,-0.009543,-0.009662
3294,-0.033523,-0.009543,-0.009662
3295,0.058346,-0.009543,-0.009662
3296,0.012412,0.069328,0.004761
3297,-0.033523,-0.009543,-0.009662
3298,-0.010555,-0.009543,0.004761
3299,-0.010555,-0.009543,0.004761
3300,-0.010555,-0.009543,-0.009662
3301,0.058346,0.006231,-0.009662
3302,-0.010555,-0.009543,0.004761
3303,-0.010555,-0.009543,0.004761
3304,0.012412,-0.025317,0.004761
3305,0.012412,-0.009543,0.048033
3306,0.012412,-0.009543,0.004761
3307,-0.010555,-0.009543,0.019185
3308,0.012412,-0.009543,-0.009662
3309,-0.033523,-0.009543,0.004761
3310,-0.010555,0.006231,0.004761
3311,0.012412,-0.009543,0.019185
3312,-0.033523,-0.025317,0.004761
3313,-0.010555,-0.025317,0.004761
3314,0.035379,-0.009543,0.004761
3315,-0.010555,-0.009543,0.019185
3316,0.035379,-0.009543,-0.009662
3317,0.035379,-0.025317,-0.009662
3318,0.035379,-0.009543,0.004761
3319,0.035379,0.006231,0.019185
3320,0.012412,-0.009543,0.019185
3321,0.035379,0.006231,-0.009662
3322,0.058346,-0.025317,0.004761
3323,0.012412,-0.009543,0.004761
3324,-0.033523,-0.025317,0.004761
3325,0.035379,-0.025317,-0.009662
3326,0.012412,-0.025317,-0.009662
3327,-0.010555,-0.009543,0.004761
3328,-0.033523,-0.025317,-0.009662
3329,-0.05649,-0.009543,-0.009662
3330,0.012412,-0.009543,-0.009662
3331,0.035379,-0.009543,-0.024086
3332,-0.010555,-0.009543,-0.009662
3333,0.012412,-0.025317,0.004761
3334,0.012412,-0.009543,-0.009662
3335,-0.033523,-0.009543,-0.009662
3336,-0.033523,-0.025317,0.004761
3337,-0.010555,0.006231,0.019185
3338,0.035379,0.006231,0.004761
3339,-0.033523,-0.025317,-0.009662
3340,0.012412,-0.009543,-0.009662
3341,0.012412,-0.025317,0.004761
3342,0.035379,-0.009543,-0.009662
3343,0.012412,-0.009543,0.004761
3344,-0.010555,-0.025317,-0.009662
3345,0.035379,-0.009543,0.004761
3346,0.035379,-0.025317,0.033609
3347,0.012412,-0.009543,0.004761
3348,0.035379,-0.009543,0.004761
3349,0.035379,-0.009543,-0.009662
3350,-0.010555,-0.009543,0.004761
3351,-0.033523,-0.025317,-0.009662
3352,0.081313,-0.009543,-0.009662
3353,0.012412,-0.009543,-0.009662
3354,-0.010555,-0.025317,0.004761
3355,-0.010555,-0.009543,-0.009662
3356,-0.033523,-0.009543,0.004761
3357,-0.010555,-0.041091,0.004761
3358,0.012412,-0.009543,-0.009662
3359,-0.033523,-0.009543,0.004761
3360,-0.010555,-0.025317,0.004761
3361,-0.05649,0.006231,-0.024086
3362,-0.033523,-0.009543,-0.009662
3363,-0.010555,-0.009543,-0.009662
3364,0.012412,0.006231,-0.03851
3365,0.012412,0.006231,0.019185
3366,-0.033523,0.006231,0.004761
3367,-0.010555,-0.009543,-0.009662
3368,0.012412,-0.009543,0.004761
3369,0.012412,-0.025317,-0.009662
3370,-0.033523,-0.009543,0.004761
3371,-0.010555,-0.009543,0.004761
3372,0.035379,-0.009543,-0.009662
3373,0.035379,-0.009543,-0.009662
3374,0.012412,-0.009543,-0.024086
3375,0.035379,-0.009543,-0.009662
3376,-0.010555,-0.025317,-0.009662
3377,-0.010555,-0.041091,-0.009662
3378,-0.010555,-0.009543,-0.009662
3379,0.035379,-0.009543,-0.009662
3380,0.012412,-0.009543,-0.009662
3381,-0.05649,-0.025317,0.004761
3382,-0.010555,-0.025317,0.004761
3383,0.012412,-0.025317,0.004761
3384,-0.033523,-0.009543,-0.009662
3385,-0.010555,-0.009543,-0.009662
3386,-0.010555,0.006231,-0.009662
3387,-0.010555,-0.009543,-0.009662
3388,-0.010555,-0.025317,0.004761
3389,0.012412,-0.025317,0.004761
3390,-0.033523,-0.025317,0.004761
3391,0.012412,0.006231,-0.009662
3392,-0.010555,-0.009543,-0.009662
3393,-0.033523,-0.009543,0.004761
3394,0.012412,-0.041091,-0.009662
3395,0.012412,-0.009543,0.004761
3396,0.035379,-0.009543,-0.009662
3397,0.012412,-0.009543,0.004761
3398,0.012412,-0.009543,0.004761
3399,0.035379,-0.009543,0.004761
3400,0.035379,-0.009543,-0.009662
3401,0.012412,-0.009543,0.004761
3402,0.012412,-0.041091,0.004761
3403,0.035379,-0.025317,-0.009662
3404,0.012412,-0.025317,0.004761
3405,0.012412,-0.025317,0.004761
3406,0.012412,-0.025317,-0.024086
3407,-0.010555,0.006231,-0.024086
3408,0.035379,-0.009543,-0.009662
3409,-0.010555,-0.025317,-0.009662
3410,0.035379,-0.009543,0.004761
3411,0.012412,-0.009543,-0.009662
3412,-0.010555,-0.009543,-0.009662
3413,-0.033523,0.006231,-0.024086
3414,0.058346,-0.009543,0.004761
3415,0.012412,-0.009543,-0.009662
3416,-0.010555,-0.025317,0.004761
3417,-0.010555,-0.025317,-0.009662
3418,-0.033523,-0.009543,-0.009662
3419,-0.033523,-0.009543,-0.009662
3420,-0.033523,-0.009543,-0.009662
3421,0.012412,-0.009543,0.004761
3422,0.012412,-0.025317,-0.024086
3423,-0.033523,-0.025317,-0.024086
3424,-0.010555,-0.009543,-0.009662
3425,0.012412,-0.009543,-0.009662
3426,0.035379,-0.009543,-0.024086
3427,0.058346,0.006231,-0.024086
3428,-0.010555,-0.025317,-0.009662
3429,0.012412,-0.009543,-0.009662
3430,0.035379,-0.025317,-0.009662
3431,0.012412,-0.009543,0.004761
3432,0.012412,-0.025317,-0.009662
3433,0.012412,-0.025317,-0.009662
3434,0.035379,-0.025317,0.004761
3435,0.035379,0.006231,-0.009662
3436,0.012412,-0.025317,-0.024086
3437,0.058346,-0.009543,-0.024086
3438,0.012412,-0.025317,-0.009662
3439,-0.010555,-0.025317,-0.009662
3440,-0.010555,0.006231,0.033609
3441,0.035379,0.022005,-0.024086
3442,0.012412,-0.025317,-0.024086
3443,-0.033523,-0.025317,-0.009662
3444,-0.033523,-0.025317,0.004761
3445,0.012412,-0.025317,-0.009662
3446,0.012412,-0.025317,0.004761
3447,-0.033523,-0.009543,0.004761
3448,-0.05649,-0.009543,0.048033
3449,0.012412,-0.025317,0.004761
3450,-0.010555,-0.009543,0.004761
3451,-0.033523,-0.009543,0.019185
3452,0.012412,-0.009543,-0.009662
3453,0.012412,-0.009543,0.004761
3454,-0.05649,-0.025317,-0.009662
3455,0.012412,-0.009543,0.004761
3456,0.012412,-0.009543,0.004761
3457,0.012412,0.006231,0.004761
3458,0.081313,0.006231,0.004761
3459,0.012412,-0.009543,0.004761
3460,0.035379,-0.025317,0.004761
3461,0.035379,-0.009543,0.004761
3462,0.058346,-0.025317,-0.009662
3463,0.058346,-0.009543,0.004761
3464,0.081313,-0.009543,0.004761
3465,0.012412,-0.025317,0.004761
3466,-0.010555,-0.025317,0.004761
3467,0.012412,0.006231,0.004761
3468,0.012412,0.006231,0.019185
3469,0.012412,-0.025317,-0.009662
3470,-0.010555,-0.009543,0.019185
3471,-0.033523,-0.025317,-0.009662
3472,0.012412,0.006231,0.019185
3473,-0.010555,0.022005,-0.009662
3474,-0.010555,-0.009543,0.004761
3475,-0.010555,-0.009543,-0.009662
3476,0.012412,0.006231,0.004761
3477,0.035379,-0.056865,-0.024086
3478,-0.010555,0.006231,-0.024086
3479,-0.010555,-0.025317,-0.009662
3480,0.012412,0.006231,-0.009662
3481,-0.033523,-0.025317,-0.009662
3482,0.012412,-0.025317,-0.009662
3483,0.012412,-0.009543,-0.009662
3484,0.035379,-0.009543,-0.009662
3485,-0.05649,-0.025317,-0.009662
3486,-0.010555,-0.025317,-0.009662
3487,-0.033523,-0.009543,0.004761
3488,0.058346,-0.025317,-0.009662
3489,0.012412,-0.009543,0.004761
3490,0.012412,-0.025317,-0.024086
3491,0.035379,-0.025317,-0.024086
3492,0.012412,-0.025317,-0.009662
3493,0.012412,-0.025317,-0.009662
3494,0.081313,0.006231,-0.009662
3495,0.035379,0.006231,-0.009662
3496,-0.010555,-0.025317,-0.009662
3497,-0.033523,0.006231,0.004761
3498,0.058346,0.006231,0.004761
3499,0.012412,-0.009543,-0.009662
3500,0.012412,0.006231,0.019185
3501,0.012412,-0.009543,-0.009662
3502,-0.010555,-0.009543,0.019185
3503,0.012412,0.006231,0.004761
3504,0.012412,-0.009543,0.004761
3505,-0.05649,-0.025317,-0.009662
3506,-0.010555,-0.025317,0.004761
3507,0.035379,0.006231,0.004761
3508,-0.033523,-0.009543,0.004761
3509,-0.033523,-0.009543,-0.024086
3510,-0.033523,-0.009543,0.004761
3511,0.012412,-0.025317,-0.024086
3512,-0.05649,-0.009543,-0.024086
3513,0.012412,-0.025317,-0.024086
3514,-0.033523,-0.009543,-0.009662
3515,0.012412,-0.009543,-0.009662
3516,-0.033523,-0.025317,0.004761
3517,-0.05649,-0.009543,0.004761
3518,0.012412,-0.025317,-0.009662
3519,0.058346,-0.041091,-0.009662
3520,0.035379,-0.025317,-0.009662
3521,0.012412,0.006231,0.048033
3522,-0.010555,-0.009543,0.019185
3523,0.035379,-0.009543,0.004761
3524,0.012412,-0.009543,0.004761
3525,0.081313,-0.025317,-0.009662
3526,0.012412,-0.009543,0.004761
3527,0.035379,-0.009543,0.004761
3528,0.012412,-0.025317,-0.009662
3529,0.012412,-0.009543,-0.009662
3530,-0.033523,-0.025317,0.004761
3531,0.012412,-0.025317,-0.009662
3532,-0.010555,-0.009543,-0.009662
3533,0.012412,-0.009543,-0.009662
3534,0.012412,-0.025317,0.004761
3535,-0.010555,-0.009543,-0.009662
3536,-0.033523,-0.009543,-0.009662
3537,0.035379,-0.041091,0.004761
3538,-0.010555,-0.009543,0.004761
3539,-0.033523,-0.009543,-0.009662
3540,-0.010555,-0.025317,-0.009662
3541,0.012412,-0.009543,0.004761
3542,0.058346,-0.009543,-0.009662
3543,-0.010555,-0.025317,-0.009662
3544,0.012412,-0.009543,0.004761
3545,0.035379,0.006231,0.004761
3546,0.058346,0.006231,0.019185
3547,0.058346,0.006231,0.019185
3548,0.012412,-0.025317,-0.024086
3549,0.012412,-0.025317,-0.024086
3550,-0.010555,-0.009543,-0.024086
3551,0.012412,-0.025317,-0.009662
3552,-0.010555,-0.025317,-0.024086
3553,0.012412,0.006231,-0.03851
3554,-0.010555,-0.025317,-0.009662
3555,-0.010555,-0.025317,-0.009662
3556,0.035379,-0.009543,-0.009662
3557,0.012412,0.006231,-0.009662
3558,-0.010555,0.006231,-0.009662
3559,0.012412,-0.009543,-0.009662
3560,0.035379,0.006231,0.004761
3561,-0.033523,-0.025317,-0.009662
3562,-0.05649,-0.009543,-0.024086
3563,-0.033523,-0.025317,-0.009662
3564,-0.033523,-0.009543,0.004761
3565,-0.010555,-0.025317,-0.009662
3566,-0.033523,-0.009543,-0.009662
3567,-0.033523,0.006231,0.004761
3568,-0.010555,-0.009543,-0.009662
3569,-0.010555,-0.009543,-0.009662
3570,-0.010555,-0.009543,-0.009662
3571,0.012412,-0.025317,0.004761
3572,0.035379,-0.009543,0.004761
3573,0.012412,-0.025317,-0.009662
3574,-0.010555,-0.009543,0.019185
3575,-0.010555,-0.009543,0.004761
3576,0.012412,-0.009543,-0.009662
3577,0.035379,-0.009543,-0.009662
3578,-0.010555,-0.009543,-0.009662
3579,0.058346,0.022005,-0.009662
3580,-0.010555,-0.009543,0.004761
