# Requested Sampling Rate (Hz):,1000
# Actual Sampling Rate (Hz):,999.13
# Requested Duration (s):,5.0
# Actual Duration (s):,5.046
# REST Calibration:,831.4595862068991,832.6049655172403,833.6698965517227
# MAX Calibration:,875.0000,896.0000,903.0000
# Normalization: MVC-based  (x_norm = (x - REST) / (MAX - REST))
sample_idx,EMG1,EMG2,EMG3
0,0.012412,-0.025317,-0.024086
1,-0.033523,-0.009543,0.004761
2,0.012412,-0.009543,0.004761
3,0.058346,-0.009543,0.004761
4,0.012412,0.006231,0.033609
5,0.035379,0.006231,0.004761
6,0.058346,-0.009543,0.019185
7,0.012412,0.006231,0.019185
8,0.012412,0.006231,-0.009662
9,-0.033523,-0.025317,-0.009662
10,-0.010555,-0.009543,-0.009662
11,0.035379,-0.009543,-0.024086
12,-0.010555,-0.009543,-0.009662
13,-0.033523,0.006231,-0.009662
14,-0.05649,-0.025317,0.004761
15,-0.010555,-0.009543,0.019185
16,0.012412,0.006231,0.019185
17,-0.033523,-0.025317,0.004761
18,-0.010555,0.006231,0.019185
19,-0.010555,-0.009543,0.004761
20,-0.010555,0.022005,0.004761
21,0.012412,-0.025317,0.004761
22,-0.033523,-0.009543,0.033609
23,0.035379,-0.009543,0.019185
24,0.012412,-0.009543,0.004761
25,0.012412,-0.009543,-0.009662
26,0.012412,-0.009543,-0.024086
27,-0.033523,-0.025317,-0.024086
28,0.058346,-0.025317,-0.024086
29,0.035379,-0.009543,-0.024086
30,0.012412,-0.025317,-0.024086
31,0.058346,-0.025317,-0.009662
32,0.035379,-0.009543,-0.009662
33,0.035379,-0.025317,0.004761
34,0.012412,-0.009543,0.004761
35,0.012412,-0.009543,0.004761
36,0.035379,-0.025317,-0.009662
37,0.035379,-0.025317,-0.009662
38,-0.010555,-0.009543,-0.024086
39,-0.033523,-0.009543,-0.009662
40,-0.033523,-0.009543,-0.009662
41,0.012412,-0.009543,-0.024086
42,0.012412,-0.009543,-0.024086
43,-0.010555,-0.025317,0.019185
44,-0.010555,-0.009543,0.004761
45,0.058346,0.006231,-0.009662
46,-0.033523,0.006231,-0.009662
47,-0.010555,0.006231,0.004761
48,-0.033523,-0.009543,0.004761
49,0.012412,-0.009543,0.004761
50,-0.010555,-0.009543,0.033609
51,-0.010555,0.053554,0.004761
52,0.012412,0.006231,-0.009662
53,-0.010555,0.006231,-0.009662
54,-0.033523,0.006231,0.004761
55,0.035379,0.006231,-0.009662
56,0.012412,-0.056865,0.004761
57,-0.010555,-0.056865,0.033609
58,0.012412,-0.025317,0.004761
59,0.058346,0.006231,0.004761
60,-0.010555,0.085102,-0.009662
61,0.012412,0.069328,0.004761
62,0.058346,0.053554,0.019185
63,0.035379,0.022005,-0.009662
64,0.035379,-0.009543,-0.024086
65,0.035379,-0.056865,-0.009662
66,-0.010555,-0.119962,0.004761
67,-0.010555,-0.072639,-0.009662
68,-0.010555,-0.025317,-0.009662
69,-0.033523,-0.025317,0.004761
70,0.012412,-0.009543,0.004761
71,0.035379,-0.009543,0.004761
72,0.012412,0.006231,-0.024086
73,0.012412,0.006231,-0.009662
74,-0.010555,0.006231,-0.009662
75,-0.05649,0.006231,0.019185
76,-0.010555,-0.009543,0.004761
77,-0.010555,-0.041091,-0.009662
78,-0.033523,-0.088413,-0.024086
79,-0.05649,-0.088413,-0.024086
80,-0.033523,-0.056865,-0.024086
81,-0.010555,-0.025317,-0.03851
82,0.012412,-0.025317,-0.024086
83,-0.033523,-0.025317,-0.024086
84,0.035379,-0.009543,-0.009662
85,-0.010555,-0.009543,0.004761
86,0.012412,0.022005,-0.009662
87,0.035379,0.022005,0.004761
88,0.035379,-0.009543,0.004761
89,0.035379,-0.009543,0.004761
90,-0.033523,0.006231,0.019185
91,0.012412,-0.009543,0.004761
92,0.012412,0.006231,0.048033
93,0.035379,0.022005,0.004761
94,0.058346,-0.009543,0.033609
95,-0.010555,0.006231,0.004761
96,0.035379,0.006231,0.019185
97,0.035379,-0.009543,0.019185
98,0.012412,-0.009543,0.019185
99,-0.010555,-0.009543,-0.009662
100,-0.010555,-0.025317,-0.009662
101,0.012412,-0.009543,-0.024086
102,-0.033523,-0.025317,-0.009662
103,-0.05649,-0.025317,-0.009662
104,-0.033523,-0.009543,-0.009662
105,0.012412,-0.009543,-0.009662
106,-0.033523,-0.009543,0.004761
107,-0.05649,-0.041091,0.004761
108,0.012412,-0.009543,-0.009662
109,0.012412,-0.009543,-0.009662
110,-0.079457,0.006231,-0.024086
111,-0.102424,0.006231,0.004761
112,0.035379,-0.009543,-0.009662
113,0.012412,-0.009543,-0.024086
114,0.012412,-0.025317,-0.03851
115,0.012412,-0.009543,-0.024086
116,-0.010555,-0.009543,-0.009662
117,0.012412,-0.009543,-0.009662
118,0.012412,-0.009543,0.004761
119,0.035379,-0.009543,0.004761
120,0.058346,-0.025317,-0.009662
121,0.012412,-0.009543,-0.009662
122,-0.033523,-0.009543,0.019185
123,-0.05649,0.006231,0.019185
124,-0.010555,-0.009543,0.004761
125,-0.05649,-0.025317,0.004761
126,0.012412,-0.041091,-0.009662
127,0.081313,-0.025317,0.004761
128,0.058346,-0.025317,-0.024086
129,0.012412,-0.025317,-0.009662
130,0.150215,-0.025317,0.004761
131,0.196149,-0.041091,-0.009662
132,0.173182,0.006231,0.004761
133,0.150215,-0.009543,0.004761
134,0.150215,-0.025317,-0.009662
135,0.150215,-0.025317,-0.009662
136,-0.102424,-0.041091,-0.024086
137,-0.240227,-0.041091,-0.024086
138,-0.05649,-0.009543,-0.009662
139,-0.05649,-0.009543,-0.009662
140,-0.010555,-0.025317,0.004761
141,-0.148358,-0.025317,0.004761
142,-0.05649,-0.025317,0.004761
143,-0.010555,-0.025317,-0.009662
144,-0.033523,0.053554,-0.009662
145,-0.102424,0.069328,0.004761
146,-0.010555,0.085102,0.004761
147,0.035379,0.100876,-0.009662
148,0.012412,0.085102,-0.009662
149,0.012412,0.022005,0.004761
150,0.012412,-0.072639,0.004761
151,0.058346,-0.056865,-0.009662
152,0.081313,-0.056865,-0.009662
153,0.058346,-0.088413,-0.009662
154,0.012412,-0.088413,-0.009662
155,0.081313,0.006231,-0.009662
156,0.10428,0.022005,-0.009662
157,-0.033523,0.03778,-0.009662
158,-0.102424,0.022005,-0.024086
159,-0.05649,0.022005,-0.024086
160,0.035379,-0.009543,-0.009662
161,-0.033523,-0.056865,0.004761
162,-0.079457,-0.088413,0.004761
163,-0.079457,-0.056865,-0.009662
164,-0.05649,-0.009543,0.004761
165,-0.05649,-0.009543,0.004761
166,-0.05649,0.006231,0.019185
167,-0.033523,0.227069,0.004761
168,-0.05649,0.274391,0.004761
169,-0.05649,0.195521,0.004761
170,-0.079457,0.03778,-0.009662
171,-0.010555,-0.041091,0.004761
172,-0.010555,-0.104187,-0.009662
173,0.012412,-0.15151,-0.009662
174,0.058346,-0.119962,-0.009662
175,0.10428,-0.119962,-0.024086
176,0.058346,-0.104187,-0.009662
177,0.081313,-0.088413,-0.024086
178,0.10428,-0.088413,-0.009662
179,0.081313,-0.072639,-0.009662
180,-0.010555,-0.104187,-0.009662
181,0.035379,-0.072639,-0.009662
182,-0.010555,-0.041091,-0.009662
183,0.012412,0.100876,-0.024086
184,-0.05649,0.148198,0.004761
185,-0.05649,0.132424,-0.009662
186,-0.010555,0.085102,0.004761
187,0.012412,0.100876,0.004761
188,0.035379,0.022005,0.019185
189,0.012412,-0.135736,-0.009662
190,0.012412,-0.167284,-0.009662
191,0.058346,-0.119962,0.004761
192,0.150215,-0.056865,0.004761
193,0.058346,0.03778,0.004761
194,0.058346,0.03778,0.004761
195,-0.033523,0.069328,-0.009662
196,0.035379,0.006231,-0.009662
197,0.035379,-0.025317,-0.03851
198,0.081313,-0.009543,-0.009662
199,0.012412,0.022005,-0.009662
200,0.012412,0.022005,0.004761
201,0.242083,0.053554,0.004761
202,0.196149,0.148198,0.004761
203,0.10428,0.179746,0.004761
204,-0.010555,0.179746,-0.009662
205,0.081313,-0.025317,0.004761
206,0.012412,-0.056865,0.033609
207,-0.286161,-0.056865,0.019185
208,-0.37803,-0.135736,0.019185
209,-0.125391,-0.198832,0.004761
210,0.127248,-0.135736,-0.024086
211,0.173182,-0.104187,0.004761
212,0.035379,-0.072639,-0.009662
213,0.012412,-0.072639,-0.009662
214,-0.05649,-0.041091,-0.024086
215,-0.125391,-0.056865,-0.024086
216,-0.171326,-0.041091,-0.052934
217,-0.079457,0.085102,-0.009662
218,-0.05649,0.148198,0.004761
219,-0.033523,0.100876,0.004761
220,0.081313,-0.009543,0.004761
221,0.058346,-0.056865,0.019185
222,-0.102424,-0.072639,-0.009662
223,-0.05649,-0.041091,-0.009662
224,-0.05649,-0.072639,0.004761
225,-0.125391,-0.072639,-0.009662
226,-0.079457,-0.056865,-0.009662
227,0.081313,-0.009543,-0.009662
228,0.081313,0.085102,-0.009662
229,0.219116,0.132424,0.004761
230,0.310985,0.148198,0.019185
231,0.356919,0.085102,0.004761
232,0.333952,0.03778,0.019185
233,0.127248,-0.072639,0.004761
234,-0.010555,-0.072639,0.004761
235,-0.010555,-0.088413,-0.009662
236,-0.171326,-0.15151,-0.024086
237,-0.21726,-0.088413,-0.009662
238,-0.240227,-0.041091,0.004761
239,-0.102424,-0.072639,-0.009662
240,-0.125391,-0.056865,-0.009662
241,-0.05649,-0.009543,0.004761
242,0.012412,0.006231,-0.009662
243,-0.05649,0.006231,-0.009662
244,-0.010555,0.022005,-0.024086
245,-0.05649,-0.009543,-0.009662
246,-0.010555,-0.072639,-0.009662
247,-0.079457,-0.119962,0.019185
248,0.035379,-0.072639,-0.009662
249,0.012412,-0.009543,-0.009662
250,0.081313,-0.056865,-0.03851
251,-0.05649,-0.072639,-0.009662
252,-0.102424,0.03778,0.019185
253,-0.05649,0.258617,0.033609
254,-0.033523,0.400584,0.033609
255,-0.033523,0.369036,0.048033
256,0.173182,0.305939,0.019185
257,0.724394,0.163972,-0.009662
258,0.770328,-0.025317,0.004761
259,0.540657,-0.056865,-0.009662
260,0.402854,-0.009543,-0.03851
261,-0.010555,0.085102,-0.052934
262,-0.561767,-0.009543,-0.009662
263,-0.515833,-0.041091,0.019185
264,-0.400997,-0.104187,0.019185
265,-0.125391,-0.167284,0.004761
266,0.012412,-0.167284,0.004761
267,0.127248,-0.23038,-0.009662
268,0.035379,-0.198832,-0.009662
269,0.081313,-0.056865,-0.024086
270,-0.171326,0.006231,-0.03851
271,-0.332096,-0.104187,-0.024086
272,-0.263194,-0.088413,-0.009662
273,-0.37803,-0.135736,0.004761
274,-0.263194,-0.088413,0.004761
275,-0.033523,-0.072639,0.048033
276,-0.033523,0.069328,0.019185
277,-0.010555,0.085102,0.019185
278,0.150215,0.03778,0.004761
279,0.127248,-0.088413,-0.024086
280,0.196149,-0.119962,-0.024086
281,0.081313,-0.025317,-0.03851
282,0.219116,0.163972,-0.024086
283,0.173182,0.447906,-0.009662
284,0.081313,0.526777,0.019185
285,-0.010555,0.38481,0.004761
286,-0.102424,0.148198,0.004761
287,-0.102424,-0.183058,0.004761
288,-0.010555,-0.372347,0.004761
289,0.517689,-0.372347,-0.009662
290,0.517689,-0.388121,-0.024086
291,0.540657,-0.23038,-0.024086
292,0.402854,0.03778,-0.024086
293,-0.332096,0.274391,0.033609
294,-1.090012,0.274391,0.062456
295,-1.112979,0.274391,0.048033
296,-0.423964,0.006231,0.019185
297,0.012412,-0.277703,-0.03851
298,0.333952,-0.325025,-0.052934
299,0.379886,-0.15151,0.004761
300,0.127248,0.069328,0.033609
301,0.288018,0.211295,0.048033
302,0.127248,0.211295,0.019185
303,0.035379,0.11665,-0.009662
304,-0.033523,0.053554,-0.03851
305,0.219116,-0.214606,-0.081781
306,0.333952,-0.293477,-0.096205
307,0.356919,-0.104187,-0.03851
308,0.288018,0.03778,-0.009662
309,0.081313,0.03778,-0.009662
310,0.012412,0.022005,-0.009662
311,-0.102424,0.006231,-0.009662
312,-0.21726,-0.15151,-0.024086
313,-0.102424,-0.119962,-0.009662
314,0.219116,0.053554,0.004761
315,0.333952,0.132424,0.004761
316,0.196149,0.163972,0.004761
317,0.150215,0.163972,0.004761
318,0.035379,0.100876,-0.009662
319,-0.102424,0.022005,-0.03851
320,-0.05649,0.022005,-0.03851
321,-0.37803,-0.088413,-0.03851
322,-0.745505,-0.167284,-0.009662
323,-0.722538,-0.293477,-0.009662
324,-0.423964,-0.309251,-0.024086
325,-0.010555,-0.088413,-0.009662
326,0.173182,0.085102,0.019185
327,0.288018,0.11665,0.048033
328,0.333952,0.03778,0.004761
329,0.379886,0.006231,-0.024086
330,0.196149,0.022005,-0.024086
331,0.035379,0.069328,-0.024086
332,-0.033523,0.100876,-0.024086
333,0.035379,0.211295,-0.009662
334,-0.286161,0.211295,-0.009662
335,-0.309129,0.03778,0.004761
336,-0.05649,-0.041091,0.019185
337,0.012412,-0.009543,0.033609
338,0.012412,-0.167284,0.004761
339,-0.148358,-0.15151,-0.024086
340,-0.309129,-0.025317,-0.009662
341,-0.05649,-0.056865,0.019185
342,0.242083,-0.009543,0.004761
343,0.10428,0.053554,0.004761
344,0.127248,-0.056865,-0.024086
345,0.586591,-0.309251,-0.024086
346,0.655492,-0.214606,0.004761
347,0.632525,-0.056865,-0.009662
348,-0.194293,0.132424,-0.009662
349,-0.561767,0.400584,-0.024086
350,-0.722538,0.447906,0.004761
351,-0.446932,0.337488,0.019185
352,-0.423964,0.006231,-0.024086
353,-0.400997,-0.277703,-0.024086
354,-0.171326,-0.261928,0.004761
355,-0.263194,-0.214606,0.019185
356,-0.05649,-0.167284,-0.009662
357,0.356919,-0.135736,-0.03851
358,0.058346,-0.104187,-0.024086
359,0.310985,-0.119962,-0.024086
360,0.448788,-0.183058,-0.03851
361,0.333952,-0.104187,-0.03851
362,0.150215,0.069328,-0.024086
363,-0.010555,0.022005,-0.009662
364,-0.033523,0.11665,-0.024086
365,0.081313,0.179746,-0.009662
366,0.035379,0.132424,0.033609
367,-0.033523,0.195521,0.048033
368,-0.125391,0.132424,0.048033
369,-0.240227,-0.009543,-0.009662
370,-0.309129,-0.23038,-0.009662
371,-0.21726,-0.325025,-0.03851
372,0.035379,-0.246154,-0.067357
373,0.265051,-0.119962,-0.052934
374,0.425821,0.46368,-0.009662
375,0.724394,0.621421,0.019185
376,0.448788,0.511003,0.048033
377,0.265051,0.400584,0.048033
378,0.127248,-0.119962,0.033609
379,-0.263194,-0.388121,-0.009662
380,0.402854,-0.403895,-0.052934
381,0.885164,-0.49854,-0.110629
382,0.885164,-0.325025,-0.081781
383,0.609558,-0.198832,-0.009662
384,0.173182,-0.104187,-0.024086
385,-1.090012,0.369036,0.019185
386,-1.480454,0.321713,0.004761
387,-1.319684,0.03778,0.019185
388,-0.630669,0.132424,0.004761
389,-0.171326,0.148198,0.033609
390,0.288018,-0.009543,0.033609
391,0.540657,-0.088413,0.019185
392,0.402854,-0.23038,-0.052934
393,0.448788,-0.214606,-0.081781
394,0.081313,-0.198832,-0.081781
395,-0.814406,0.163972,-0.052934
396,-0.860341,0.952678,-0.03851
397,0.173182,1.236612,-0.009662
398,0.67846,0.810711,0.004761
399,0.816263,0.337488,0.048033
400,0.67846,-0.025317,0.048033
401,-0.125391,-0.403895,0.033609
402,-0.607702,-0.593185,-0.024086
403,-0.561767,-0.514314,-0.052934
404,-0.607702,-0.119962,-0.024086
405,-0.929242,-0.293477,-0.024086
406,-1.090012,-0.056865,0.033609
407,-1.480454,0.195521,0.091304
408,-0.607702,-0.119962,0.105728
409,1.045934,-0.025317,0.048033
410,2.492866,-0.435444,-0.03851
411,2.952209,-0.530088,-0.081781
412,1.941654,-0.545862,-0.125052
413,0.448788,0.211295,-0.081781
414,-0.584735,0.574099,-0.024086
415,-0.5388,0.337488,0.019185
416,-0.355063,-0.025317,0.019185
417,-0.010555,-0.056865,0.033609
418,-0.079457,-0.088413,0.004761
419,-0.400997,0.163972,0.004761
420,-0.400997,-0.104187,-0.067357
421,-0.194293,-0.198832,-0.052934
422,0.127248,0.132424,-0.067357
423,0.10428,0.179746,-0.03851
424,-0.079457,0.085102,-0.03851
425,-0.171326,-0.041091,-0.024086
426,0.150215,-0.167284,-0.052934
427,0.196149,0.022005,-0.052934
428,0.012412,-0.025317,-0.024086
429,-0.125391,-0.056865,-0.052934
430,-0.079457,-0.119962,-0.009662
431,-0.171326,-0.104187,0.033609
432,-0.263194,-0.183058,-0.024086
433,-0.102424,-0.041091,0.048033
434,0.219116,0.132424,0.019185
435,-0.05649,0.053554,0.033609
436,-0.492866,-0.198832,0.048033
437,-0.745505,-0.608959,0.033609
438,-1.135947,-0.530088,-0.03851
439,-0.584735,-0.104187,-0.052934
440,0.333952,0.11665,0.048033
441,0.609558,0.258617,0.062456
442,0.563624,0.479454,0.019185
443,0.035379,0.65297,-0.009662
444,0.035379,-0.041091,-0.03851
445,0.265051,-0.971763,-0.03851
446,0.816263,-0.672055,-0.009662
447,1.597146,0.148198,-0.009662
448,0.862197,0.369036,-0.067357
449,-0.033523,0.684518,-0.052934
450,-0.148358,0.211295,-0.03851
451,0.058346,-0.340799,-0.024086
452,-0.240227,-0.088413,0.033609
453,-0.400997,0.369036,0.048033
454,-0.860341,0.46368,0.07688
455,-1.181881,0.605647,0.048033
456,-0.745505,0.763388,-0.03851
457,0.058346,0.274391,-0.081781
458,0.150215,-0.183058,-0.110629
459,-0.125391,-0.545862,-0.125052
460,-0.05649,0.227069,0.004761
461,0.310985,1.094645,0.062456
462,0.242083,0.747614,0.07688
463,1.0,0.132424,0.033609
464,-0.010555,-0.403895,-0.009662
465,-0.033523,-0.687829,-0.081781
466,0.012412,-0.703603,-0.067357
467,-0.102424,-0.719378,-0.024086
468,0.012412,-0.672055,-0.052934
469,-0.102424,-0.009543,-0.024086
470,-0.240227,0.432132,0.048033
471,-0.400997,0.132424,0.048033
472,-0.492866,0.794937,0.019185
473,-0.240227,1.236612,0.091304
474,0.012412,0.700292,0.177846
475,-0.5388,-0.214606,0.120151
476,-0.05649,-0.608959,0.004761
477,0.586591,-0.703603,-0.03851
478,0.540657,-0.687829,-0.081781
479,0.058346,-0.372347,-0.110629
480,-0.469899,0.100876,-0.139476
481,-0.148358,0.195521,-0.067357
482,0.379886,-0.025317,-0.067357
483,1.849785,0.03778,0.004761
484,1.689015,-0.261928,0.019185
485,1.252639,-0.025317,0.033609
486,-0.37803,-0.025317,0.019185
487,-1.067045,-0.482766,-0.03851
488,-1.549356,-0.340799,-0.067357
489,-1.112979,-0.167284,0.004761
490,-0.332096,0.511003,0.019185
491,-0.240227,0.921129,0.019185
492,-0.446932,0.905355,0.062456
493,-0.607702,0.211295,0.105728
494,0.127248,-0.545862,0.033609
495,0.908131,-0.987537,-0.052934
496,0.885164,-0.719378,-0.110629
497,1.137803,0.479454,-0.067357
498,0.540657,1.141967,-0.03851
499,-0.171326,1.220837,-0.052934
500,-0.21726,-0.041091,-0.052934
501,-0.446932,-0.7667,-0.081781
502,-0.21726,0.069328,-0.009662
503,0.012412,0.716066,0.062456
504,0.196149,0.479454,-0.024086
505,0.219116,-0.15151,-0.052934
506,-0.033523,-0.624733,-0.03851
507,-0.148358,-0.340799,0.004761
508,-0.148358,-0.277703,0.033609
509,0.563624,-0.388121,-0.009662
510,0.724394,-0.340799,0.019185
511,0.356919,0.053554,0.062456
512,-0.033523,0.511003,0.105728
513,-0.079457,0.416358,0.048033
514,-0.791439,-0.530088,-0.009662
515,-0.653636,-0.608959,-0.03851
516,0.10428,-0.530088,-0.024086
517,0.83923,-0.119962,-0.03851
518,0.816263,-0.183058,-0.081781
519,0.10428,-0.356573,-0.067357
520,-1.296717,0.006231,-0.03851
521,-1.090012,0.432132,0.004761
522,-0.332096,0.195521,-0.052934
523,-0.446932,-0.135736,-0.067357
524,0.150215,-0.435444,-0.009662
525,0.333952,-1.066408,0.004761
526,0.977033,-0.372347,0.019185
527,-0.423964,0.337488,0.004761
528,-0.837373,0.637196,-0.009662
529,-0.286161,0.589873,-0.009662
530,0.471755,0.668744,0.048033
531,1.206705,0.258617,0.105728
532,1.022967,-0.15151,-0.03851
533,1.183737,-0.198832,-0.052934
534,0.471755,-0.009543,-0.024086
535,-0.791439,0.305939,-0.009662
536,-0.286161,0.716066,0.048033
537,-0.676603,1.362804,0.091304
538,-1.388585,0.65297,0.048033
539,-1.457487,-0.624733,0.004761
540,-0.37803,-0.877119,-0.024086
541,0.356919,-0.545862,0.033609
542,1.711982,0.179746,0.048033
543,1.872752,0.432132,-0.024086
544,1.459343,-0.372347,-0.096205
545,0.219116,-1.192601,-0.1539
546,-0.814406,-0.356573,-0.024086
547,-1.204848,0.11665,0.033609
548,-1.067045,-0.340799,0.091304
549,-0.745505,-0.530088,0.033609
550,-0.171326,-0.719378,0.033609
551,1.459343,-0.451218,-0.024086
552,1.436376,-0.025317,0.019185
553,0.770328,0.447906,0.033609
554,0.288018,1.094645,-0.009662
555,0.793295,0.305939,-0.03851
556,0.977033,0.132424,-0.03851
557,-0.492866,0.258617,-0.009662
558,-1.021111,0.968452,-0.009662
559,-0.975176,0.668744,-0.067357
560,-0.906275,0.211295,-0.125052
561,-0.607702,-0.293477,-0.052934
562,0.632525,0.069328,0.062456
563,0.931098,0.163972,0.091304
564,0.173182,-0.372347,0.004761
565,-0.309129,-1.255697,-0.096205
566,-1.227815,-1.176827,-0.024086
567,-0.332096,-0.009543,0.07688
568,0.150215,0.022005,0.019185
569,-0.263194,0.03778,-0.067357
570,-0.033523,0.211295,-0.03851
571,0.127248,0.542551,0.062456
572,-0.446932,-0.088413,0.033609
573,-0.148358,-0.198832,0.019185
574,0.701427,0.053554,-0.110629
575,0.770328,0.211295,-0.081781
576,0.908131,-0.293477,-0.03851
577,1.091869,-0.514314,-0.009662
578,0.448788,-0.119962,0.048033
579,-0.37803,0.022005,-0.009662
580,-1.27375,-0.088413,-0.081781
581,-1.457487,0.542551,0.033609
582,-0.446932,0.258617,0.033609
583,-1.021111,-0.167284,-0.067357
584,-1.158914,0.447906,0.062456
585,0.494722,1.725609,0.206694
586,2.952209,0.369036,0.062456
587,2.69957,-1.224149,-0.182747
588,0.081313,-0.877119,-0.168324
589,-0.906275,-0.183058,-0.081781
590,-0.309129,0.11665,0.019185
591,-0.745505,0.369036,0.019185
592,-0.630669,0.274391,-0.024086
593,0.035379,-0.908667,-0.009662
594,0.035379,-1.239923,0.048033
595,0.931098,-0.577411,0.033609
596,0.127248,-0.482766,-0.052934
597,-0.194293,-0.025317,-0.067357
598,-0.102424,0.905355,-0.03851
599,-0.240227,0.400584,0.019185
600,-0.906275,-0.23038,0.091304
601,-0.446932,0.290165,0.105728
602,0.265051,0.242843,0.033609
603,0.425821,0.337488,-0.052934
604,0.058346,0.73184,-0.067357
605,0.127248,0.11665,-0.081781
606,0.402854,0.11665,0.019185
607,-0.607702,0.337488,0.004761
608,-1.27375,0.542551,0.004761
609,-0.722538,0.006231,0.07688
610,-0.148358,-0.435444,0.120151
611,-0.079457,-1.003311,0.019185
612,-0.837373,-0.388121,-0.182747
613,-0.263194,0.227069,-0.182747
614,1.137803,0.006231,-0.096205
615,1.459343,0.274391,-0.009662
616,0.977033,0.621421,0.062456
617,0.219116,0.195521,0.148999
618,1.252639,-0.924441,0.105728
619,1.068902,-1.208375,0.07688
620,-0.722538,-0.214606,0.019185
621,-2.858484,0.38481,-0.009662
622,-2.100568,0.905355,-0.009662
623,-0.446932,-0.356573,-0.03851
624,0.83923,-1.082182,-0.110629
625,2.148358,-0.056865,-0.081781
626,1.206705,0.290165,-0.024086
627,0.173182,0.763388,-0.024086
628,-0.125391,0.873807,-0.081781
629,-0.263194,0.274391,-0.139476
630,-0.05649,0.163972,-0.03851
631,0.609558,1.015774,0.120151
632,1.0,0.794937,0.134575
633,-0.21726,-0.624733,-0.009662
634,-1.457487,-0.719378,-0.096205
635,-0.653636,-0.41967,-0.081781
636,0.012412,-0.877119,-0.081781
637,0.494722,-0.451218,0.004761
638,0.10428,-0.041091,0.033609
639,-0.37803,-0.23038,0.019185
640,-0.400997,-0.325025,0.033609
641,0.081313,-0.214606,0.019185
642,1.344508,-0.214606,0.004761
643,1.780884,0.006231,-0.024086
644,1.114836,-0.072639,-0.024086
645,-0.653636,0.305939,0.033609
646,-1.112979,0.11665,0.120151
647,-1.181881,-0.435444,0.019185
648,-0.630669,-1.097956,-0.096205
649,0.242083,0.337488,0.07688
650,0.012412,1.851802,0.177846
651,-0.929242,1.504771,0.177846
652,-1.59529,0.242843,0.062456
653,-0.676603,-1.03486,-0.110629
654,1.0,-0.309251,-0.125052
655,0.862197,1.331256,-0.009662
656,-0.469899,1.063096,0.004761
657,-0.286161,0.211295,0.019185
658,0.058346,-0.403895,-0.03851
659,1.0,-0.466992,-0.081781
660,-0.102424,-0.735152,-0.125052
661,-0.584735,-1.129504,-0.081781
662,-0.400997,-1.334568,-0.009662
663,0.701427,-0.482766,-0.009662
664,1.252639,0.65297,0.091304
665,0.931098,0.65297,0.033609
666,0.793295,0.668744,-0.081781
667,1.091869,0.779163,-0.067357
668,0.402854,0.069328,-0.067357
669,-0.37803,-0.325025,-0.009662
670,-0.883308,-0.908667,-0.096205
671,-0.561767,-0.088413,-0.009662
672,-0.745505,0.589873,0.091304
673,-0.607702,0.100876,-0.024086
674,-0.240227,-0.672055,-0.096205
675,0.127248,-0.183058,-0.052934
676,0.586591,-0.104187,0.004761
677,0.288018,-0.451218,0.033609
678,0.724394,-0.861345,0.091304
679,-0.883308,-0.814022,0.048033
680,-1.158914,-0.183058,0.033609
681,0.242083,-0.025317,-0.067357
682,1.114836,0.763388,-0.067357
683,0.196149,0.763388,0.004761
684,-0.5388,-0.119962,-0.03851
685,-0.745505,0.274391,-0.024086
686,0.333952,0.810711,0.019185
687,0.058346,1.53632,0.163423
688,0.196149,0.921129,0.134575
689,0.425821,-0.340799,-0.009662
690,1.229672,-0.356573,-0.03851
691,0.609558,0.432132,-0.125052
692,-0.515833,0.069328,-0.096205
693,-0.446932,-1.019086,-0.03851
694,-1.021111,-1.271471,-0.096205
695,-1.250782,-0.7667,-0.024086
696,-0.952209,-0.719378,0.019185
697,-0.584735,-0.340799,-0.052934
698,-0.010555,0.952678,-0.03851
699,0.150215,1.583642,0.048033
700,0.448788,1.520546,0.120151
701,0.356919,1.252386,0.07688
702,0.83923,0.006231,-0.03851
703,1.022967,-0.41967,-0.009662
704,0.425821,-0.719378,0.004761
705,-0.860341,-1.555405,-0.081781
706,-1.480454,-0.908667,-0.024086
707,-0.37803,-0.388121,0.048033
708,-0.21726,-0.892893,0.120151
709,-0.446932,-1.476535,0.033609
710,-0.033523,-1.082182,-0.052934
711,-0.148358,-0.277703,-0.139476
712,0.563624,1.205063,-0.1539
713,2.286161,1.252386,-0.081781
714,1.918687,0.905355,0.004761
715,0.83923,0.826485,-0.009662
716,0.517689,0.148198,-0.052934
717,0.586591,-0.388121,-0.03851
718,-0.515833,-0.451218,-0.009662
719,-0.676603,-0.293477,-0.009662
720,-1.021111,-0.135736,-0.009662
721,-0.860341,0.195521,0.004761
722,-0.240227,-0.088413,0.004761
723,0.219116,-0.388121,0.019185
724,-0.125391,-0.530088,0.048033
725,-0.355063,-0.009543,0.048033
726,-0.883308,0.03778,-0.03851
727,-1.021111,0.006231,-0.096205
728,0.081313,0.668744,-0.024086
729,0.862197,0.810711,-0.009662
730,0.885164,0.794937,-0.024086
731,0.150215,0.716066,-0.009662
732,-0.332096,0.321713,0.004761
733,-0.469899,0.100876,0.048033
734,-0.309129,-0.041091,0.033609
735,-0.263194,-0.49854,0.019185
736,-0.148358,-0.735152,0.033609
737,-0.125391,-0.908667,0.019185
738,-0.332096,-0.388121,0.048033
739,0.012412,0.73184,0.105728
740,0.288018,1.173515,0.019185
741,0.655492,0.305939,-0.110629
742,0.747361,-0.167284,-0.168324
743,0.747361,0.258617,-0.03851
744,0.793295,-0.435444,-0.024086
745,-0.423964,-0.924441,-0.024086
746,-0.745505,-0.703603,0.019185
747,-0.240227,-0.41967,0.048033
748,-0.745505,-0.056865,-0.009662
749,-0.906275,0.11665,0.019185
750,-0.630669,0.195521,0.048033
751,0.196149,0.968452,0.033609
752,0.012412,0.03778,-0.03851
753,-0.171326,-0.167284,-0.067357
754,0.081313,-0.198832,-0.052934
755,0.196149,-0.41967,-0.067357
756,0.173182,-0.372347,-0.03851
757,0.035379,0.179746,0.033609
758,-0.194293,0.369036,0.120151
759,-0.400997,0.100876,0.033609
760,-0.148358,-0.687829,-0.067357
761,0.173182,-0.261928,-0.096205
762,0.379886,-0.214606,-0.03851
763,0.219116,-0.088413,-0.024086
764,0.012412,-0.025317,-0.024086
765,-0.010555,-0.088413,-0.024086
766,-0.079457,-0.135736,-0.009662
767,-0.079457,0.022005,0.019185
768,0.10428,0.03778,0.048033
769,0.540657,0.022005,0.019185
770,0.402854,-0.009543,0.033609
771,0.012412,-0.056865,-0.024086
772,-0.423964,-0.119962,-0.052934
773,-0.309129,-0.056865,-0.024086
774,-0.309129,-0.056865,-0.024086
775,-0.240227,-0.056865,-0.03851
776,-0.102424,-0.009543,-0.024086
777,-0.125391,-0.056865,0.004761
778,-0.102424,-0.056865,0.019185
779,-0.079457,-0.056865,0.019185
780,-0.05649,-0.041091,0.004761
781,-0.05649,-0.056865,-0.024086
782,-0.05649,-0.072639,-0.03851
783,-0.102424,-0.041091,-0.009662
784,-0.010555,-0.041091,-0.009662
785,-0.079457,-0.072639,-0.03851
786,-0.05649,-0.041091,-0.009662
787,-0.079457,-0.025317,0.033609
788,-0.05649,-0.041091,0.004761
789,-0.010555,-0.056865,-0.009662
790,-0.05649,-0.119962,-0.03851
791,0.035379,-0.056865,-0.03851
792,0.035379,-0.041091,-0.024086
793,-0.010555,-0.041091,-0.009662
794,-0.079457,-0.041091,-0.009662
795,-0.079457,0.006231,0.019185
796,-0.102424,0.022005,0.033609
797,-0.102424,-0.056865,0.019185
798,-0.010555,-0.072639,0.019185
799,0.10428,0.006231,0.004761
800,0.012412,0.006231,0.004761
801,-0.033523,-0.041091,0.004761
802,-0.033523,-0.056865,-0.024086
803,-0.05649,-0.041091,-0.03851
804,-0.079457,-0.056865,-0.024086
805,-0.010555,0.006231,-0.009662
806,-0.05649,0.022005,0.019185
807,-0.010555,0.006231,0.004761
808,-0.033523,0.022005,-0.03851
809,-0.033523,-0.056865,-0.024086
810,0.150215,-0.009543,0.004761
811,0.10428,-0.056865,0.019185
812,-0.102424,0.006231,0.004761
813,0.081313,0.006231,0.019185
814,-0.010555,0.022005,0.033609
815,-0.240227,0.03778,0.019185
816,-0.240227,-0.025317,-0.024086
817,-0.148358,0.38481,0.033609
818,0.058346,0.495229,0.07688
819,0.058346,0.100876,0.048033
820,0.035379,-0.403895,-0.067357
821,0.058346,-0.514314,-0.03851
822,0.127248,-0.167284,0.004761
823,0.035379,-0.088413,-0.024086
824,0.012412,-0.088413,-0.009662
825,0.058346,0.022005,0.004761
826,0.012412,-0.009543,-0.009662
827,-0.033523,-0.246154,0.004761
828,-0.033523,-0.277703,-0.024086
829,-0.033523,-0.167284,-0.03851
830,0.012412,0.085102,-0.03851
831,0.10428,0.353262,0.004761
832,0.081313,0.195521,0.019185
833,0.035379,0.022005,0.019185
834,-0.033523,0.006231,-0.009662
835,-0.033523,0.03778,-0.024086
836,0.035379,0.148198,-0.024086
837,0.012412,0.132424,-0.009662
838,0.058346,0.03778,0.004761
839,-0.05649,-0.009543,0.004761
840,0.10428,-0.009543,0.004761
841,0.035379,0.100876,0.004761
842,-0.033523,0.163972,0.004761
843,-0.102424,0.053554,-0.024086
844,-0.102424,-0.041091,-0.009662
845,-0.010555,-0.119962,-0.024086
846,-0.033523,-0.183058,-0.024086
847,0.012412,-0.15151,-0.009662
848,-0.033523,-0.009543,0.019185
849,-0.033523,0.03778,0.004761
850,0.012412,0.03778,0.004761
851,0.012412,0.022005,0.019185
852,-0.033523,0.006231,0.033609
853,0.058346,-0.009543,-0.009662
854,-0.102424,-0.025317,-0.009662
855,-0.05649,-0.041091,-0.009662
856,-0.010555,-0.025317,-0.009662
857,-0.033523,-0.025317,-0.009662
858,-0.05649,-0.009543,0.004761
859,-0.010555,0.006231,0.033609
860,0.012412,0.006231,0.033609
861,0.012412,0.085102,0.019185
862,0.035379,0.006231,-0.024086
863,-0.102424,-0.072639,-0.024086
864,-0.079457,-0.198832,-0.03851
865,-0.033523,-0.135736,-0.052934
866,0.012412,0.03778,-0.03851
867,0.035379,0.100876,-0.024086
868,0.012412,0.100876,-0.024086
869,0.035379,0.03778,0.004761
870,-0.033523,-0.041091,-0.009662
871,0.012412,0.053554,-0.024086
872,0.127248,0.163972,-0.03851
873,0.035379,0.11665,-0.03851
874,-0.102424,-0.135736,-0.03851
875,-0.05649,-0.104187,0.004761
876,0.035379,-0.041091,0.033609
877,0.012412,-0.041091,0.033609
878,-0.033523,-0.009543,0.019185
879,-0.079457,-0.041091,-0.024086
880,-0.05649,-0.009543,-0.009662
881,-0.05649,0.022005,-0.009662
882,-0.079457,0.03778,0.019185
883,-0.05649,-0.009543,-0.009662
884,-0.033523,-0.056865,0.004761
885,0.012412,-0.025317,0.004761
886,0.012412,-0.009543,0.004761
887,-0.05649,0.100876,-0.009662
888,-0.033523,0.11665,0.004761
889,-0.05649,0.132424,0.019185
890,-0.102424,0.03778,0.033609
891,-0.010555,-0.104187,0.004761
892,0.035379,-0.183058,-0.024086
893,-0.010555,-0.15151,-0.03851
894,-0.033523,-0.056865,-0.024086
895,0.035379,-0.009543,-0.024086
896,0.012412,-0.009543,-0.024086
897,0.058346,0.006231,-0.03851
898,-0.033523,0.006231,0.019185
899,-0.033523,0.022005,0.033609
900,-0.05649,0.006231,0.004761
901,0.012412,-0.119962,0.004761
902,-0.033523,-0.056865,-0.024086
903,0.012412,0.03778,-0.009662
904,0.012412,0.006231,-0.024086
905,0.012412,0.006231,0.004761
906,-0.033523,0.022005,0.019185
907,-0.033523,0.022005,0.019185
908,-0.010555,-0.009543,-0.024086
909,-0.010555,-0.009543,-0.009662
910,0.012412,-0.009543,0.019185
911,0.012412,-0.025317,0.004761
912,-0.033523,-0.041091,-0.009662
913,-0.05649,-0.009543,0.004761
914,-0.05649,0.006231,0.004761
915,-0.05649,0.03778,0.004761
916,0.012412,0.022005,-0.009662
917,-0.010555,-0.056865,-0.009662
918,-0.033523,-0.056865,-0.03851
919,-0.05649,-0.025317,-0.024086
920,-0.033523,-0.009543,-0.024086
921,-0.033523,0.006231,-0.024086
922,-0.033523,0.006231,0.004761
923,-0.033523,-0.009543,-0.009662
924,-0.033523,-0.009543,0.004761
925,-0.033523,-0.025317,0.004761
926,-0.033523,-0.009543,0.004761
927,0.012412,-0.025317,0.019185
928,0.012412,0.022005,0.033609
929,-0.033523,0.100876,-0.009662
930,0.012412,0.132424,0.019185
931,-0.010555,-0.009543,0.004761
932,-0.033523,-0.167284,0.004761
933,-0.05649,-0.056865,0.004761
934,0.035379,-0.041091,0.019185
935,-0.010555,-0.072639,-0.024086
936,0.035379,0.069328,-0.052934
937,0.035379,0.069328,-0.009662
938,-0.05649,-0.041091,-0.009662
939,-0.010555,-0.009543,-0.024086
940,0.035379,-0.041091,-0.03851
941,0.012412,-0.15151,-0.024086
942,0.035379,-0.088413,0.019185
943,0.012412,-0.025317,0.019185
944,-0.010555,-0.009543,0.019185
945,-0.010555,-0.025317,0.004761
946,-0.010555,-0.009543,-0.009662
947,0.035379,-0.025317,-0.024086
948,0.012412,-0.009543,-0.009662
949,-0.05649,-0.041091,-0.009662
950,-0.033523,-0.009543,-0.024086
951,0.012412,-0.025317,0.004761
952,-0.010555,-0.009543,0.004761
953,-0.010555,-0.009543,0.019185
954,0.012412,0.006231,-0.009662
955,-0.05649,-0.041091,-0.009662
956,-0.05649,0.022005,-0.024086
957,-0.079457,0.006231,-0.009662
958,-0.033523,-0.041091,0.004761
959,-0.010555,-0.056865,0.004761
960,0.012412,-0.041091,0.004761
961,-0.033523,0.006231,-0.03851
962,-0.010555,0.006231,-0.009662
963,0.012412,0.022005,0.004761
964,-0.033523,-0.009543,-0.009662
965,-0.079457,-0.009543,0.004761
966,0.035379,-0.025317,0.004761
967,0.035379,-0.009543,-0.009662
968,0.058346,0.006231,0.062456
969,0.012412,0.006231,0.019185
970,0.035379,-0.009543,-0.009662
971,0.012412,0.006231,-0.024086
972,0.012412,0.006231,-0.009662
973,-0.010555,-0.009543,0.033609
974,0.012412,-0.009543,0.033609
975,0.058346,-0.009543,0.004761
976,0.035379,0.006231,0.004761
977,0.035379,-0.009543,0.019185
978,-0.033523,-0.009543,0.019185
979,0.035379,-0.009543,0.004761
980,-0.010555,-0.025317,-0.009662
981,-0.033523,-0.025317,-0.024086
982,-0.010555,-0.009543,-0.024086
983,0.035379,-0.025317,-0.024086
984,-0.010555,-0.072639,-0.052934
985,-0.05649,-0.041091,-0.052934
986,-0.033523,-0.041091,-0.03851
987,-0.010555,0.006231,-0.009662
988,0.012412,0.03778,0.004761
989,-0.010555,0.022005,-0.024086
990,-0.033523,-0.009543,-0.024086
991,0.012412,-0.009543,-0.009662
992,0.012412,0.006231,-0.009662
993,0.012412,-0.009543,0.004761
994,-0.033523,-0.009543,0.004761
995,0.012412,-0.041091,0.004761
996,0.012412,-0.009543,-0.009662
997,-0.033523,-0.009543,-0.009662
998,-0.033523,0.022005,0.033609
999,0.012412,-0.025317,0.062456
1000,-0.010555,-0.009543,0.004761
1001,-0.033523,0.006231,0.019185
1002,0.012412,0.006231,0.019185
1003,0.012412,0.006231,0.019185
1004,-0.033523,-0.041091,-0.024086
1005,-0.010555,-0.025317,-0.03851
1006,-0.010555,-0.056865,-0.024086
1007,-0.05649,-0.088413,-0.024086
1008,-0.010555,-0.088413,-0.009662
1009,-0.033523,-0.041091,-0.024086
1010,-0.010555,0.006231,-0.009662
1011,0.058346,0.03778,-0.024086
1012,0.012412,0.03778,0.004761
1013,0.058346,0.03778,-0.009662
1014,0.012412,0.022005,0.019185
1015,0.012412,-0.009543,-0.009662
1016,0.012412,-0.009543,0.019185
1017,0.035379,-0.009543,-0.009662
1018,0.012412,-0.009543,0.004761
1019,-0.010555,-0.009543,-0.024086
1020,-0.010555,-0.009543,-0.009662
1021,-0.010555,-0.009543,-0.009662
1022,0.058346,0.006231,-0.009662
1023,0.012412,0.006231,0.004761
1024,0.012412,0.006231,0.004761
1025,0.035379,-0.009543,0.019185
1026,0.012412,-0.041091,0.004761
1027,0.035379,-0.009543,0.004761
1028,0.012412,-0.025317,0.004761
1029,-0.033523,-0.025317,0.004761
1030,-0.010555,-0.025317,-0.024086
1031,0.012412,0.006231,-0.024086
1032,-0.010555,-0.009543,-0.009662
1033,-0.010555,-0.025317,-0.03851
1034,-0.05649,-0.056865,-0.024086
1035,0.035379,0.006231,0.019185
1036,-0.033523,0.03778,0.033609
1037,-0.033523,-0.025317,0.019185
1038,0.012412,-0.056865,-0.009662
1039,-0.010555,-0.056865,-0.024086
1040,-0.033523,-0.041091,-0.009662
1041,-0.079457,-0.025317,0.004761
1042,-0.033523,0.006231,0.004761
1043,0.012412,0.006231,0.004761
1044,-0.010555,-0.009543,0.004761
1045,-0.033523,-0.009543,0.004761
1046,-0.010555,-0.009543,0.004761
1047,-0.010555,-0.025317,0.004761
1048,0.012412,-0.041091,-0.009662
1049,-0.05649,-0.009543,0.004761
1050,-0.010555,0.006231,0.019185
1051,-0.010555,-0.041091,0.004761
1052,-0.010555,-0.009543,0.019185
1053,-0.010555,-0.009543,-0.024086
1054,0.035379,0.006231,0.004761
1055,-0.010555,0.006231,0.004761
1056,0.058346,0.006231,0.004761
1057,0.058346,0.03778,0.004761
1058,0.035379,-0.009543,0.004761
1059,0.058346,0.022005,0.004761
1060,0.035379,0.03778,0.019185
1061,0.012412,0.022005,0.019185
1062,0.012412,0.022005,-0.009662
1063,0.081313,0.006231,0.004761
1064,0.012412,-0.009543,-0.009662
1065,-0.05649,-0.072639,-0.009662
1066,-0.033523,-0.135736,-0.024086
1067,-0.05649,-0.119962,0.004761
1068,-0.010555,-0.025317,0.033609
1069,-0.010555,-0.025317,0.048033
1070,-0.033523,-0.025317,0.004761
1071,-0.05649,-0.072639,-0.03851
1072,-0.033523,-0.041091,-0.009662
1073,-0.010555,-0.009543,0.004761
1074,-0.033523,-0.009543,-0.009662
1075,0.012412,-0.009543,0.004761
1076,-0.033523,0.006231,0.004761
1077,-0.033523,-0.009543,0.004761
1078,-0.010555,0.006231,0.019185
1079,0.012412,-0.009543,0.004761
1080,-0.033523,-0.009543,-0.024086
1081,-0.033523,-0.056865,-0.052934
1082,-0.010555,-0.041091,-0.052934
1083,0.012412,-0.009543,0.033609
1084,-0.05649,0.022005,0.048033
1085,-0.010555,0.006231,0.019185
1086,-0.010555,0.006231,-0.009662
1087,0.035379,-0.025317,0.004761
1088,-0.05649,-0.009543,0.004761
1089,-0.010555,-0.009543,0.004761
1090,-0.033523,-0.009543,0.004761
1091,0.012412,0.006231,0.004761
1092,0.012412,0.006231,0.019185
1093,0.012412,0.006231,0.019185
1094,0.012412,-0.009543,0.004761
1095,0.081313,-0.009543,0.019185
1096,0.035379,-0.009543,0.019185
1097,0.012412,-0.025317,-0.009662
1098,0.012412,-0.009543,-0.024086
1099,0.012412,-0.009543,-0.009662
1100,-0.05649,-0.009543,-0.009662
1101,0.012412,-0.025317,-0.009662
1102,0.035379,-0.025317,-0.009662
1103,-0.010555,-0.009543,0.004761
1104,-0.033523,-0.025317,0.019185
1105,-0.05649,-0.009543,0.019185
1106,0.035379,-0.009543,0.004761
1107,0.012412,0.006231,-0.009662
1108,0.012412,0.022005,0.004761
1109,-0.05649,-0.025317,0.004761
1110,-0.05649,-0.041091,0.004761
1111,-0.010555,-0.009543,-0.009662
1112,-0.010555,-0.009543,0.004761
1113,-0.033523,-0.025317,-0.009662
1114,-0.033523,0.006231,-0.024086
1115,-0.010555,-0.009543,-0.009662
1116,-0.033523,-0.009543,0.004761
1117,-0.079457,-0.025317,-0.009662
1118,0.012412,-0.009543,-0.009662
1119,-0.010555,-0.009543,-0.009662
1120,-0.033523,-0.009543,0.019185
1121,-0.033523,-0.025317,-0.009662
1122,0.035379,-0.041091,0.004761
1123,-0.010555,-0.025317,0.019185
1124,-0.010555,-0.009543,0.004761
1125,-0.033523,0.006231,-0.009662
1126,-0.033523,-0.009543,0.004761
1127,0.012412,-0.009543,-0.009662
1128,-0.010555,0.006231,-0.009662
1129,0.035379,-0.009543,0.004761
1130,-0.033523,-0.025317,0.004761
1131,0.081313,-0.009543,0.004761
1132,0.012412,-0.009543,0.004761
1133,-0.010555,-0.025317,-0.009662
1134,-0.010555,-0.041091,-0.009662
1135,-0.010555,0.006231,0.004761
1136,-0.010555,0.006231,0.033609
1137,-0.033523,-0.025317,0.019185
1138,-0.010555,0.006231,0.033609
1139,-0.010555,-0.009543,-0.009662
1140,0.012412,-0.009543,0.004761
1141,-0.033523,-0.025317,-0.009662
1142,-0.010555,-0.009543,0.004761
1143,-0.05649,-0.041091,0.019185
1144,0.012412,-0.025317,0.019185
1145,-0.033523,0.006231,-0.009662
1146,-0.010555,-0.009543,0.004761
1147,-0.010555,-0.025317,0.004761
1148,-0.010555,-0.009543,0.033609
1149,-0.010555,-0.009543,0.033609
1150,-0.033523,-0.025317,-0.009662
1151,-0.010555,-0.025317,-0.009662
1152,0.012412,-0.025317,-0.009662
1153,-0.05649,-0.009543,-0.024086
1154,0.012412,0.006231,-0.024086
1155,-0.033523,-0.025317,-0.009662
1156,-0.010555,-0.009543,0.004761
1157,-0.05649,-0.009543,-0.009662
1158,-0.010555,-0.009543,-0.009662
1159,0.012412,-0.009543,0.004761
1160,-0.033523,-0.025317,0.004761
1161,-0.033523,-0.025317,0.004761
1162,0.035379,-0.009543,0.004761
1163,-0.010555,-0.009543,0.019185
1164,0.012412,-0.009543,0.004761
1165,0.035379,-0.009543,0.019185
1166,0.012412,-0.025317,0.004761
1167,0.035379,-0.025317,0.004761
1168,-0.05649,0.006231,-0.024086
1169,-0.010555,-0.009543,-0.024086
1170,0.035379,-0.009543,-0.009662
1171,0.035379,-0.009543,-0.009662
1172,0.012412,-0.009543,0.004761
1173,0.058346,-0.025317,-0.009662
1174,0.035379,-0.025317,-0.009662
1175,0.058346,-0.009543,-0.009662
1176,-0.010555,-0.009543,-0.009662
1177,-0.033523,-0.025317,-0.03851
1178,0.058346,-0.009543,-0.009662
1179,0.035379,-0.009543,-0.024086
1180,0.035379,-0.009543,0.004761
1181,0.035379,-0.041091,0.004761
1182,-0.010555,-0.041091,0.004761
1183,-0.010555,-0.025317,-0.009662
1184,-0.05649,-0.041091,0.019185
1185,-0.033523,-0.025317,0.019185
1186,-0.010555,-0.009543,-0.009662
1187,-0.033523,-0.009543,-0.009662
1188,-0.033523,0.006231,0.019185
1189,-0.010555,-0.025317,0.004761
1190,-0.010555,-0.009543,0.004761
1191,-0.033523,-0.009543,0.004761
1192,-0.033523,-0.009543,0.019185
1193,-0.010555,-0.009543,0.019185
1194,0.058346,-0.009543,-0.009662
1195,-0.033523,-0.009543,-0.009662
1196,-0.033523,-0.009543,-0.009662
1197,0.035379,-0.025317,-0.009662
1198,-0.010555,-0.009543,0.019185
1199,-0.05649,-0.025317,-0.024086
1200,-0.010555,-0.025317,0.004761
1201,0.035379,-0.009543,0.004761
1202,0.035379,0.006231,0.019185
1203,-0.010555,-0.009543,0.004761
1204,-0.010555,-0.025317,-0.009662
1205,0.081313,-0.025317,0.004761
1206,0.012412,-0.009543,-0.009662
1207,-0.05649,-0.041091,-0.009662
1208,0.058346,-0.009543,0.004761
1209,0.058346,-0.025317,-0.024086
1210,0.012412,-0.025317,-0.009662
1211,-0.05649,-0.009543,-0.009662
1212,0.035379,-0.025317,-0.009662
1213,-0.033523,-0.025317,0.004761
1214,0.012412,-0.009543,0.004761
1215,-0.033523,0.006231,0.033609
1216,-0.05649,-0.025317,0.004761
1217,-0.010555,-0.025317,0.019185
1218,-0.010555,-0.009543,0.019185
1219,-0.033523,0.006231,0.004761
1220,-0.05649,-0.009543,0.019185
1221,0.012412,-0.025317,0.004761
1222,-0.010555,-0.009543,0.004761
1223,-0.033523,-0.009543,-0.009662
1224,0.012412,-0.009543,0.004761
1225,0.012412,-0.009543,0.004761
1226,-0.010555,-0.009543,0.019185
1227,-0.033523,-0.009543,0.019185
1228,0.035379,-0.009543,0.019185
1229,0.035379,-0.025317,-0.009662
1230,-0.033523,-0.025317,-0.009662
1231,-0.010555,-0.009543,0.019185
1232,0.035379,-0.009543,0.004761
1233,0.058346,0.006231,0.019185
1234,0.012412,-0.025317,-0.009662
1235,-0.033523,-0.025317,-0.009662
1236,0.035379,-0.025317,0.004761
1237,0.012412,0.022005,0.004761
1238,-0.033523,-0.025317,0.004761
1239,0.035379,-0.009543,-0.024086
1240,0.012412,-0.009543,-0.024086
1241,-0.010555,-0.009543,0.004761
1242,-0.05649,-0.009543,0.019185
1243,0.035379,-0.009543,0.019185
1244,0.012412,-0.025317,-0.009662
1245,-0.010555,-0.009543,-0.009662
1246,-0.010555,0.006231,-0.009662
1247,-0.033523,0.006231,0.048033
1248,-0.05649,-0.025317,0.019185
1249,-0.079457,-0.025317,0.004761
1250,-0.033523,-0.009543,0.004761
1251,-0.033523,-0.009543,-0.009662
1252,0.012412,-0.009543,0.004761
1253,-0.033523,-0.009543,0.004761
1254,-0.05649,-0.009543,-0.009662
1255,-0.033523,-0.025317,0.004761
1256,0.012412,-0.009543,0.004761
1257,0.035379,0.006231,0.019185
1258,-0.033523,-0.025317,0.004761
1259,0.012412,-0.009543,0.004761
1260,0.035379,0.022005,0.004761
1261,-0.033523,-0.009543,-0.009662
1262,-0.010555,0.006231,-0.009662
1263,0.012412,-0.025317,0.004761
1264,0.035379,0.006231,0.004761
1265,0.035379,-0.025317,0.004761
1266,0.035379,-0.025317,0.033609
1267,0.035379,-0.009543,0.004761
1268,0.035379,-0.009543,0.004761
1269,0.035379,-0.009543,-0.009662
1270,-0.010555,-0.041091,-0.009662
1271,-0.010555,-0.025317,-0.024086
1272,0.058346,-0.041091,-0.009662
1273,0.012412,-0.009543,-0.009662
1274,0.035379,-0.009543,-0.009662
1275,0.058346,-0.025317,-0.009662
1276,0.035379,-0.009543,-0.009662
1277,0.012412,-0.009543,-0.009662
1278,0.012412,-0.025317,0.004761
1279,0.012412,-0.009543,0.004761
1280,0.012412,0.006231,0.019185
1281,-0.033523,-0.009543,0.004761
1282,-0.05649,-0.009543,-0.009662
1283,0.012412,-0.025317,-0.009662
1284,0.035379,0.006231,-0.009662
1285,0.012412,-0.009543,-0.024086
1286,0.012412,-0.009543,0.004761
1287,-0.010555,-0.009543,0.019185
1288,-0.010555,-0.025317,-0.009662
1289,-0.033523,-0.009543,-0.009662
1290,-0.05649,-0.025317,-0.024086
1291,-0.033523,-0.009543,-0.009662
1292,0.012412,-0.009543,-0.009662
1293,-0.010555,-0.009543,0.019185
1294,-0.033523,-0.009543,0.019185
1295,0.012412,-0.009543,0.019185
1296,0.012412,-0.025317,0.033609
1297,-0.033523,0.006231,0.033609
1298,0.012412,-0.025317,-0.009662
1299,0.012412,-0.025317,-0.009662
1300,-0.010555,-0.025317,-0.009662
1301,-0.010555,-0.025317,-0.009662
1302,0.035379,-0.009543,0.019185
1303,0.035379,-0.009543,0.004761
1304,0.035379,-0.041091,-0.009662
1305,-0.010555,-0.025317,-0.03851
1306,-0.010555,0.006231,-0.03851
1307,0.012412,-0.009543,-0.009662
1308,-0.010555,-0.009543,0.004761
1309,0.012412,-0.009543,-0.009662
1310,0.058346,0.006231,0.004761
1311,0.035379,0.006231,0.004761
1312,-0.010555,-0.009543,-0.009662
1313,-0.010555,-0.009543,0.004761
1314,0.035379,0.006231,0.004761
1315,0.012412,0.006231,0.019185
1316,0.012412,-0.009543,0.033609
1317,-0.010555,-0.025317,0.019185
1318,-0.010555,0.006231,-0.009662
1319,-0.010555,-0.009543,-0.03851
1320,0.012412,-0.041091,-0.024086
1321,-0.033523,-0.025317,-0.024086
1322,-0.010555,-0.009543,-0.024086
1323,-0.010555,-0.009543,-0.03851
1324,-0.079457,-0.009543,-0.009662
1325,0.035379,-0.009543,0.004761
1326,0.035379,-0.041091,-0.009662
1327,0.035379,-0.009543,0.048033
1328,0.035379,-0.009543,0.019185
1329,-0.033523,0.006231,0.004761
1330,-0.010555,-0.025317,-0.009662
1331,0.035379,-0.009543,-0.024086
1332,-0.05649,-0.025317,0.019185
1333,0.012412,-0.009543,0.019185
1334,-0.010555,-0.025317,0.004761
1335,0.035379,-0.009543,-0.024086
1336,-0.010555,-0.009543,0.004761
1337,-0.010555,-0.009543,0.019185
1338,0.035379,-0.025317,0.004761
1339,-0.010555,0.006231,-0.009662
1340,-0.010555,0.006231,0.004761
1341,0.035379,-0.025317,0.004761
1342,0.012412,0.006231,-0.009662
1343,0.035379,-0.009543,-0.009662
1344,-0.010555,-0.025317,-0.009662
1345,0.012412,-0.025317,-0.009662
1346,0.012412,-0.025317,0.004761
1347,-0.033523,0.006231,0.004761
1348,-0.05649,-0.025317,0.004761
1349,-0.033523,0.006231,0.019185
1350,0.035379,-0.025317,0.004761
1351,-0.033523,0.006231,0.004761
1352,-0.010555,-0.009543,0.019185
1353,0.012412,-0.009543,0.004761
1354,0.012412,-0.009543,-0.009662
1355,-0.033523,-0.009543,-0.009662
1356,-0.033523,-0.009543,0.004761
1357,0.012412,0.006231,-0.009662
1358,0.035379,-0.009543,-0.009662
1359,-0.010555,-0.009543,-0.009662
1360,0.035379,-0.009543,-0.009662
1361,0.012412,-0.009543,-0.009662
1362,0.012412,-0.009543,0.004761
1363,0.012412,-0.009543,0.004761
1364,-0.010555,-0.009543,-0.009662
1365,-0.033523,-0.009543,0.033609
1366,0.035379,-0.025317,-0.024086
1367,0.012412,-0.009543,0.004761
1368,0.035379,0.006231,0.004761
1369,0.035379,0.006231,0.004761
1370,-0.033523,-0.009543,0.004761
1371,0.012412,-0.009543,-0.024086
1372,0.035379,-0.009543,-0.009662
1373,0.012412,-0.009543,-0.009662
1374,0.035379,0.006231,0.004761
1375,-0.010555,-0.009543,-0.009662
1376,0.035379,-0.009543,-0.009662
1377,0.012412,-0.025317,0.004761
1378,0.012412,-0.009543,0.004761
1379,-0.033523,-0.009543,-0.009662
1380,0.058346,0.006231,-0.009662
1381,0.035379,-0.009543,-0.009662
1382,-0.033523,-0.041091,0.004761
1383,-0.05649,-0.025317,-0.024086
1384,-0.079457,-0.009543,-0.009662
1385,-0.010555,-0.025317,0.004761
1386,-0.05649,-0.009543,0.019185
1387,-0.05649,-0.009543,-0.009662
1388,-0.010555,-0.025317,0.019185
1389,0.035379,-0.009543,0.033609
1390,0.035379,-0.009543,0.019185
1391,0.012412,-0.025317,0.019185
1392,-0.010555,-0.025317,-0.009662
1393,0.012412,-0.025317,-0.009662
1394,-0.033523,-0.009543,-0.009662
1395,-0.010555,-0.025317,-0.009662
1396,0.012412,-0.009543,-0.03851
1397,0.012412,-0.009543,-0.009662
1398,-0.033523,-0.009543,0.019185
1399,0.035379,0.006231,0.019185
1400,0.035379,-0.009543,0.004761
1401,-0.010555,-0.025317,0.004761
1402,0.012412,-0.009543,0.004761
1403,-0.033523,-0.025317,0.004761
1404,0.012412,-0.025317,0.004761
1405,0.012412,0.006231,0.004761
1406,0.012412,-0.025317,-0.024086
1407,-0.010555,0.006231,0.019185
1408,0.035379,-0.009543,-0.009662
1409,0.058346,-0.025317,0.019185
1410,0.012412,-0.009543,0.004761
1411,0.035379,0.006231,0.004761
1412,0.035379,-0.009543,0.004761
1413,-0.033523,-0.009543,0.004761
1414,0.012412,-0.025317,0.004761
1415,-0.010555,-0.025317,-0.009662
1416,0.012412,-0.009543,0.004761
1417,-0.010555,-0.009543,0.019185
1418,0.012412,0.006231,0.019185
1419,-0.010555,0.006231,0.004761
1420,-0.033523,-0.009543,-0.009662
1421,-0.010555,-0.009543,0.004761
1422,-0.010555,-0.041091,-0.024086
1423,-0.010555,-0.009543,-0.009662
1424,0.012412,0.006231,0.004761
1425,-0.010555,-0.025317,-0.009662
1426,-0.033523,-0.025317,-0.009662
1427,-0.033523,-0.009543,-0.024086
1428,0.058346,-0.025317,-0.009662
1429,-0.05649,-0.025317,0.004761
1430,0.012412,-0.009543,0.004761
1431,0.012412,-0.009543,-0.024086
1432,0.035379,-0.025317,-0.024086
1433,0.058346,0.006231,0.004761
1434,0.012412,-0.009543,-0.009662
1435,-0.05649,-0.025317,-0.009662
1436,-0.010555,-0.025317,-0.009662
1437,0.012412,-0.009543,-0.009662
1438,-0.010555,-0.009543,0.019185
1439,0.035379,-0.009543,-0.009662
1440,0.035379,0.006231,-0.009662
1441,0.035379,0.006231,0.004761
1442,0.035379,-0.009543,0.019185
1443,0.081313,-0.009543,0.019185
1444,0.035379,-0.009543,0.004761
1445,0.012412,0.006231,0.019185
1446,0.012412,-0.025317,0.004761
1447,0.035379,-0.009543,0.004761
1448,-0.033523,0.006231,-0.024086
1449,-0.033523,-0.009543,-0.009662
1450,-0.033523,-0.025317,-0.024086
1451,-0.05649,-0.025317,-0.024086
1452,-0.033523,-0.025317,-0.009662
1453,0.012412,0.006231,0.004761
1454,-0.010555,-0.009543,0.019185
1455,-0.010555,-0.009543,0.019185
1456,-0.033523,-0.009543,0.004761
1457,-0.010555,0.006231,0.004761
1458,-0.010555,-0.009543,-0.009662
1459,0.012412,-0.009543,-0.009662
1460,-0.010555,-0.009543,-0.009662
1461,0.012412,-0.009543,-0.009662
1462,0.012412,-0.009543,-0.009662
1463,0.035379,-0.009543,0.004761
1464,0.035379,-0.009543,0.019185
1465,0.012412,-0.025317,0.004761
1466,0.012412,-0.009543,0.004761
1467,0.058346,0.006231,0.004761
1468,0.035379,-0.009543,0.019185
1469,0.035379,0.022005,0.004761
1470,-0.010555,-0.025317,0.004761
1471,-0.033523,-0.009543,-0.024086
1472,-0.010555,-0.025317,-0.009662
1473,-0.033523,-0.025317,-0.024086
1474,0.035379,-0.041091,-0.009662
1475,0.058346,0.006231,-0.009662
1476,0.012412,-0.009543,-0.024086
1477,-0.033523,0.006231,0.004761
1478,0.012412,0.006231,0.019185
1479,-0.010555,0.022005,0.004761
1480,0.012412,-0.009543,0.004761
1481,-0.010555,-0.009543,0.004761
1482,-0.033523,0.006231,0.004761
1483,-0.010555,-0.009543,-0.009662
1484,-0.010555,-0.025317,-0.024086
1485,-0.033523,-0.009543,-0.009662
1486,0.035379,-0.009543,-0.009662
1487,-0.010555,-0.025317,0.019185
1488,-0.033523,-0.009543,-0.009662
1489,-0.033523,0.006231,0.019185
1490,-0.033523,-0.009543,-0.009662
1491,-0.079457,-0.009543,-0.009662
1492,-0.05649,-0.009543,0.004761
1493,0.012412,-0.009543,0.019185
1494,0.012412,-0.025317,-0.009662
1495,0.012412,-0.025317,-0.024086
1496,0.012412,0.022005,-0.009662
1497,0.035379,-0.025317,0.004761
1498,0.058346,-0.009543,0.004761
1499,0.058346,-0.025317,-0.009662
1500,0.012412,-0.009543,0.004761
1501,0.035379,-0.009543,0.004761
1502,0.035379,-0.009543,0.004761
1503,0.012412,-0.009543,-0.009662
1504,-0.010555,-0.025317,-0.009662
1505,0.012412,-0.025317,0.004761
1506,0.058346,-0.009543,0.004761
1507,0.035379,-0.009543,-0.009662
1508,-0.010555,-0.025317,-0.03851
1509,0.012412,-0.041091,-0.009662
1510,0.035379,-0.009543,-0.009662
1511,0.012412,-0.009543,-0.009662
1512,-0.05649,-0.009543,-0.009662
1513,0.012412,-0.025317,-0.024086
1514,-0.010555,-0.025317,0.004761
1515,-0.010555,-0.041091,-0.009662
1516,-0.05649,-0.009543,0.004761
1517,0.012412,-0.009543,0.004761
1518,-0.010555,-0.009543,-0.009662
1519,-0.05649,-0.025317,0.019185
1520,-0.033523,0.006231,0.019185
1521,-0.010555,-0.009543,0.033609
1522,-0.010555,0.006231,0.004761
1523,-0.033523,-0.009543,0.019185
1524,0.012412,-0.009543,0.004761
1525,-0.033523,-0.009543,0.019185
1526,-0.010555,0.006231,0.004761
1527,-0.010555,-0.025317,0.019185
1528,0.035379,0.006231,-0.009662
1529,-0.010555,-0.025317,-0.024086
1530,0.035379,-0.009543,-0.03851
1531,0.012412,-0.025317,0.004761
1532,0.012412,-0.025317,-0.024086
1533,-0.010555,0.006231,-0.009662
1534,-0.010555,-0.009543,-0.009662
1535,-0.010555,-0.009543,-0.009662
1536,0.058346,-0.009543,-0.009662
1537,0.035379,0.006231,0.019185
1538,0.035379,-0.009543,0.019185
1539,0.012412,-0.009543,0.019185
1540,0.081313,0.006231,0.004761
1541,0.012412,-0.009543,0.004761
1542,0.035379,-0.009543,0.004761
1543,0.012412,-0.009543,-0.024086
1544,-0.079457,-0.025317,0.004761
1545,0.035379,-0.009543,-0.009662
1546,0.012412,0.006231,-0.009662
1547,-0.033523,-0.025317,-0.009662
1548,-0.033523,0.006231,-0.009662
1549,-0.033523,-0.009543,0.019185
1550,-0.010555,-0.025317,0.019185
1551,-0.010555,-0.041091,-0.009662
1552,-0.010555,-0.025317,0.004761
1553,-0.033523,0.006231,-0.009662
1554,-0.010555,0.006231,0.004761
1555,-0.010555,-0.025317,0.004761
1556,-0.010555,-0.009543,0.033609
1557,-0.010555,0.006231,0.004761
1558,0.012412,0.006231,0.019185
1559,-0.033523,0.006231,0.019185
1560,-0.010555,-0.025317,0.004761
1561,0.012412,-0.009543,0.019185
1562,-0.010555,-0.025317,-0.009662
1563,0.035379,-0.025317,-0.009662
1564,0.035379,-0.009543,-0.009662
1565,0.012412,-0.009543,-0.024086
1566,0.012412,-0.009543,-0.024086
1567,0.012412,-0.009543,-0.009662
1568,0.012412,-0.009543,-0.03851
1569,0.012412,-0.025317,-0.009662
1570,0.012412,-0.009543,0.004761
1571,0.081313,0.006231,0.019185
1572,0.058346,-0.025317,0.004761
1573,0.012412,-0.025317,0.004761
1574,-0.010555,-0.009543,0.019185
1575,-0.05649,-0.009543,0.004761
1576,0.012412,-0.025317,-0.009662
1577,0.035379,-0.009543,-0.009662
1578,0.012412,-0.009543,0.004761
1579,-0.033523,-0.009543,0.019185
1580,-0.010555,-0.041091,-0.009662
1581,-0.05649,-0.009543,-0.024086
1582,-0.010555,-0.009543,-0.024086
1583,-0.010555,-0.025317,-0.024086
1584,0.012412,0.006231,-0.009662
1585,-0.010555,0.006231,-0.009662
1586,-0.033523,-0.009543,-0.009662
1587,-0.010555,0.006231,-0.009662
1588,0.012412,-0.025317,0.004761
1589,-0.010555,0.006231,-0.009662
1590,-0.010555,-0.009543,-0.009662
1591,-0.033523,-0.009543,-0.009662
1592,0.012412,-0.009543,-0.009662
1593,-0.033523,-0.009543,0.019185
1594,-0.033523,0.006231,0.004761
1595,-0.010555,-0.009543,0.004761
1596,0.012412,0.006231,-0.009662
1597,0.012412,0.006231,0.019185
1598,-0.010555,-0.009543,0.004761
1599,0.058346,0.006231,0.019185
1600,0.035379,-0.009543,0.019185
1601,0.012412,-0.025317,0.019185
1602,0.035379,0.006231,0.019185
1603,0.035379,0.006231,0.004761
1604,0.035379,-0.009543,0.019185
1605,0.10428,-0.009543,0.033609
1606,0.058346,0.006231,0.019185
1607,-0.010555,-0.009543,-0.009662
1608,-0.05649,-0.009543,-0.024086
1609,-0.033523,-0.025317,-0.024086
1610,-0.05649,-0.025317,-0.03851
1611,0.035379,-0.041091,-0.024086
1612,-0.010555,-0.025317,-0.024086
1613,0.035379,0.006231,0.004761
1614,-0.033523,-0.009543,0.019185
1615,0.012412,-0.009543,0.004761
1616,0.035379,-0.009543,0.004761
1617,0.035379,-0.009543,0.019185
1618,-0.05649,-0.025317,-0.009662
1619,-0.05649,-0.009543,0.004761
1620,-0.05649,-0.025317,-0.024086
1621,-0.05649,0.006231,-0.009662
1622,-0.05649,-0.009543,-0.009662
1623,0.012412,-0.009543,0.004761
1624,0.012412,-0.009543,-0.009662
1625,-0.05649,-0.009543,-0.009662
1626,0.035379,-0.025317,-0.009662
1627,0.035379,-0.025317,-0.009662
1628,0.012412,0.006231,-0.009662
1629,-0.033523,-0.025317,0.004761
1630,0.035379,-0.009543,0.004761
1631,0.012412,-0.009543,0.004761
1632,0.012412,-0.009543,0.004761
1633,-0.010555,-0.009543,-0.009662
1634,0.012412,-0.025317,-0.009662
1635,0.012412,0.006231,0.004761
1636,0.035379,-0.025317,0.019185
1637,0.012412,0.006231,0.004761
1638,0.058346,-0.009543,0.019185
1639,-0.010555,-0.009543,0.004761
1640,0.012412,0.006231,0.019185
1641,0.012412,-0.009543,-0.009662
1642,0.035379,-0.009543,0.048033
1643,0.035379,-0.009543,0.004761
1644,-0.010555,0.006231,0.004761
1645,-0.010555,0.006231,0.004761
1646,0.081313,-0.009543,-0.024086
1647,0.012412,-0.025317,-0.024086
1648,-0.033523,-0.041091,-0.009662
1649,-0.010555,-0.025317,0.004761
1650,-0.05649,-0.009543,-0.009662
1651,-0.010555,-0.009543,0.004761
1652,-0.079457,-0.025317,-0.024086
1653,-0.033523,-0.025317,0.004761
1654,-0.010555,-0.009543,0.004761
1655,0.012412,-0.009543,0.004761
1656,-0.010555,0.006231,0.019185
1657,0.012412,-0.025317,0.019185
1658,-0.010555,-0.041091,-0.009662
1659,-0.010555,-0.009543,-0.009662
1660,-0.079457,-0.009543,-0.009662
1661,0.012412,-0.025317,-0.009662
1662,0.012412,-0.025317,-0.009662
1663,0.035379,-0.009543,-0.024086
1664,-0.010555,-0.025317,-0.009662
1665,-0.010555,-0.025317,-0.009662
1666,0.012412,-0.009543,0.004761
1667,0.012412,-0.009543,-0.009662
1668,0.035379,-0.025317,0.004761
1669,-0.010555,0.006231,-0.009662
1670,0.058346,-0.009543,0.019185
1671,0.035379,-0.041091,-0.009662
1672,-0.033523,0.006231,-0.009662
1673,0.058346,-0.009543,-0.009662
1674,0.035379,-0.025317,0.019185
1675,0.012412,-0.025317,0.004761
1676,0.035379,-0.009543,0.019185
1677,-0.010555,-0.009543,0.004761
1678,0.058346,-0.009543,-0.009662
1679,0.035379,0.006231,0.004761
1680,0.012412,-0.009543,0.004761
1681,-0.010555,-0.009543,-0.009662
1682,0.035379,-0.009543,-0.024086
1683,-0.033523,-0.009543,-0.03851
1684,0.012412,0.006231,-0.009662
1685,0.012412,-0.009543,0.019185
1686,0.058346,-0.009543,0.019185
1687,-0.010555,-0.025317,-0.009662
1688,-0.05649,0.006231,-0.009662
1689,-0.05649,-0.009543,-0.009662
1690,-0.102424,-0.025317,-0.009662
1691,0.012412,0.006231,-0.009662
1692,-0.010555,-0.025317,0.004761
1693,0.012412,-0.009543,-0.009662
1694,-0.033523,0.006231,-0.009662
1695,0.035379,-0.009543,0.004761
1696,-0.05649,0.006231,0.004761
1697,-0.033523,-0.009543,0.004761
1698,-0.010555,-0.009543,0.019185
1699,-0.010555,-0.009543,0.033609
1700,0.012412,0.006231,0.004761
1701,0.012412,-0.009543,-0.009662
1702,-0.033523,-0.009543,-0.009662
1703,0.035379,-0.009543,-0.009662
1704,0.035379,-0.009543,0.004761
1705,0.035379,-0.009543,0.004761
1706,0.012412,-0.025317,0.004761
1707,-0.010555,0.006231,0.019185
1708,0.012412,-0.009543,0.004761
1709,0.035379,-0.041091,-0.009662
1710,0.035379,-0.009543,-0.009662
1711,0.012412,-0.025317,0.004761
1712,-0.033523,-0.009543,0.004761
1713,0.012412,0.006231,0.019185
1714,-0.033523,-0.009543,0.019185
1715,0.035379,0.006231,0.004761
1716,-0.010555,-0.009543,-0.009662
1717,0.035379,0.006231,0.004761
1718,-0.05649,0.006231,-0.009662
1719,-0.033523,-0.025317,-0.009662
1720,-0.079457,-0.009543,-0.024086
1721,-0.010555,-0.041091,-0.009662
1722,-0.033523,-0.009543,-0.024086
1723,-0.033523,0.006231,-0.024086
1724,-0.05649,-0.025317,0.004761
1725,-0.033523,0.006231,0.004761
1726,-0.010555,0.006231,0.004761
1727,-0.010555,-0.009543,-0.024086
1728,0.012412,-0.009543,0.004761
1729,0.012412,0.006231,0.004761
1730,0.035379,-0.009543,0.004761
1731,-0.05649,-0.025317,-0.009662
1732,0.012412,-0.009543,0.004761
1733,0.058346,0.006231,-0.009662
1734,0.035379,0.006231,-0.009662
1735,0.012412,-0.009543,-0.009662
1736,0.058346,-0.009543,0.004761
1737,0.012412,0.006231,0.004761
1738,0.081313,0.006231,0.004761
1739,-0.010555,0.006231,0.004761
1740,-0.010555,-0.009543,0.004761
1741,0.058346,-0.009543,-0.009662
1742,0.012412,-0.009543,-0.009662
1743,-0.010555,-0.009543,0.004761
1744,0.035379,-0.025317,-0.009662
1745,0.012412,-0.009543,-0.024086
1746,-0.010555,-0.025317,-0.03851
1747,-0.010555,-0.025317,-0.009662
1748,0.012412,-0.009543,-0.009662
1749,-0.010555,-0.025317,0.019185
1750,0.012412,0.006231,0.019185
1751,-0.010555,-0.025317,0.019185
1752,-0.033523,-0.009543,0.019185
1753,0.012412,0.006231,0.004761
1754,0.012412,-0.009543,-0.024086
1755,-0.05649,-0.009543,0.004761
1756,-0.05649,-0.009543,0.019185
1757,0.012412,-0.009543,0.004761
1758,-0.033523,-0.009543,-0.009662
1759,-0.010555,-0.025317,-0.024086
1760,-0.010555,-0.009543,0.004761
1761,0.035379,0.022005,-0.009662
1762,0.035379,0.006231,-0.009662
1763,0.012412,-0.025317,-0.009662
1764,-0.010555,-0.025317,0.004761
1765,-0.010555,-0.009543,0.004761
1766,-0.05649,-0.025317,0.004761
1767,-0.033523,-0.009543,0.004761
1768,0.012412,-0.025317,0.019185
1769,0.012412,-0.009543,-0.009662
1770,0.012412,-0.009543,-0.009662
1771,0.035379,-0.009543,0.004761
1772,0.035379,0.006231,0.033609
1773,-0.033523,0.006231,0.033609
1774,0.012412,0.006231,-0.009662
1775,0.058346,-0.009543,0.004761
1776,0.012412,0.006231,0.004761
1777,0.012412,0.006231,0.004761
1778,0.012412,-0.009543,-0.009662
1779,0.058346,-0.025317,-0.052934
1780,-0.010555,-0.009543,0.004761
1781,0.035379,-0.009543,-0.024086
1782,-0.033523,-0.056865,-0.009662
1783,-0.010555,-0.025317,-0.009662
1784,0.058346,-0.025317,0.004761
1785,0.012412,-0.025317,0.004761
1786,-0.033523,-0.009543,0.004761
1787,-0.033523,0.006231,0.004761
1788,-0.033523,0.022005,0.004761
1789,-0.033523,-0.025317,0.019185
1790,-0.033523,-0.009543,-0.024086
1791,-0.010555,0.006231,-0.024086
1792,-0.010555,-0.009543,0.004761
1793,-0.033523,-0.009543,-0.009662
1794,0.012412,0.006231,-0.024086
1795,0.012412,-0.009543,0.004761
1796,0.012412,-0.009543,-0.009662
1797,0.012412,-0.025317,0.019185
1798,-0.033523,-0.009543,0.004761
1799,0.035379,-0.025317,0.004761
1800,0.058346,0.006231,-0.009662
1801,0.012412,-0.025317,0.004761
1802,0.012412,-0.009543,-0.024086
1803,0.035379,-0.025317,-0.009662
1804,0.012412,-0.025317,-0.009662
1805,-0.033523,-0.025317,-0.024086
1806,-0.010555,-0.009543,-0.009662
1807,0.058346,-0.009543,0.004761
1808,0.058346,-0.009543,0.019185
1809,-0.010555,-0.025317,0.004761
1810,0.012412,-0.025317,0.004761
1811,-0.010555,-0.009543,-0.009662
1812,0.127248,-0.009543,-0.009662
1813,-0.033523,-0.009543,0.004761
1814,-0.010555,0.022005,0.004761
1815,0.035379,0.006231,-0.009662
1816,-0.033523,-0.025317,-0.009662
1817,-0.010555,0.006231,-0.009662
1818,-0.033523,-0.009543,-0.024086
1819,-0.010555,-0.009543,-0.009662
1820,-0.010555,-0.009543,0.019185
1821,-0.033523,-0.025317,-0.024086
1822,0.012412,-0.009543,0.004761
1823,0.012412,-0.009543,0.004761
1824,-0.033523,-0.009543,-0.009662
1825,-0.010555,-0.009543,0.004761
1826,0.012412,-0.009543,-0.009662
1827,0.058346,0.006231,0.019185
1828,-0.033523,-0.025317,0.004761
1829,-0.033523,-0.009543,-0.024086
1830,-0.010555,-0.009543,-0.03851
1831,0.012412,0.006231,0.004761
1832,0.012412,0.006231,0.019185
1833,-0.010555,-0.025317,0.033609
1834,0.012412,0.006231,0.004761
1835,0.012412,0.006231,0.004761
1836,0.012412,-0.009543,0.019185
1837,0.058346,0.006231,0.004761
1838,0.035379,-0.009543,-0.009662
1839,0.035379,-0.009543,0.004761
1840,0.012412,-0.025317,-0.009662
1841,0.012412,-0.025317,-0.009662
1842,0.012412,-0.009543,-0.009662
1843,-0.010555,-0.025317,-0.009662
1844,-0.010555,-0.009543,-0.009662
1845,-0.05649,-0.025317,0.004761
1846,0.012412,0.006231,0.004761
1847,0.012412,-0.009543,0.004761
1848,-0.010555,-0.009543,0.004761
1849,-0.079457,0.006231,-0.009662
1850,0.012412,-0.009543,-0.009662
1851,-0.033523,-0.009543,0.004761
1852,-0.079457,-0.025317,0.004761
1853,-0.05649,-0.009543,-0.009662
1854,-0.010555,-0.009543,-0.009662
1855,-0.033523,-0.009543,-0.009662
1856,-0.05649,-0.009543,-0.009662
1857,-0.05649,-0.009543,0.004761
1858,-0.033523,-0.025317,0.004761
1859,-0.010555,-0.009543,-0.009662
1860,-0.010555,-0.009543,0.004761
1861,0.035379,-0.025317,0.004761
1862,0.035379,-0.009543,0.004761
1863,-0.033523,-0.009543,0.004761
1864,0.012412,-0.009543,-0.009662
1865,-0.010555,-0.009543,-0.009662
1866,0.012412,0.006231,-0.009662
1867,0.035379,-0.025317,-0.009662
1868,0.035379,-0.025317,0.004761
1869,0.035379,-0.009543,-0.009662
1870,-0.033523,-0.025317,-0.009662
1871,-0.010555,-0.009543,-0.009662
1872,0.035379,0.006231,0.004761
1873,0.035379,0.006231,-0.009662
1874,-0.010555,-0.041091,-0.009662
1875,0.012412,-0.009543,-0.009662
1876,-0.033523,-0.041091,-0.009662
1877,-0.010555,-0.041091,-0.009662
1878,-0.05649,-0.009543,-0.009662
1879,-0.033523,-0.009543,-0.009662
1880,-0.010555,0.006231,0.004761
1881,-0.010555,-0.009543,0.019185
1882,-0.033523,-0.025317,0.019185
1883,-0.010555,0.006231,0.004761
1884,-0.033523,0.006231,0.004761
1885,0.035379,0.006231,0.004761
1886,-0.010555,0.022005,-0.009662
1887,-0.033523,0.022005,0.004761
1888,-0.05649,-0.025317,0.004761
1889,-0.033523,-0.009543,-0.024086
1890,-0.010555,0.006231,-0.009662
1891,-0.010555,-0.009543,0.004761
1892,-0.010555,-0.009543,0.004761
1893,0.035379,-0.009543,-0.009662
1894,-0.033523,-0.009543,0.004761
1895,-0.010555,-0.009543,0.004761
1896,0.035379,-0.009543,-0.009662
1897,-0.010555,-0.009543,0.004761
1898,0.012412,-0.025317,0.004761
1899,-0.05649,-0.009543,-0.009662
1900,0.058346,-0.009543,-0.009662
1901,0.035379,-0.009543,0.004761
1902,0.058346,-0.009543,-0.024086
1903,-0.010555,0.006231,-0.009662
1904,-0.010555,-0.009543,-0.009662
1905,0.058346,-0.009543,0.004761
1906,0.012412,-0.025317,0.004761
1907,-0.010555,0.006231,0.019185
1908,0.012412,-0.025317,-0.024086
1909,0.012412,-0.025317,-0.024086
1910,-0.033523,-0.009543,-0.009662
1911,-0.05649,-0.009543,0.004761
1912,-0.033523,-0.009543,-0.009662
1913,0.035379,-0.009543,0.004761
1914,0.035379,0.022005,0.019185
1915,-0.010555,-0.025317,0.004761
1916,-0.033523,-0.009543,0.004761
1917,0.012412,-0.009543,0.004761
1918,-0.010555,-0.009543,0.004761
1919,-0.010555,-0.009543,0.004761
1920,-0.010555,-0.009543,0.004761
1921,-0.033523,0.006231,0.004761
1922,-0.05649,-0.009543,-0.009662
1923,-0.010555,-0.009543,0.004761
1924,0.012412,-0.009543,0.019185
1925,-0.033523,-0.025317,-0.009662
1926,-0.05649,0.006231,0.019185
1927,-0.033523,0.006231,0.004761
1928,0.035379,0.006231,0.004761
1929,0.035379,-0.025317,0.048033
1930,-0.010555,-0.009543,-0.009662
1931,-0.010555,-0.009543,-0.009662
1932,0.058346,-0.025317,0.019185
1933,-0.010555,-0.009543,-0.009662
1934,-0.010555,-0.009543,0.004761
1935,0.012412,-0.025317,0.004761
1936,0.035379,-0.025317,0.019185
1937,0.012412,-0.009543,-0.009662
1938,-0.010555,0.006231,0.004761
1939,0.012412,0.006231,0.004761
1940,0.035379,-0.009543,0.004761
1941,-0.010555,0.006231,0.004761
1942,-0.033523,-0.009543,-0.009662
1943,0.012412,0.006231,0.004761
1944,-0.033523,-0.025317,0.004761
1945,-0.033523,-0.025317,-0.009662
1946,-0.010555,-0.009543,0.004761
1947,-0.079457,-0.009543,-0.024086
1948,0.012412,-0.009543,-0.009662
1949,-0.033523,-0.025317,-0.009662
1950,0.012412,-0.009543,0.004761
1951,-0.010555,-0.009543,-0.009662
1952,-0.033523,-0.009543,-0.024086
1953,-0.05649,-0.025317,-0.024086
1954,-0.05649,-0.025317,-0.024086
1955,0.012412,-0.041091,-0.03851
1956,-0.05649,-0.025317,-0.009662
1957,-0.05649,-0.009543,0.004761
1958,-0.033523,-0.009543,0.019185
1959,-0.010555,-0.025317,0.004761
1960,0.035379,-0.009543,0.004761
1961,0.012412,0.006231,0.004761
1962,0.058346,-0.025317,-0.009662
1963,0.012412,0.022005,-0.009662
1964,0.058346,0.006231,0.004761
1965,-0.010555,-0.009543,0.004761
1966,0.035379,-0.025317,0.004761
1967,0.012412,0.006231,-0.009662
1968,0.035379,-0.009543,-0.009662
1969,0.012412,-0.025317,-0.009662
1970,-0.010555,-0.009543,0.004761
1971,0.035379,-0.025317,-0.024086
1972,0.012412,0.006231,-0.009662
1973,0.012412,-0.009543,0.004761
1974,0.035379,0.006231,0.004761
1975,0.058346,-0.009543,0.004761
1976,-0.010555,-0.025317,-0.009662
1977,-0.010555,0.006231,-0.009662
1978,-0.033523,-0.009543,-0.024086
1979,0.012412,-0.009543,0.004761
1980,0.012412,0.006231,0.019185
1981,-0.010555,-0.025317,0.019185
1982,-0.010555,-0.009543,0.019185
1983,0.058346,-0.009543,0.004761
1984,-0.010555,-0.025317,0.004761
1985,-0.102424,-0.009543,-0.009662
1986,-0.05649,0.006231,-0.009662
1987,-0.05649,-0.025317,-0.009662
1988,-0.010555,-0.041091,0.004761
1989,-0.010555,-0.009543,0.004761
1990,0.012412,-0.009543,-0.009662
1991,-0.010555,-0.009543,-0.009662
1992,-0.033523,-0.025317,-0.009662
1993,-0.033523,0.006231,0.019185
1994,0.012412,-0.009543,-0.009662
1995,-0.010555,-0.009543,0.004761
1996,-0.033523,-0.025317,-0.009662
1997,0.012412,-0.009543,0.004761
1998,0.058346,-0.025317,-0.009662
1999,0.035379,-0.025317,-0.024086
2000,0.012412,0.006231,-0.009662
2001,-0.010555,-0.009543,-0.024086
2002,0.035379,0.006231,0.004761
2003,0.058346,0.006231,0.033609
2004,0.012412,-0.009543,0.019185
2005,0.012412,0.006231,0.019185
2006,0.012412,-0.009543,0.019185
2007,0.035379,0.006231,0.004761
2008,0.012412,-0.009543,0.004761
2009,-0.033523,-0.025317,0.004761
2010,0.058346,0.006231,-0.024086
2011,0.012412,0.006231,-0.03851
2012,-0.033523,-0.041091,-0.03851
2013,-0.033523,-0.025317,-0.024086
2014,0.035379,-0.025317,-0.024086
2015,0.012412,-0.009543,-0.024086
2016,0.012412,0.006231,-0.024086
2017,-0.033523,0.006231,-0.024086
2018,-0.010555,0.006231,-0.009662
2019,-0.010555,0.006231,-0.009662
2020,-0.010555,-0.025317,0.004761
2021,-0.010555,0.022005,-0.009662
2022,-0.010555,-0.009543,-0.009662
2023,-0.010555,0.006231,-0.009662
2024,-0.033523,-0.009543,-0.009662
2025,-0.010555,-0.009543,0.019185
2026,0.012412,-0.041091,-0.009662
2027,-0.033523,-0.025317,-0.009662
2028,0.012412,-0.025317,-0.009662
2029,0.012412,-0.009543,-0.009662
2030,0.035379,-0.009543,0.004761
2031,-0.033523,-0.009543,-0.009662
2032,0.012412,-0.009543,-0.009662
2033,0.012412,-0.009543,-0.009662
2034,0.012412,-0.025317,-0.009662
2035,0.081313,-0.025317,0.019185
2036,0.058346,-0.009543,0.019185
2037,0.035379,0.006231,0.019185
2038,0.035379,-0.009543,0.004761
2039,0.012412,-0.009543,0.004761
2040,-0.033523,-0.009543,0.004761
2041,-0.010555,-0.009543,0.004761
2042,0.035379,-0.009543,0.048033
2043,0.012412,-0.009543,-0.024086
2044,-0.033523,-0.009543,-0.009662
2045,0.012412,-0.009543,-0.009662
2046,-0.033523,-0.009543,0.019185
2047,-0.010555,0.006231,-0.009662
2048,-0.033523,-0.009543,0.004761
2049,0.035379,-0.025317,-0.024086
2050,0.012412,-0.009543,-0.009662
2051,-0.010555,0.006231,0.004761
2052,0.012412,-0.009543,0.004761
2053,-0.010555,-0.009543,-0.009662
2054,-0.010555,-0.009543,0.004761
2055,0.035379,0.006231,-0.009662
2056,0.012412,-0.009543,0.019185
2057,-0.010555,-0.009543,0.004761
2058,-0.010555,0.006231,0.004761
2059,-0.033523,-0.009543,-0.009662
2060,-0.010555,-0.009543,-0.009662
2061,0.035379,-0.009543,0.033609
2062,-0.010555,-0.009543,0.033609
2063,0.012412,-0.009543,0.019185
2064,0.012412,0.006231,0.019185
2065,0.012412,0.006231,0.004761
2066,0.012412,-0.025317,-0.009662
2067,-0.010555,-0.009543,-0.009662
2068,0.012412,-0.041091,-0.009662
2069,0.012412,-0.009543,-0.009662
2070,0.012412,-0.025317,-0.009662
2071,-0.033523,-0.009543,0.004761
2072,0.012412,-0.009543,0.004761
2073,0.035379,-0.009543,0.019185
2074,-0.010555,-0.025317,-0.009662
2075,-0.010555,-0.025317,-0.024086
2076,0.035379,-0.025317,-0.024086
2077,0.012412,-0.009543,-0.009662
2078,0.012412,-0.025317,-0.024086
2079,-0.033523,-0.009543,-0.024086
2080,0.035379,-0.009543,-0.03851
2081,-0.033523,-0.025317,-0.009662
2082,-0.010555,0.006231,0.004761
2083,0.012412,0.006231,-0.009662
2084,-0.010555,-0.009543,-0.03851
2085,-0.033523,-0.009543,-0.009662
2086,0.012412,-0.009543,0.004761
2087,-0.010555,0.022005,0.004761
2088,-0.05649,0.006231,0.019185
2089,-0.010555,0.006231,0.019185
2090,-0.079457,-0.025317,0.004761
2091,-0.033523,-0.009543,0.004761
2092,0.012412,-0.009543,0.004761
2093,0.012412,-0.009543,-0.009662
2094,-0.05649,-0.025317,-0.009662
2095,0.035379,-0.025317,-0.03851
2096,-0.010555,0.022005,-0.009662
2097,-0.010555,0.006231,-0.024086
2098,-0.010555,-0.009543,-0.009662
2099,-0.033523,-0.009543,-0.009662
2100,-0.010555,-0.025317,-0.009662
2101,0.012412,-0.009543,0.004761
2102,0.035379,-0.009543,0.004761
2103,0.012412,-0.025317,-0.024086
2104,0.058346,-0.025317,-0.009662
2105,0.058346,0.006231,-0.009662
2106,0.035379,-0.009543,-0.009662
2107,0.012412,0.006231,-0.009662
2108,0.035379,-0.009543,-0.009662
2109,0.012412,-0.009543,0.033609
2110,0.012412,-0.009543,0.019185
2111,-0.010555,-0.009543,0.004761
2112,0.012412,-0.009543,-0.009662
2113,0.081313,-0.009543,-0.009662
2114,0.035379,-0.025317,-0.009662
2115,0.012412,-0.009543,0.048033
2116,0.012412,0.006231,0.004761
2117,0.012412,0.006231,0.004761
2118,-0.033523,-0.009543,-0.009662
2119,-0.010555,-0.009543,0.004761
2120,0.012412,-0.009543,-0.009662
2121,0.012412,-0.009543,0.004761
2122,-0.033523,-0.025317,0.004761
2123,-0.010555,0.006231,0.004761
2124,-0.033523,-0.009543,-0.009662
2125,0.012412,0.006231,0.004761
2126,-0.010555,0.006231,-0.009662
2127,-0.010555,-0.009543,0.004761
2128,0.012412,-0.009543,0.019185
2129,0.012412,0.006231,-0.009662
2130,-0.05649,-0.009543,0.019185
2131,-0.010555,-0.009543,0.004761
2132,0.012412,-0.009543,0.004761
2133,0.058346,-0.009543,-0.009662
2134,-0.010555,-0.009543,0.004761
2135,-0.033523,0.006231,0.004761
2136,-0.033523,-0.009543,-0.024086
2137,0.012412,-0.025317,-0.024086
2138,-0.033523,-0.009543,-0.009662
2139,-0.05649,-0.009543,-0.03851
2140,-0.010555,-0.009543,-0.009662
2141,0.012412,-0.009543,-0.024086
2142,-0.010555,-0.009543,0.004761
2143,0.058346,0.006231,0.004761
2144,0.058346,0.006231,0.004761
2145,0.035379,-0.009543,0.019185
2146,0.012412,-0.025317,-0.024086
2147,0.058346,-0.025317,-0.009662
2148,0.035379,-0.009543,-0.009662
2149,0.035379,-0.025317,-0.009662
2150,-0.033523,-0.009543,-0.009662
2151,-0.033523,-0.009543,0.004761
2152,-0.010555,-0.025317,0.004761
2153,-0.010555,-0.009543,-0.009662
2154,-0.010555,-0.009543,-0.024086
2155,-0.033523,-0.025317,-0.024086
2156,0.012412,-0.025317,0.004761
2157,0.035379,-0.009543,-0.009662
2158,-0.033523,-0.009543,-0.009662
2159,-0.010555,-0.025317,0.004761
2160,-0.010555,-0.009543,0.004761
2161,-0.010555,0.006231,0.004761
2162,-0.033523,0.006231,0.004761
2163,-0.010555,-0.025317,-0.009662
2164,0.035379,-0.025317,-0.009662
2165,0.012412,-0.025317,0.004761
2166,-0.05649,-0.009543,-0.009662
2167,-0.010555,0.006231,-0.009662
2168,0.058346,-0.009543,0.004761
2169,0.012412,-0.009543,0.004761
2170,-0.079457,-0.025317,-0.024086
2171,-0.05649,-0.009543,-0.024086
2172,-0.033523,0.006231,-0.024086
2173,-0.05649,0.006231,-0.009662
2174,0.035379,-0.025317,0.019185
2175,0.035379,0.006231,0.004761
2176,-0.010555,0.006231,0.004761
2177,0.012412,-0.041091,0.004761
2178,-0.033523,-0.009543,-0.009662
2179,-0.033523,-0.009543,-0.009662
2180,0.012412,-0.025317,0.004761
2181,-0.010555,-0.009543,0.004761
2182,0.035379,0.006231,0.019185
2183,0.058346,-0.009543,0.004761
2184,0.035379,-0.009543,0.004761
2185,0.035379,-0.009543,0.004761
2186,0.012412,-0.025317,-0.009662
2187,0.058346,0.006231,-0.024086
2188,-0.010555,0.006231,0.004761
2189,0.035379,-0.025317,0.004761
2190,-0.010555,-0.009543,0.004761
2191,0.058346,-0.009543,0.004761
2192,0.012412,-0.009543,0.004761
2193,-0.033523,-0.009543,0.004761
2194,-0.010555,-0.009543,-0.009662
2195,-0.010555,-0.009543,0.004761
2196,-0.010555,-0.009543,0.004761
2197,-0.033523,-0.025317,-0.009662
2198,-0.010555,0.006231,-0.009662
2199,-0.010555,-0.009543,0.004761
2200,-0.010555,-0.009543,-0.009662
2201,-0.010555,-0.009543,0.004761
2202,-0.05649,-0.041091,0.004761
2203,-0.010555,0.006231,0.004761
2204,0.012412,-0.009543,-0.009662
2205,0.012412,-0.009543,0.019185
2206,0.012412,0.006231,0.004761
2207,-0.010555,-0.009543,-0.009662
2208,0.035379,0.006231,0.019185
2209,-0.033523,0.006231,0.004761
2210,-0.033523,-0.025317,0.019185
2211,0.058346,-0.009543,0.004761
2212,0.058346,0.022005,-0.009662
2213,0.012412,0.006231,0.019185
2214,0.035379,0.006231,0.004761
2215,-0.010555,-0.041091,-0.009662
2216,0.035379,-0.025317,-0.024086
2217,-0.010555,-0.041091,-0.052934
2218,0.035379,-0.025317,-0.024086
2219,-0.010555,0.006231,0.004761
2220,0.035379,0.006231,0.033609
2221,0.035379,-0.009543,0.019185
2222,-0.010555,-0.009543,0.004761
2223,0.012412,-0.025317,-0.009662
2224,0.012412,-0.009543,-0.009662
2225,0.012412,0.022005,-0.009662
2226,-0.010555,-0.009543,0.004761
2227,-0.010555,-0.009543,-0.009662
2228,0.012412,-0.009543,-0.009662
2229,0.012412,-0.009543,0.004761
2230,-0.010555,-0.009543,-0.009662
2231,-0.010555,-0.009543,0.004761
2232,-0.033523,-0.009543,0.004761
2233,0.012412,-0.009543,0.019185
2234,-0.05649,-0.009543,-0.009662
2235,0.012412,0.006231,-0.009662
2236,-0.033523,-0.009543,-0.009662
2237,-0.010555,0.006231,-0.009662
2238,-0.033523,-0.009543,0.004761
2239,0.012412,-0.009543,0.004761
2240,-0.010555,-0.009543,-0.009662
2241,-0.033523,-0.025317,0.004761
2242,-0.033523,0.006231,-0.009662
2243,0.012412,-0.025317,0.004761
2244,-0.033523,0.006231,0.004761
2245,0.035379,-0.009543,0.004761
2246,0.012412,-0.009543,0.004761
2247,0.035379,-0.009543,-0.009662
2248,0.035379,-0.025317,0.004761
2249,0.058346,-0.009543,-0.009662
2250,0.035379,-0.009543,-0.009662
2251,0.035379,-0.009543,0.004761
2252,0.035379,0.022005,-0.009662
2253,-0.010555,0.006231,-0.024086
2254,-0.05649,-0.009543,-0.009662
2255,0.058346,-0.009543,-0.009662
2256,-0.010555,-0.009543,0.019185
2257,0.012412,-0.009543,0.004761
2258,0.012412,-0.025317,0.004761
2259,0.012412,-0.009543,0.004761
2260,-0.010555,-0.025317,-0.009662
2261,-0.010555,-0.025317,0.004761
2262,-0.05649,-0.009543,0.004761
2263,0.035379,0.006231,0.004761
2264,0.035379,0.022005,0.004761
2265,-0.033523,-0.009543,-0.009662
2266,0.012412,0.006231,-0.009662
2267,-0.033523,0.006231,0.004761
2268,0.012412,-0.025317,0.004761
2269,0.012412,-0.025317,0.004761
2270,-0.010555,-0.009543,-0.009662
2271,-0.033523,-0.009543,-0.009662
2272,-0.010555,-0.009543,0.004761
2273,0.012412,-0.009543,0.019185
2274,-0.010555,-0.025317,0.004761
2275,-0.033523,-0.025317,0.004761
2276,-0.05649,-0.009543,-0.009662
2277,-0.010555,-0.009543,-0.009662
2278,0.012412,-0.009543,-0.024086
2279,0.058346,-0.025317,-0.009662
2280,-0.010555,-0.025317,-0.009662
2281,-0.010555,-0.025317,0.004761
2282,0.012412,0.006231,-0.024086
2283,-0.033523,-0.009543,-0.009662
2284,0.012412,-0.009543,0.004761
2285,-0.010555,-0.009543,0.004761
2286,0.035379,-0.009543,0.004761
2287,0.081313,-0.025317,-0.009662
2288,0.035379,-0.009543,0.019185
2289,0.012412,-0.009543,0.004761
2290,0.035379,-0.025317,-0.009662
2291,0.012412,-0.041091,-0.03851
2292,0.012412,0.006231,-0.009662
2293,-0.033523,0.006231,-0.009662
2294,-0.010555,-0.009543,-0.009662
2295,0.058346,-0.009543,-0.024086
2296,0.012412,-0.009543,-0.009662
2297,0.012412,-0.009543,-0.009662
2298,0.012412,-0.009543,0.019185
2299,0.058346,-0.025317,0.019185
2300,0.012412,-0.009543,-0.009662
2301,-0.010555,-0.009543,-0.009662
2302,0.012412,-0.009543,0.004761
2303,0.012412,0.006231,-0.009662
2304,0.035379,0.006231,-0.009662
2305,-0.033523,-0.009543,-0.009662
2306,-0.010555,-0.009543,0.004761
2307,-0.010555,-0.025317,-0.009662
2308,-0.010555,-0.025317,0.004761
2309,-0.033523,0.006231,0.004761
2310,0.012412,-0.009543,-0.009662
2311,0.012412,0.006231,0.004761
2312,0.012412,-0.025317,-0.009662
2313,-0.033523,-0.009543,0.004761
2314,-0.05649,-0.009543,-0.024086
2315,-0.033523,-0.009543,-0.009662
2316,-0.033523,-0.025317,0.019185
2317,-0.010555,-0.009543,0.019185
2318,0.035379,-0.009543,0.004761
2319,0.035379,-0.009543,0.004761
2320,-0.010555,-0.009543,-0.009662
2321,0.058346,-0.009543,0.004761
2322,0.058346,-0.009543,-0.009662
2323,0.012412,-0.009543,-0.009662
2324,0.035379,-0.009543,0.004761
2325,0.012412,-0.009543,0.019185
2326,0.012412,0.022005,0.004761
2327,0.012412,-0.009543,-0.009662
2328,0.012412,-0.025317,0.004761
2329,0.012412,-0.009543,0.004761
2330,0.035379,-0.025317,0.004761
2331,-0.010555,-0.025317,0.004761
2332,-0.033523,-0.009543,-0.009662
2333,0.035379,-0.009543,0.004761
2334,-0.033523,-0.009543,-0.024086
2335,-0.010555,-0.009543,-0.024086
2336,-0.010555,-0.009543,-0.009662
2337,-0.010555,0.006231,-0.009662
2338,0.012412,-0.009543,0.004761
2339,-0.010555,-0.041091,-0.024086
2340,-0.05649,-0.041091,-0.009662
2341,0.012412,-0.025317,-0.03851
2342,-0.010555,0.006231,0.004761
2343,0.012412,-0.009543,-0.009662
2344,-0.05649,0.022005,-0.009662
2345,-0.010555,0.006231,0.004761
2346,-0.033523,-0.009543,0.004761
2347,-0.033523,-0.025317,0.004761
2348,-0.033523,-0.009543,0.004761
2349,0.012412,0.022005,0.004761
2350,0.035379,0.006231,0.004761
2351,-0.033523,0.006231,-0.009662
2352,-0.010555,0.006231,-0.009662
2353,0.035379,-0.009543,-0.009662
2354,-0.010555,-0.009543,-0.009662
2355,0.012412,-0.009543,-0.024086
2356,-0.010555,-0.009543,0.004761
2357,0.035379,-0.009543,0.004761
2358,0.081313,0.006231,-0.009662
2359,0.035379,-0.009543,-0.009662
2360,-0.010555,0.006231,-0.009662
2361,0.035379,-0.009543,0.004761
2362,-0.010555,-0.025317,0.004761
2363,-0.033523,-0.009543,0.004761
2364,0.058346,-0.009543,0.004761
2365,-0.010555,-0.025317,-0.009662
2366,0.012412,-0.025317,0.004761
2367,0.012412,-0.009543,0.004761
2368,0.058346,0.006231,0.019185
2369,0.012412,0.006231,0.004761
2370,-0.033523,0.006231,0.004761
2371,-0.033523,-0.009543,-0.009662
2372,-0.010555,-0.009543,-0.009662
2373,0.058346,-0.009543,-0.009662
2374,-0.010555,-0.025317,0.004761
2375,-0.033523,-0.009543,-0.009662
2376,-0.05649,-0.025317,0.004761
2377,-0.010555,0.006231,-0.009662
2378,-0.010555,-0.025317,0.019185
2379,-0.033523,-0.025317,-0.009662
2380,0.035379,-0.025317,-0.009662
2381,-0.033523,-0.009543,0.019185
2382,-0.033523,0.006231,-0.024086
2383,-0.010555,-0.025317,-0.009662
2384,0.035379,-0.009543,0.019185
2385,0.012412,0.006231,0.004761
2386,0.012412,0.006231,0.019185
2387,0.035379,-0.009543,0.004761
2388,0.035379,-0.025317,0.004761
2389,0.035379,0.006231,0.004761
2390,-0.033523,0.006231,0.004761
2391,0.035379,-0.009543,-0.009662
2392,0.081313,-0.025317,-0.009662
2393,0.012412,-0.009543,0.004761
2394,0.035379,0.006231,-0.009662
2395,0.058346,-0.025317,0.004761
2396,0.012412,-0.009543,0.004761
2397,0.035379,0.006231,0.004761
2398,0.081313,-0.009543,-0.024086
2399,0.012412,-0.025317,-0.024086
2400,0.012412,-0.009543,-0.009662
2401,0.012412,-0.009543,0.019185
2402,0.012412,-0.009543,0.048033
2403,-0.010555,-0.025317,-0.009662
2404,-0.033523,-0.009543,-0.009662
2405,-0.033523,-0.025317,0.004761
2406,-0.05649,-0.009543,0.004761
2407,-0.05649,-0.009543,0.004761
2408,-0.033523,-0.025317,-0.009662
2409,0.012412,-0.056865,-0.024086
2410,0.012412,-0.025317,-0.009662
2411,0.012412,0.006231,0.004761
2412,0.012412,-0.025317,0.019185
2413,0.012412,-0.009543,-0.009662
2414,0.012412,-0.009543,0.004761
2415,-0.010555,0.006231,0.004761
2416,0.012412,-0.009543,0.004761
2417,-0.033523,-0.009543,-0.009662
2418,-0.033523,-0.025317,0.004761
2419,0.035379,-0.009543,-0.009662
2420,0.012412,0.006231,0.004761
2421,0.012412,-0.009543,-0.009662
2422,0.012412,-0.025317,-0.009662
2423,-0.010555,-0.025317,0.004761
2424,0.035379,-0.009543,0.019185
2425,0.012412,0.006231,0.019185
2426,0.035379,-0.009543,0.004761
2427,0.035379,-0.009543,-0.009662
2428,0.012412,-0.025317,-0.009662
2429,0.035379,0.006231,-0.009662
2430,0.012412,-0.009543,0.004761
2431,0.081313,0.006231,0.004761
2432,0.012412,-0.025317,-0.009662
2433,-0.033523,-0.009543,0.048033
2434,-0.033523,0.006231,-0.024086
2435,-0.033523,-0.009543,-0.009662
2436,0.012412,-0.009543,-0.009662
2437,-0.010555,0.006231,0.019185
2438,-0.033523,0.022005,-0.009662
2439,0.058346,0.006231,-0.009662
2440,-0.033523,-0.009543,-0.009662
2441,-0.033523,-0.041091,-0.009662
2442,-0.033523,-0.025317,0.019185
2443,-0.010555,-0.009543,-0.009662
2444,-0.010555,0.006231,-0.009662
2445,-0.010555,-0.009543,0.019185
2446,-0.010555,-0.009543,0.004761
2447,0.012412,-0.009543,-0.009662
2448,-0.033523,-0.025317,-0.009662
2449,-0.05649,-0.025317,-0.024086
2450,0.012412,-0.009543,-0.024086
2451,0.058346,-0.009543,-0.009662
2452,0.012412,-0.009543,-0.009662
2453,-0.010555,-0.009543,-0.009662
2454,-0.010555,-0.025317,0.004761
2455,0.035379,0.006231,0.004761
2456,0.012412,0.006231,-0.009662
2457,0.012412,-0.009543,-0.009662
2458,0.035379,-0.009543,0.019185
2459,0.058346,0.006231,0.019185
2460,-0.010555,0.006231,0.019185
2461,0.035379,0.006231,-0.009662
2462,0.012412,0.006231,0.004761
2463,0.012412,-0.009543,-0.009662
2464,0.012412,-0.009543,-0.009662
2465,0.012412,0.006231,-0.024086
2466,-0.033523,-0.009543,-0.009662
2467,0.035379,0.006231,0.004761
2468,-0.010555,-0.009543,0.004761
2469,-0.010555,-0.009543,0.004761
2470,0.012412,-0.009543,-0.009662
2471,-0.033523,-0.025317,-0.024086
2472,-0.033523,-0.009543,-0.024086
2473,-0.033523,-0.009543,0.004761
2474,-0.010555,-0.025317,-0.009662
2475,-0.033523,-0.025317,0.019185
2476,-0.05649,-0.025317,-0.024086
2477,-0.05649,-0.025317,-0.009662
2478,-0.010555,-0.009543,-0.009662
2479,0.012412,-0.025317,-0.009662
2480,-0.010555,-0.009543,-0.009662
2481,-0.010555,-0.009543,0.004761
2482,0.012412,0.006231,-0.009662
2483,-0.05649,-0.009543,-0.009662
2484,0.012412,-0.025317,-0.024086
2485,0.012412,-0.009543,0.004761
2486,0.035379,-0.009543,0.004761
2487,0.058346,-0.025317,0.004761
2488,0.012412,0.006231,-0.009662
2489,0.035379,0.006231,0.019185
2490,0.035379,-0.025317,0.004761
2491,0.035379,-0.009543,0.004761
2492,0.012412,-0.009543,0.019185
2493,0.058346,-0.009543,0.004761
2494,0.058346,-0.009543,0.019185
2495,0.058346,-0.009543,0.019185
2496,0.012412,-0.009543,0.004761
2497,-0.033523,-0.009543,-0.024086
2498,0.012412,-0.009543,-0.024086
2499,-0.010555,-0.025317,-0.03851
2500,-0.010555,-0.009543,-0.009662
2501,0.012412,-0.025317,-0.009662
2502,0.012412,-0.009543,-0.024086
2503,0.012412,-0.025317,-0.024086
2504,-0.05649,0.006231,-0.009662
2505,-0.010555,0.006231,-0.009662
2506,-0.010555,-0.025317,0.004761
2507,-0.033523,-0.025317,-0.024086
2508,-0.05649,-0.025317,0.004761
2509,-0.033523,0.006231,0.004761
2510,-0.010555,-0.009543,0.004761
2511,-0.010555,-0.025317,0.004761
2512,-0.010555,-0.009543,-0.009662
2513,-0.010555,-0.009543,0.004761
2514,-0.033523,0.006231,0.004761
2515,-0.010555,-0.025317,0.004761
2516,-0.033523,-0.009543,-0.009662
2517,0.012412,-0.009543,-0.009662
2518,0.035379,0.022005,-0.009662
2519,-0.010555,-0.009543,-0.009662
2520,-0.010555,-0.025317,-0.009662
2521,0.035379,0.006231,-0.009662
2522,0.058346,-0.025317,-0.009662
2523,0.012412,-0.009543,0.004761
2524,0.012412,-0.009543,-0.009662
2525,0.035379,-0.009543,0.004761
2526,-0.033523,0.006231,-0.009662
2527,-0.033523,-0.009543,0.004761
2528,0.058346,-0.009543,-0.024086
2529,0.058346,-0.009543,-0.009662
2530,0.012412,-0.025317,-0.009662
2531,-0.05649,-0.025317,-0.024086
2532,0.035379,-0.009543,-0.009662
2533,-0.010555,-0.009543,0.019185
2534,0.012412,-0.025317,0.004761
2535,0.012412,-0.025317,-0.009662
2536,-0.033523,0.006231,0.004761
2537,0.035379,0.022005,0.004761
2538,-0.010555,0.006231,0.019185
2539,-0.033523,-0.009543,0.019185
2540,-0.010555,-0.009543,0.004761
2541,0.012412,-0.009543,0.004761
2542,-0.033523,-0.009543,0.004761
2543,-0.010555,-0.009543,-0.009662
2544,-0.010555,0.006231,-0.009662
2545,-0.010555,-0.025317,-0.009662
2546,-0.033523,-0.009543,-0.009662
2547,-0.010555,-0.025317,-0.009662
2548,-0.033523,-0.025317,-0.009662
2549,0.035379,-0.025317,-0.009662
2550,-0.033523,-0.025317,-0.009662
2551,-0.010555,-0.009543,0.004761
2552,-0.010555,-0.009543,-0.009662
2553,0.035379,-0.025317,0.004761
2554,-0.033523,-0.025317,0.004761
2555,0.035379,-0.025317,0.004761
2556,0.012412,-0.009543,0.019185
2557,0.058346,-0.009543,0.004761
2558,-0.010555,-0.009543,-0.009662
2559,0.012412,-0.025317,0.004761
2560,0.012412,-0.009543,0.004761
2561,0.058346,-0.009543,0.004761
2562,0.012412,0.006231,-0.009662
2563,0.012412,-0.009543,0.004761
2564,-0.010555,-0.009543,0.004761
2565,0.012412,-0.009543,0.004761
2566,0.035379,-0.009543,0.004761
2567,-0.05649,-0.009543,-0.009662
2568,-0.010555,-0.009543,-0.009662
2569,-0.010555,-0.009543,0.004761
2570,-0.033523,-0.009543,-0.024086
2571,-0.033523,-0.009543,-0.024086
2572,0.012412,-0.041091,-0.009662
2573,-0.010555,-0.009543,-0.009662
2574,-0.010555,0.006231,0.004761
2575,0.012412,0.006231,0.004761
2576,-0.010555,-0.009543,0.019185
2577,-0.033523,-0.009543,0.004761
2578,-0.079457,0.006231,0.019185
2579,-0.033523,-0.025317,-0.009662
2580,0.035379,-0.009543,-0.024086
2581,-0.033523,0.006231,-0.024086
2582,0.012412,-0.009543,0.004761
2583,-0.010555,-0.009543,-0.009662
2584,0.012412,-0.009543,0.004761
2585,-0.05649,-0.009543,-0.024086
2586,-0.010555,-0.009543,0.004761
2587,0.058346,-0.025317,-0.009662
2588,0.035379,-0.009543,-0.009662
2589,0.035379,-0.009543,-0.009662
2590,0.035379,-0.009543,-0.009662
2591,0.058346,-0.009543,-0.009662
2592,0.012412,-0.009543,0.004761
2593,0.012412,-0.009543,-0.009662
2594,0.012412,-0.025317,0.004761
2595,0.035379,-0.009543,-0.009662
2596,0.058346,0.022005,0.004761
2597,-0.05649,0.006231,-0.009662
2598,0.012412,0.006231,-0.009662
2599,0.035379,-0.009543,-0.009662
2600,0.012412,-0.025317,-0.024086
2601,0.012412,0.006231,0.033609
2602,-0.010555,-0.009543,0.019185
2603,0.012412,-0.009543,0.048033
2604,0.035379,0.006231,-0.009662
2605,0.035379,-0.025317,0.004761
2606,-0.05649,-0.009543,0.019185
2607,0.012412,0.006231,-0.009662
2608,-0.05649,-0.025317,-0.009662
2609,-0.079457,-0.009543,0.004761
2610,-0.05649,-0.025317,-0.009662
2611,-0.05649,-0.009543,-0.009662
2612,-0.033523,-0.025317,-0.009662
2613,0.012412,0.006231,0.019185
2614,0.035379,-0.009543,0.019185
2615,0.035379,-0.009543,0.004761
2616,-0.05649,-0.041091,-0.03851
2617,-0.079457,-0.009543,-0.009662
2618,0.035379,-0.025317,-0.009662
2619,0.012412,-0.009543,-0.024086
2620,0.035379,-0.009543,-0.009662
2621,-0.033523,-0.009543,-0.009662
2622,-0.033523,0.006231,0.019185
2623,0.012412,-0.009543,-0.024086
2624,0.081313,0.006231,-0.009662
2625,0.012412,-0.009543,0.004761
2626,0.081313,-0.025317,0.019185
2627,0.058346,-0.025317,0.004761
2628,0.012412,0.006231,0.004761
2629,0.035379,0.006231,0.004761
2630,0.035379,-0.009543,0.019185
2631,-0.010555,0.006231,-0.009662
2632,0.035379,0.006231,-0.009662
2633,0.012412,-0.009543,-0.024086
2634,0.058346,-0.009543,-0.009662
2635,0.012412,-0.025317,-0.024086
2636,-0.033523,-0.009543,-0.009662
2637,-0.033523,0.006231,0.019185
2638,-0.010555,-0.025317,0.019185
2639,-0.010555,-0.025317,-0.009662
2640,-0.010555,-0.009543,-0.009662
2641,-0.010555,-0.025317,-0.009662
2642,-0.033523,-0.025317,0.004761
2643,0.012412,-0.009543,0.019185
2644,-0.010555,-0.009543,0.004761
2645,-0.033523,-0.009543,0.004761
2646,0.035379,-0.009543,-0.009662
2647,0.012412,-0.025317,-0.009662
2648,-0.010555,0.006231,0.019185
2649,-0.079457,-0.009543,0.004761
2650,-0.033523,-0.025317,-0.009662
2651,0.012412,-0.009543,-0.024086
2652,-0.05649,-0.041091,-0.009662
2653,-0.033523,-0.009543,0.004761
2654,-0.010555,-0.009543,0.004761
2655,0.035379,0.006231,0.004761
2656,-0.010555,-0.009543,0.004761
2657,0.035379,0.006231,-0.009662
2658,0.058346,0.006231,0.004761
2659,0.012412,-0.009543,0.004761
2660,0.081313,0.006231,0.004761
2661,0.035379,-0.025317,-0.024086
2662,0.012412,-0.025317,-0.009662
2663,0.035379,-0.009543,-0.009662
2664,-0.010555,-0.009543,-0.009662
2665,0.035379,0.006231,0.004761
2666,0.035379,-0.009543,-0.009662
2667,0.035379,-0.025317,0.004761
2668,-0.010555,0.022005,0.004761
2669,0.035379,-0.025317,-0.009662
2670,0.058346,-0.009543,-0.009662
2671,-0.05649,-0.009543,-0.009662
2672,-0.05649,-0.009543,0.019185
2673,-0.033523,-0.009543,-0.024086
2674,0.012412,-0.025317,0.004761
2675,-0.010555,-0.009543,-0.009662
2676,-0.010555,-0.025317,0.004761
2677,-0.033523,0.006231,0.004761
2678,0.012412,-0.025317,0.004761
2679,-0.05649,-0.009543,-0.009662
2680,-0.05649,-0.009543,0.004761
2681,-0.033523,-0.009543,0.019185
2682,0.012412,-0.009543,-0.009662
2683,-0.033523,-0.009543,0.004761
2684,-0.033523,-0.009543,0.004761
2685,-0.033523,0.006231,-0.009662
2686,-0.010555,-0.009543,-0.009662
2687,-0.010555,0.006231,-0.009662
2688,-0.05649,-0.009543,0.004761
2689,0.012412,-0.009543,0.004761
2690,0.035379,-0.009543,-0.009662
2691,0.035379,-0.009543,0.004761
2692,-0.010555,-0.025317,-0.009662
2693,0.012412,0.006231,-0.009662
2694,-0.010555,-0.009543,-0.009662
2695,0.058346,-0.025317,-0.009662
2696,0.012412,0.006231,-0.024086
2697,0.035379,-0.009543,0.004761
2698,0.012412,-0.009543,0.019185
2699,0.035379,-0.009543,-0.009662
2700,-0.010555,0.006231,-0.009662
2701,0.035379,-0.009543,-0.009662
2702,0.035379,0.006231,-0.009662
2703,0.012412,-0.025317,-0.009662
2704,-0.033523,-0.025317,0.004761
2705,0.058346,0.006231,0.019185
2706,0.035379,0.006231,0.004761
2707,0.035379,0.006231,0.004761
2708,-0.033523,-0.009543,-0.009662
2709,0.058346,-0.009543,-0.009662
2710,0.012412,0.006231,0.004761
2711,0.012412,0.006231,0.004761
2712,-0.010555,-0.025317,0.004761
2713,0.012412,-0.025317,-0.009662
2714,-0.010555,-0.025317,-0.009662
2715,-0.05649,-0.009543,-0.024086
2716,-0.033523,-0.009543,-0.009662
2717,-0.05649,-0.009543,0.004761
2718,0.035379,-0.009543,-0.009662
2719,-0.079457,-0.025317,-0.009662
2720,-0.05649,-0.009543,-0.024086
2721,-0.033523,-0.009543,-0.009662
2722,0.012412,-0.009543,-0.009662
2723,-0.010555,-0.009543,-0.009662
2724,-0.05649,0.022005,0.004761
2725,-0.033523,-0.025317,0.004761
2726,-0.010555,-0.009543,-0.009662
2727,-0.033523,-0.009543,-0.009662
2728,0.012412,-0.009543,0.004761
2729,0.058346,-0.025317,-0.009662
2730,0.012412,-0.009543,0.004761
2731,-0.010555,-0.025317,0.004761
2732,0.012412,-0.025317,-0.009662
2733,0.058346,-0.009543,-0.009662
2734,0.035379,-0.009543,-0.009662
2735,0.012412,-0.025317,0.004761
2736,0.035379,0.006231,0.004761
2737,0.058346,-0.025317,-0.009662
2738,0.035379,-0.009543,0.004761
2739,0.012412,-0.009543,-0.009662
2740,0.012412,-0.025317,-0.009662
2741,0.058346,0.006231,0.004761
2742,0.035379,0.006231,0.004761
2743,0.012412,0.006231,0.004761
2744,0.012412,-0.009543,0.004761
2745,-0.033523,-0.025317,0.004761
2746,0.012412,-0.009543,0.004761
2747,-0.010555,-0.009543,-0.009662
2748,-0.033523,-0.009543,-0.009662
2749,0.035379,-0.009543,0.004761
2750,-0.033523,-0.009543,-0.024086
2751,-0.033523,-0.009543,-0.009662
2752,-0.033523,-0.009543,0.004761
2753,0.012412,-0.009543,-0.009662
2754,-0.010555,-0.009543,-0.024086
2755,-0.033523,0.006231,-0.024086
2756,-0.033523,0.006231,0.004761
2757,0.035379,-0.009543,-0.009662
2758,-0.010555,-0.025317,-0.024086
2759,-0.033523,-0.025317,-0.009662
2760,0.012412,-0.025317,0.004761
2761,0.012412,-0.009543,0.004761
2762,0.012412,-0.025317,0.004761
2763,-0.05649,-0.009543,-0.009662
2764,0.035379,0.006231,-0.009662
2765,0.035379,-0.009543,0.004761
2766,0.035379,-0.009543,0.004761
2767,-0.010555,0.006231,-0.009662
2768,-0.033523,-0.009543,0.019185
2769,0.035379,-0.009543,0.019185
2770,0.035379,-0.009543,0.004761
2771,-0.010555,0.006231,0.004761
2772,0.035379,0.022005,0.004761
2773,0.035379,0.006231,0.019185
2774,-0.010555,-0.009543,0.004761
2775,0.012412,-0.009543,0.004761
2776,0.081313,-0.025317,0.004761
2777,0.035379,0.069328,-0.009662
2778,0.035379,-0.009543,-0.024086
2779,-0.010555,-0.009543,-0.009662
2780,0.035379,-0.009543,-0.024086
2781,-0.010555,-0.025317,-0.024086
2782,-0.033523,0.006231,-0.009662
2783,-0.05649,-0.009543,0.004761
2784,-0.033523,-0.025317,-0.009662
2785,0.012412,0.006231,-0.024086
2786,-0.033523,-0.009543,-0.024086
2787,-0.033523,-0.009543,-0.009662
2788,0.012412,-0.009543,-0.009662
2789,0.058346,-0.009543,-0.009662
2790,0.035379,-0.009543,-0.024086
2791,-0.010555,-0.009543,-0.009662
2792,-0.05649,-0.009543,0.004761
2793,0.035379,-0.009543,0.004761
2794,0.012412,-0.009543,-0.009662
2795,0.012412,-0.009543,-0.009662
2796,-0.079457,-0.025317,-0.009662
2797,-0.010555,-0.009543,0.004761
2798,-0.010555,-0.009543,0.019185
2799,-0.010555,-0.009543,0.004761
2800,0.012412,-0.025317,0.004761
2801,-0.033523,0.006231,0.004761
2802,-0.079457,-0.009543,0.004761
2803,0.012412,-0.009543,0.004761
2804,-0.010555,0.022005,-0.024086
2805,-0.010555,-0.009543,-0.009662
2806,0.035379,-0.009543,-0.024086
2807,-0.010555,-0.025317,0.004761
2808,0.035379,0.006231,0.019185
2809,0.012412,0.022005,0.019185
2810,0.081313,-0.009543,-0.024086
2811,0.081313,-0.025317,0.004761
2812,0.035379,-0.025317,-0.009662
2813,0.035379,-0.025317,-0.024086
2814,-0.010555,-0.009543,-0.009662
2815,0.035379,0.006231,-0.024086
2816,-0.010555,-0.009543,-0.024086
2817,0.035379,-0.025317,-0.009662
2818,0.012412,-0.009543,-0.009662
2819,-0.033523,-0.009543,0.004761
2820,0.012412,-0.009543,-0.009662
2821,0.012412,-0.025317,-0.009662
2822,0.035379,0.006231,0.019185
2823,-0.010555,0.006231,0.019185
2824,0.012412,-0.009543,0.004761
2825,0.012412,0.006231,0.004761
2826,0.012412,-0.009543,-0.009662
2827,0.012412,-0.009543,-0.009662
2828,-0.033523,-0.009543,-0.009662
2829,-0.010555,-0.009543,-0.009662
2830,-0.033523,-0.009543,-0.024086
2831,-0.010555,-0.025317,0.004761
2832,0.012412,-0.056865,0.004761
2833,0.012412,-0.041091,-0.009662
2834,0.035379,-0.041091,-0.024086
2835,0.012412,-0.025317,-0.009662
2836,-0.010555,-0.025317,0.004761
2837,-0.010555,0.006231,-0.024086
2838,-0.010555,-0.009543,-0.009662
2839,-0.010555,0.03778,-0.009662
2840,0.012412,0.03778,0.004761
2841,-0.033523,0.006231,0.004761
2842,0.012412,0.006231,-0.009662
2843,-0.010555,0.006231,0.004761
2844,0.012412,0.006231,0.004761
2845,0.035379,-0.009543,-0.009662
2846,-0.010555,-0.009543,0.004761
2847,-0.010555,-0.009543,-0.009662
2848,-0.010555,-0.009543,0.004761
2849,0.012412,-0.009543,0.004761
2850,0.081313,0.006231,-0.009662
2851,-0.010555,-0.025317,-0.009662
2852,0.012412,-0.009543,0.004761
2853,0.012412,-0.009543,0.004761
2854,0.035379,-0.025317,0.004761
2855,-0.033523,-0.009543,-0.009662
2856,0.012412,-0.009543,0.004761
2857,0.035379,-0.009543,-0.009662
2858,0.058346,-0.025317,-0.009662
2859,0.035379,-0.009543,-0.009662
2860,0.012412,-0.025317,0.004761
2861,-0.033523,-0.009543,0.004761
2862,0.035379,0.006231,-0.009662
2863,0.035379,0.006231,0.019185
2864,-0.010555,0.006231,0.019185
2865,-0.033523,-0.009543,0.019185
2866,-0.010555,-0.009543,0.019185
2867,-0.010555,-0.025317,0.004761
2868,-0.033523,-0.025317,-0.009662
2869,0.012412,-0.025317,0.004761
2870,0.012412,-0.009543,0.004761
2871,-0.033523,-0.025317,-0.024086
2872,-0.010555,0.006231,-0.009662
2873,-0.010555,-0.009543,0.004761
2874,0.012412,-0.009543,-0.024086
2875,-0.033523,-0.025317,-0.009662
2876,0.012412,-0.009543,0.004761
2877,0.012412,-0.009543,-0.009662
2878,-0.010555,-0.009543,-0.009662
2879,0.012412,-0.009543,-0.024086
2880,-0.033523,-0.009543,-0.009662
2881,0.035379,0.006231,-0.009662
2882,-0.033523,-0.025317,0.004761
2883,0.012412,-0.009543,-0.009662
2884,0.035379,0.006231,-0.009662
2885,0.012412,0.022005,0.019185
2886,-0.010555,-0.009543,0.019185
2887,0.012412,-0.025317,0.004761
2888,0.035379,0.006231,-0.009662
2889,0.035379,-0.025317,0.004761
2890,0.012412,-0.009543,-0.03851
2891,0.035379,-0.009543,-0.024086
2892,0.035379,-0.009543,-0.024086
2893,0.035379,-0.009543,-0.009662
2894,0.012412,-0.009543,-0.009662
2895,0.058346,-0.025317,-0.009662
2896,0.058346,-0.009543,-0.009662
2897,0.035379,-0.009543,-0.009662
2898,-0.010555,-0.025317,-0.009662
2899,0.012412,-0.009543,0.004761
2900,0.035379,-0.009543,0.004761
2901,0.012412,-0.009543,-0.009662
2902,-0.010555,-0.025317,-0.009662
2903,-0.033523,-0.009543,0.004761
2904,0.012412,-0.009543,-0.009662
2905,-0.010555,-0.009543,-0.024086
2906,0.012412,-0.009543,-0.024086
2907,-0.05649,-0.009543,-0.024086
2908,-0.033523,0.006231,-0.009662
2909,0.012412,-0.025317,0.004761
2910,-0.033523,-0.009543,0.019185
2911,-0.033523,-0.025317,0.019185
2912,-0.010555,-0.009543,0.004761
2913,-0.05649,-0.009543,0.004761
2914,-0.033523,-0.009543,0.004761
2915,-0.05649,-0.025317,0.004761
2916,-0.010555,-0.009543,0.033609
2917,-0.033523,0.006231,0.004761
2918,-0.010555,0.006231,0.004761
2919,0.035379,-0.009543,0.004761
2920,-0.033523,-0.009543,0.004761
2921,-0.010555,0.006231,-0.024086
2922,-0.033523,-0.025317,-0.009662
2923,0.012412,-0.025317,0.004761
2924,0.035379,-0.025317,0.004761
2925,0.058346,-0.025317,-0.009662
2926,0.012412,-0.009543,0.004761
2927,-0.033523,-0.009543,-0.009662
2928,0.035379,-0.009543,0.004761
2929,0.058346,-0.009543,-0.009662
2930,0.012412,-0.009543,0.004761
2931,-0.010555,-0.009543,0.004761
2932,0.012412,0.006231,0.004761
2933,0.081313,-0.025317,-0.009662
2934,-0.033523,-0.009543,-0.024086
2935,0.012412,0.006231,-0.009662
2936,0.012412,-0.009543,0.033609
2937,-0.010555,-0.009543,0.004761
2938,-0.010555,-0.041091,-0.009662
2939,-0.033523,-0.025317,-0.009662
2940,0.035379,-0.009543,-0.009662
2941,-0.033523,-0.009543,-0.024086
2942,-0.033523,-0.025317,-0.009662
2943,-0.05649,-0.009543,-0.024086
2944,-0.010555,-0.025317,-0.009662
2945,0.012412,-0.009543,0.004761
2946,-0.033523,0.006231,0.004761
2947,-0.033523,-0.025317,0.019185
2948,0.035379,0.006231,-0.024086
2949,-0.010555,-0.025317,-0.009662
2950,-0.033523,0.006231,-0.009662
2951,-0.033523,-0.009543,0.004761
2952,0.012412,-0.009543,-0.024086
2953,-0.010555,0.006231,-0.009662
2954,-0.033523,-0.009543,0.019185
2955,-0.010555,-0.025317,0.019185
2956,0.012412,0.006231,0.019185
2957,-0.033523,-0.009543,-0.009662
2958,0.012412,-0.009543,-0.024086
2959,-0.010555,-0.041091,-0.009662
2960,0.081313,-0.009543,0.004761
2961,0.035379,0.006231,-0.009662
2962,0.058346,-0.009543,0.004761
2963,0.012412,-0.025317,0.004761
2964,0.012412,-0.009543,-0.009662
2965,0.058346,-0.009543,-0.009662
2966,0.035379,-0.025317,0.004761
2967,0.012412,-0.025317,-0.009662
2968,0.035379,-0.009543,0.004761
2969,0.012412,0.006231,-0.024086
2970,0.012412,-0.009543,-0.024086
2971,0.012412,0.006231,-0.009662
2972,0.058346,0.006231,0.004761
2973,0.058346,-0.025317,0.004761
2974,-0.010555,0.006231,-0.024086
2975,0.012412,-0.009543,0.004761
2976,-0.033523,-0.009543,0.019185
2977,-0.010555,-0.009543,0.004761
2978,0.012412,-0.009543,0.004761
2979,0.081313,-0.009543,0.004761
2980,-0.033523,0.006231,0.004761
2981,0.012412,-0.009543,0.019185
2982,-0.033523,-0.025317,0.004761
2983,-0.010555,-0.009543,-0.009662
2984,-0.010555,-0.025317,-0.009662
2985,0.012412,-0.009543,0.004761
2986,0.012412,-0.009543,-0.009662
2987,-0.010555,0.006231,-0.009662
2988,-0.010555,0.006231,-0.009662
2989,-0.033523,-0.009543,0.004761
2990,-0.033523,-0.009543,-0.009662
2991,-0.033523,-0.025317,0.004761
2992,-0.010555,-0.009543,0.004761
2993,-0.033523,-0.009543,0.004761
2994,-0.033523,-0.009543,-0.009662
2995,0.012412,-0.025317,0.004761
2996,0.035379,-0.009543,0.004761
2997,-0.033523,-0.009543,0.004761
2998,0.012412,-0.009543,0.004761
2999,0.012412,-0.025317,0.004761
3000,-0.010555,-0.009543,-0.009662
3001,0.035379,-0.025317,-0.009662
3002,0.035379,-0.009543,-0.009662
3003,-0.010555,-0.009543,0.004761
3004,0.058346,-0.009543,0.019185
3005,-0.010555,-0.009543,0.004761
3006,0.035379,0.006231,0.004761
3007,-0.010555,-0.009543,0.004761
3008,0.058346,-0.025317,-0.009662
3009,0.035379,-0.009543,0.004761
3010,0.035379,-0.025317,0.019185
3011,0.035379,0.022005,-0.009662
3012,0.035379,-0.025317,-0.009662
3013,0.035379,-0.025317,-0.024086
3014,0.012412,-0.009543,-0.024086
3015,0.012412,-0.009543,-0.024086
3016,-0.05649,-0.009543,-0.009662
3017,0.012412,-0.009543,-0.009662
3018,-0.033523,-0.025317,-0.024086
3019,0.035379,-0.009543,-0.024086
3020,-0.033523,0.006231,0.019185
3021,-0.010555,-0.009543,0.004761
3022,-0.033523,-0.009543,-0.009662
3023,0.012412,0.006231,-0.009662
3024,0.012412,-0.009543,-0.009662
3025,-0.033523,-0.009543,0.019185
3026,-0.05649,-0.009543,-0.024086
3027,-0.010555,-0.009543,-0.009662
3028,0.035379,-0.009543,-0.009662
3029,-0.033523,-0.009543,0.004761
3030,-0.033523,-0.025317,-0.024086
3031,0.012412,-0.056865,0.004761
3032,0.081313,0.006231,0.019185
3033,-0.033523,0.006231,0.019185
3034,-0.010555,-0.009543,0.004761
3035,-0.010555,-0.009543,0.004761
3036,-0.010555,-0.025317,0.004761
3037,-0.010555,-0.025317,-0.009662
3038,-0.033523,-0.009543,0.004761
3039,0.012412,-0.025317,-0.009662
3040,0.035379,-0.009543,-0.009662
3041,0.035379,-0.025317,-0.009662
3042,0.035379,-0.009543,-0.009662
3043,0.035379,-0.009543,0.004761
3044,0.012412,-0.009543,0.004761
3045,-0.010555,-0.009543,-0.009662
3046,0.012412,-0.009543,-0.009662
3047,-0.010555,-0.009543,0.004761
3048,0.035379,0.006231,0.004761
3049,-0.033523,0.006231,0.004761
3050,0.035379,0.006231,0.004761
3051,0.035379,0.006231,0.019185
3052,-0.010555,0.006231,-0.009662
3053,-0.010555,-0.009543,-0.024086
3054,-0.010555,0.006231,-0.009662
3055,-0.010555,-0.009543,0.004761
3056,-0.010555,-0.009543,0.004761
3057,-0.010555,-0.009543,-0.009662
3058,-0.05649,-0.009543,0.004761
3059,-0.033523,-0.025317,-0.009662
3060,-0.010555,-0.025317,-0.009662
3061,-0.05649,-0.009543,0.004761
3062,-0.033523,-0.009543,-0.009662
3063,-0.033523,0.006231,0.004761
3064,0.012412,-0.009543,0.004761
3065,-0.033523,-0.025317,-0.024086
3066,0.012412,-0.025317,-0.009662
3067,-0.010555,-0.025317,-0.009662
3068,-0.079457,-0.025317,-0.024086
3069,-0.010555,0.006231,-0.009662
3070,0.012412,-0.025317,-0.009662
3071,0.012412,0.006231,-0.009662
3072,-0.010555,-0.025317,0.004761
3073,0.012412,-0.025317,0.004761
3074,0.035379,0.006231,-0.009662
3075,0.058346,-0.009543,0.004761
3076,0.035379,-0.025317,0.019185
3077,-0.033523,0.006231,-0.009662
3078,0.058346,0.006231,-0.024086
3079,0.081313,-0.009543,0.004761
3080,-0.010555,-0.009543,0.019185
3081,-0.033523,-0.009543,0.004761
3082,0.012412,0.006231,-0.009662
3083,0.035379,-0.009543,0.004761
3084,0.012412,0.006231,0.048033
3085,-0.05649,-0.025317,-0.009662
3086,0.058346,-0.009543,0.004761
3087,0.012412,0.006231,-0.009662
3088,0.035379,-0.009543,-0.009662
3089,-0.010555,-0.009543,-0.009662
3090,0.012412,-0.009543,0.004761
3091,-0.010555,-0.009543,0.004761
3092,-0.033523,0.006231,0.019185
3093,0.012412,-0.009543,0.004761
3094,-0.010555,-0.025317,-0.009662
3095,-0.079457,-0.025317,-0.024086
3096,-0.033523,-0.009543,-0.009662
3097,-0.033523,-0.009543,0.004761
3098,-0.033523,-0.041091,0.019185
3099,-0.010555,-0.009543,0.004761
3100,-0.010555,-0.025317,-0.009662
3101,0.012412,0.006231,-0.009662
3102,-0.033523,-0.009543,-0.009662
3103,-0.010555,-0.009543,-0.009662
3104,-0.010555,-0.009543,0.019185
3105,-0.033523,-0.009543,0.004761
3106,0.012412,-0.009543,-0.009662
3107,0.035379,-0.009543,0.004761
3108,0.012412,-0.009543,0.004761
3109,0.012412,-0.009543,0.019185
3110,0.012412,-0.025317,-0.009662
3111,0.035379,-0.009543,-0.009662
3112,-0.010555,-0.009543,-0.009662
3113,0.012412,-0.009543,0.004761
3114,0.058346,0.022005,-0.009662
3115,-0.010555,-0.025317,-0.024086
3116,0.012412,-0.009543,-0.009662
3117,0.035379,-0.009543,0.004761
3118,0.035379,-0.009543,0.004761
3119,-0.010555,-0.009543,0.019185
3120,-0.033523,-0.025317,0.004761
3121,0.012412,-0.009543,0.004761
3122,0.012412,-0.009543,0.004761
3123,0.035379,-0.025317,-0.009662
3124,-0.010555,-0.009543,0.004761
3125,-0.010555,-0.009543,-0.024086
3126,-0.010555,-0.025317,-0.009662
3127,-0.010555,-0.025317,0.004761
3128,-0.010555,-0.009543,0.004761
3129,-0.033523,-0.009543,-0.024086
3130,-0.010555,-0.009543,-0.009662
3131,-0.033523,-0.025317,-0.024086
3132,-0.033523,-0.009543,-0.009662
3133,0.035379,-0.009543,-0.024086
3134,-0.033523,-0.025317,0.004761
3135,-0.033523,-0.009543,-0.009662
3136,-0.033523,-0.009543,0.019185
3137,-0.010555,-0.009543,0.004761
3138,0.012412,-0.025317,0.004761
3139,-0.033523,-0.041091,0.004761
3140,0.012412,-0.009543,0.004761
3141,0.035379,0.022005,0.004761
3142,0.035379,-0.009543,0.004761
3143,0.035379,0.006231,-0.009662
3144,0.012412,-0.009543,-0.009662
3145,0.127248,-0.009543,-0.009662
3146,0.058346,-0.009543,-0.024086
3147,-0.010555,-0.009543,-0.009662
3148,-0.010555,-0.009543,-0.024086
3149,0.035379,-0.009543,-0.009662
3150,0.012412,-0.009543,-0.009662
3151,-0.010555,0.006231,0.019185
3152,0.058346,0.006231,-0.009662
3153,0.012412,0.006231,-0.009662
3154,0.058346,-0.009543,-0.024086
3155,0.035379,-0.009543,-0.009662
3156,0.012412,-0.025317,-0.024086
3157,0.058346,0.006231,0.004761
3158,0.035379,0.006231,0.019185
3159,-0.033523,0.006231,0.033609
3160,-0.033523,-0.009543,0.019185
3161,-0.010555,-0.009543,0.048033
3162,-0.033523,-0.009543,0.004761
3163,-0.010555,-0.009543,-0.009662
3164,-0.033523,-0.025317,-0.009662
3165,0.035379,-0.009543,-0.009662
3166,-0.010555,-0.009543,0.004761
3167,-0.010555,-0.009543,-0.009662
3168,-0.033523,0.006231,0.004761
3169,-0.033523,-0.009543,-0.009662
3170,0.035379,-0.025317,-0.009662
3171,-0.05649,-0.025317,-0.024086
3172,-0.05649,0.006231,0.004761
3173,-0.010555,-0.009543,-0.009662
3174,0.012412,-0.025317,0.004761
3175,-0.079457,-0.025317,-0.009662
3176,-0.033523,-0.009543,0.004761
3177,-0.010555,-0.025317,-0.009662
3178,-0.010555,-0.009543,-0.009662
3179,-0.05649,-0.025317,-0.009662
3180,0.012412,0.006231,0.004761
3181,-0.010555,-0.009543,-0.009662
3182,0.081313,-0.009543,-0.009662
3183,-0.010555,-0.009543,-0.024086
3184,-0.010555,-0.025317,-0.009662
3185,0.012412,-0.025317,-0.009662
3186,0.058346,-0.009543,-0.009662
3187,0.035379,-0.009543,0.004761
3188,-0.033523,-0.009543,-0.009662
3189,0.058346,0.006231,0.004761
3190,0.035379,0.006231,0.004761
3191,-0.010555,0.006231,-0.009662
3192,-0.010555,-0.009543,0.004761
3193,0.035379,-0.009543,0.004761
3194,0.035379,-0.009543,-0.009662
3195,-0.010555,-0.025317,-0.009662
3196,0.035379,-0.009543,-0.024086
3197,0.012412,-0.025317,0.004761
3198,-0.010555,-0.025317,-0.009662
3199,-0.05649,-0.009543,-0.009662
3200,-0.010555,-0.025317,0.004761
3201,-0.010555,-0.025317,0.004761
3202,-0.010555,0.006231,0.004761
3203,-0.010555,-0.009543,0.004761
3204,-0.010555,-0.009543,0.004761
3205,-0.010555,-0.009543,0.004761
3206,-0.05649,-0.009543,0.004761
3207,0.012412,0.006231,0.004761
3208,-0.05649,0.006231,0.004761
3209,0.012412,0.006231,-0.009662
3210,0.035379,-0.025317,0.019185
3211,-0.010555,-0.009543,0.004761
3212,-0.079457,-0.025317,0.004761
3213,0.012412,-0.009543,0.019185
3214,-0.010555,-0.009543,0.004761
3215,-0.033523,-0.009543,-0.009662
3216,-0.010555,-0.009543,0.004761
3217,-0.010555,-0.009543,0.004761
3218,0.058346,-0.009543,0.004761
3219,0.012412,-0.025317,-0.024086
3220,0.012412,-0.009543,0.004761
3221,0.081313,0.022005,0.019185
3222,0.035379,-0.025317,0.004761
3223,-0.033523,-0.009543,-0.009662
3224,0.058346,0.006231,-0.009662
3225,0.012412,-0.009543,0.019185
3226,-0.010555,-0.025317,0.004761
3227,0.012412,-0.009543,0.004761
3228,0.058346,0.006231,0.004761
3229,0.012412,0.006231,0.004761
3230,0.035379,0.006231,-0.009662
3231,-0.010555,-0.009543,0.019185
3232,0.012412,-0.025317,-0.009662
3233,0.035379,-0.009543,-0.009662
3234,0.012412,-0.009543,-0.024086
3235,-0.033523,0.006231,-0.024086
3236,0.035379,-0.025317,-0.009662
3237,-0.010555,-0.009543,0.004761
3238,-0.010555,-0.025317,-0.009662
3239,0.012412,-0.009543,0.004761
3240,-0.079457,-0.025317,0.004761
3241,-0.010555,-0.041091,0.004761
3242,0.012412,-0.009543,-0.009662
3243,0.012412,-0.009543,-0.009662
3244,-0.05649,-0.041091,-0.009662
3245,0.012412,-0.025317,0.004761
3246,-0.033523,-0.009543,-0.009662
3247,-0.033523,-0.025317,-0.009662
3248,0.012412,-0.009543,0.004761
3249,-0.033523,-0.025317,-0.024086
3250,-0.010555,-0.009543,0.004761
3251,-0.033523,-0.009543,0.004761
3252,0.012412,0.006231,0.004761
3253,-0.010555,-0.009543,-0.009662
3254,-0.079457,-0.009543,0.004761
3255,-0.033523,-0.009543,-0.009662
3256,-0.010555,-0.009543,0.004761
3257,0.058346,-0.009543,0.004761
3258,-0.033523,-0.009543,0.004761
3259,0.035379,0.006231,0.004761
3260,0.035379,-0.025317,0.004761
3261,0.035379,-0.025317,-0.009662
3262,0.058346,0.006231,-0.009662
3263,0.012412,-0.025317,-0.009662
3264,-0.010555,-0.025317,-0.009662
3265,0.012412,0.006231,-0.024086
3266,-0.010555,-0.009543,0.004761
3267,0.035379,-0.025317,0.033609
3268,0.035379,0.006231,0.019185
3269,0.058346,-0.009543,0.019185
3270,0.012412,-0.025317,-0.024086
3271,-0.033523,-0.009543,-0.009662
3272,-0.010555,-0.025317,0.004761
3273,0.012412,-0.009543,0.004761
3274,0.035379,-0.009543,-0.009662
3275,-0.033523,-0.009543,0.004761
3276,0.035379,-0.025317,-0.009662
3277,0.012412,-0.009543,0.004761
3278,0.012412,-0.009543,0.004761
3279,-0.010555,-0.009543,-0.009662
3280,-0.05649,-0.025317,-0.009662
3281,-0.010555,0.006231,-0.009662
3282,0.012412,-0.009543,-0.009662
3283,-0.05649,-0.009543,0.004761
3284,-0.010555,-0.009543,0.004761
3285,0.012412,-0.009543,0.004761
3286,-0.010555,-0.009543,0.004761
3287,-0.033523,-0.009543,0.019185
3288,0.035379,-0.009543,0.004761
3289,-0.033523,-0.009543,-0.009662
3290,-0.079457,-0.025317,-0.009662
3291,0.012412,0.006231,-0.009662
3292,-0.010555,-0.025317,0.004761
3293,0.058346,-0.025317,-0.009662
3294,-0.010555,0.006231,-0.024086
3295,-0.033523,-0.009543,-0.009662
3296,0.012412,-0.041091,-0.009662
3297,0.081313,-0.041091,0.004761
3298,0.012412,-0.009543,-0.024086
3299,-0.05649,-0.009543,-0.009662
3300,0.012412,-0.009543,-0.009662
3301,0.012412,-0.009543,0.004761
3302,0.012412,-0.009543,-0.009662
3303,-0.033523,-0.009543,0.004761
3304,-0.033523,0.006231,-0.009662
3305,0.012412,0.006231,0.004761
3306,0.012412,-0.009543,-0.009662
3307,0.035379,-0.009543,-0.009662
3308,0.035379,-0.009543,-0.009662
3309,0.035379,0.022005,-0.009662
3310,0.012412,-0.009543,-0.009662
3311,-0.033523,-0.009543,0.004761
3312,0.012412,-0.009543,-0.009662
3313,0.035379,0.006231,0.004761
3314,0.012412,-0.009543,0.004761
3315,0.012412,0.006231,0.004761
3316,-0.010555,-0.009543,-0.009662
3317,0.035379,0.006231,0.019185
3318,-0.033523,-0.025317,0.004761
3319,-0.033523,0.006231,-0.009662
3320,-0.033523,-0.009543,0.004761
3321,0.012412,-0.025317,0.019185
3322,-0.010555,-0.025317,0.004761
3323,-0.033523,-0.009543,-0.009662
3324,-0.010555,0.006231,-0.009662
3325,0.012412,-0.009543,0.004761
3326,0.012412,-0.009543,0.004761
3327,0.012412,-0.009543,-0.024086
3328,-0.033523,-0.025317,-0.009662
3329,-0.05649,-0.025317,-0.009662
3330,-0.033523,-0.009543,-0.009662
3331,0.012412,0.006231,-0.009662
3332,0.012412,-0.009543,0.004761
3333,0.012412,-0.009543,0.004761
3334,-0.010555,-0.009543,-0.024086
3335,0.012412,-0.025317,0.004761
3336,0.058346,-0.009543,0.019185
3337,0.035379,0.006231,0.019185
3338,0.012412,0.022005,0.019185
3339,0.035379,0.03778,0.004761
3340,0.012412,0.006231,0.004761
3341,-0.010555,-0.009543,-0.009662
3342,-0.079457,-0.009543,-0.024086
3343,-0.033523,-0.009543,-0.024086
3344,0.035379,-0.009543,-0.009662
3345,0.035379,-0.009543,-0.009662
3346,0.035379,0.006231,0.004761
3347,0.058346,-0.009543,-0.024086
3348,0.035379,-0.025317,0.004761
3349,-0.010555,-0.025317,-0.024086
3350,-0.010555,-0.041091,-0.009662
3351,0.012412,0.006231,-0.024086
3352,0.012412,-0.009543,-0.009662
3353,-0.010555,-0.009543,-0.009662
3354,-0.05649,-0.025317,0.004761
3355,-0.010555,-0.009543,0.019185
3356,0.012412,0.006231,0.004761
3357,-0.05649,-0.025317,0.019185
3358,-0.033523,0.006231,-0.009662
3359,0.012412,-0.009543,-0.009662
3360,-0.010555,-0.009543,0.004761
3361,-0.033523,-0.025317,0.019185
3362,-0.033523,-0.009543,-0.009662
3363,0.012412,0.022005,0.019185
3364,-0.010555,-0.009543,0.019185
3365,-0.010555,-0.009543,0.004761
3366,-0.033523,-0.009543,-0.024086
3367,0.012412,-0.009543,-0.009662
3368,0.035379,-0.009543,-0.009662
3369,0.012412,-0.041091,-0.03851
3370,0.035379,-0.025317,-0.024086
3371,0.035379,0.006231,-0.009662
3372,-0.033523,-0.009543,0.004761
3373,0.012412,0.006231,0.033609
3374,0.012412,-0.025317,0.004761
3375,-0.010555,-0.009543,0.048033
3376,0.012412,-0.009543,-0.009662
3377,0.035379,-0.025317,-0.009662
3378,0.035379,0.006231,0.033609
3379,0.058346,0.006231,0.004761
3380,0.081313,0.006231,0.019185
3381,0.10428,-0.009543,0.019185
3382,0.012412,-0.009543,-0.009662
3383,0.012412,-0.025317,-0.009662
3384,0.012412,-0.041091,-0.009662
3385,0.012412,-0.025317,-0.024086
3386,-0.05649,-0.025317,-0.009662
3387,0.012412,-0.009543,-0.024086
3388,0.012412,-0.009543,-0.009662
3389,-0.010555,-0.009543,-0.009662
3390,-0.010555,-0.009543,-0.009662
3391,0.035379,0.006231,0.004761
3392,0.035379,-0.009543,0.019185
3393,0.012412,-0.009543,-0.009662
3394,-0.010555,-0.025317,-0.009662
3395,0.012412,-0.009543,-0.009662
3396,0.012412,-0.009543,-0.009662
3397,-0.033523,0.069328,0.004761
3398,-0.010555,-0.009543,-0.009662
3399,-0.033523,-0.025317,0.004761
3400,-0.05649,0.006231,-0.009662
3401,0.012412,-0.009543,0.019185
3402,-0.010555,-0.009543,-0.009662
3403,-0.010555,0.006231,0.019185
3404,0.012412,-0.009543,-0.009662
3405,-0.010555,-0.025317,0.004761
3406,0.012412,-0.009543,0.004761
3407,0.081313,-0.009543,0.004761
3408,0.035379,0.006231,0.033609
3409,-0.010555,0.022005,0.004761
3410,-0.033523,-0.009543,-0.024086
3411,-0.033523,-0.025317,-0.009662
3412,-0.033523,-0.009543,0.004761
3413,-0.033523,-0.025317,0.004761
3414,0.012412,-0.009543,0.004761
3415,-0.010555,-0.009543,-0.009662
3416,-0.010555,-0.025317,0.004761
3417,0.058346,-0.009543,0.004761
3418,0.012412,-0.025317,0.004761
3419,0.012412,-0.009543,0.004761
3420,0.012412,-0.025317,-0.024086
3421,-0.010555,-0.009543,0.004761
3422,0.012412,-0.009543,-0.009662
3423,0.035379,-0.009543,-0.009662
3424,0.127248,-0.009543,-0.024086
3425,-0.010555,-0.009543,-0.009662
3426,0.012412,-0.025317,-0.024086
3427,0.058346,-0.025317,0.004761
3428,0.012412,-0.009543,0.004761
3429,0.058346,0.006231,0.004761
3430,-0.033523,-0.009543,0.004761
3431,0.058346,-0.009543,0.004761
3432,-0.010555,-0.025317,-0.009662
3433,-0.010555,0.006231,-0.009662
3434,0.012412,-0.025317,0.004761
3435,-0.033523,-0.009543,0.004761
3436,-0.010555,-0.025317,-0.009662
3437,0.012412,-0.009543,-0.009662
3438,0.012412,0.006231,0.004761
3439,0.012412,0.006231,0.004761
3440,-0.033523,-0.009543,-0.009662
3441,-0.033523,-0.041091,0.004761
3442,0.012412,-0.009543,-0.009662
3443,-0.010555,-0.009543,0.004761
3444,-0.033523,-0.009543,-0.009662
3445,-0.033523,-0.009543,-0.009662
3446,-0.010555,-0.025317,0.004761
3447,0.012412,-0.009543,0.019185
3448,0.012412,-0.009543,0.004761
3449,0.012412,0.006231,0.004761
3450,0.012412,0.006231,0.004761
3451,0.058346,0.006231,0.004761
3452,0.035379,0.006231,0.004761
3453,0.035379,0.006231,-0.009662
3454,-0.010555,-0.025317,0.004761
3455,0.058346,-0.009543,0.004761
3456,0.035379,0.006231,0.004761
3457,0.012412,-0.009543,-0.009662
3458,-0.010555,-0.009543,0.004761
3459,-0.010555,-0.025317,0.004761
3460,0.012412,-0.025317,-0.009662
3461,-0.010555,-0.009543,-0.009662
3462,0.058346,-0.009543,-0.009662
3463,0.058346,0.006231,0.019185
3464,0.127248,-0.041091,-0.009662
3465,-0.05649,-0.025317,-0.024086
3466,-0.010555,-0.041091,-0.009662
3467,0.058346,-0.025317,-0.024086
3468,0.012412,-0.025317,0.004761
3469,-0.05649,-0.025317,-0.009662
3470,-0.010555,0.006231,-0.009662
3471,0.035379,-0.009543,0.004761
3472,-0.010555,-0.025317,-0.009662
3473,-0.010555,-0.009543,0.004761
3474,-0.033523,0.006231,0.004761
3475,-0.010555,-0.009543,-0.009662
3476,0.012412,0.069328,0.004761
3477,-0.05649,-0.009543,0.004761
3478,0.035379,0.006231,-0.009662
3479,0.012412,0.006231,-0.009662
3480,-0.010555,0.006231,0.004761
3481,-0.079457,-0.009543,0.004761
3482,0.012412,0.006231,-0.009662
3483,0.012412,0.006231,-0.009662
3484,-0.033523,-0.009543,-0.009662
3485,-0.033523,-0.009543,-0.009662
3486,0.012412,-0.009543,-0.024086
3487,0.035379,-0.025317,-0.009662
3488,-0.010555,-0.025317,0.004761
3489,-0.010555,0.006231,0.019185
3490,0.012412,0.006231,0.004761
3491,0.058346,0.006231,0.004761
3492,0.012412,-0.009543,-0.009662
3493,-0.010555,-0.025317,0.004761
3494,0.012412,0.006231,0.004761
3495,0.058346,0.006231,0.004761
3496,-0.010555,0.006231,0.004761
3497,-0.010555,0.006231,0.004761
3498,-0.010555,-0.009543,-0.024086
3499,0.058346,-0.025317,-0.009662
3500,0.035379,-0.009543,-0.024086
3501,-0.010555,-0.025317,-0.009662
3502,0.035379,0.006231,-0.024086
3503,0.058346,-0.009543,0.004761
3504,0.012412,-0.009543,0.004761
3505,0.012412,0.006231,0.019185
3506,0.035379,0.006231,0.004761
3507,0.012412,-0.009543,-0.009662
3508,0.035379,-0.025317,0.004761
3509,-0.033523,-0.025317,-0.009662
3510,-0.033523,-0.009543,-0.009662
3511,-0.010555,0.006231,0.004761
3512,0.012412,0.006231,-0.024086
3513,-0.033523,-0.025317,-0.009662
3514,0.012412,-0.009543,-0.009662
3515,-0.010555,-0.009543,0.004761
3516,0.012412,0.006231,0.019185
3517,-0.010555,0.006231,0.004761
3518,0.012412,-0.009543,0.019185
3519,0.012412,0.006231,0.019185
3520,-0.033523,0.006231,0.019185
3521,-0.033523,-0.009543,0.004761
3522,0.012412,0.006231,-0.024086
3523,-0.010555,-0.025317,-0.009662
3524,-0.05649,-0.009543,-0.009662
3525,0.035379,-0.009543,0.004761
3526,0.012412,-0.009543,0.004761
3527,-0.010555,-0.009543,0.019185
3528,0.035379,-0.009543,0.004761
3529,-0.010555,-0.009543,-0.009662
3530,0.035379,0.006231,0.004761
3531,0.081313,-0.041091,-0.009662
3532,-0.010555,-0.009543,-0.009662
3533,-0.033523,0.006231,0.004761
3534,-0.010555,-0.009543,0.004761
3535,0.081313,-0.009543,-0.009662
3536,-0.033523,-0.041091,-0.03851
3537,0.035379,0.006231,0.004761
3538,0.035379,0.006231,-0.009662
3539,-0.033523,-0.009543,-0.024086
3540,0.012412,-0.009543,0.004761
3541,-0.033523,-0.009543,-0.03851
3542,0.012412,-0.041091,-0.024086
3543,-0.010555,0.006231,0.004761
3544,-0.033523,-0.009543,0.004761
3545,0.012412,0.006231,0.004761
3546,0.035379,0.006231,0.004761
3547,-0.010555,0.006231,0.004761
3548,0.035379,-0.009543,0.004761
3549,-0.033523,-0.009543,0.019185
3550,-0.010555,-0.009543,0.004761
3551,-0.010555,-0.009543,0.004761
3552,-0.033523,-0.009543,0.004761
3553,-0.033523,-0.009543,-0.009662
3554,0.012412,0.006231,-0.009662
3555,0.012412,-0.009543,0.004761
3556,-0.033523,-0.009543,0.019185
3557,-0.033523,0.006231,-0.009662
3558,0.035379,-0.025317,0.004761
3559,0.035379,-0.009543,0.019185
3560,-0.033523,-0.009543,0.019185
3561,-0.010555,-0.009543,-0.024086
3562,-0.033523,-0.009543,-0.009662
3563,0.035379,0.006231,-0.009662
3564,-0.010555,0.006231,0.004761
3565,-0.010555,0.006231,-0.009662
3566,0.035379,-0.009543,0.004761
3567,0.035379,0.006231,0.004761
3568,-0.010555,-0.025317,0.004761
3569,0.035379,-0.009543,0.004761
3570,0.012412,-0.009543,-0.009662
3571,0.012412,-0.009543,0.019185
3572,-0.010555,-0.009543,0.004761
3573,0.081313,0.006231,0.004761
3574,0.012412,-0.009543,0.004761
3575,0.012412,0.006231,-0.009662
3576,0.012412,-0.009543,0.004761
3577,0.035379,-0.009543,-0.024086
3578,0.012412,-0.009543,-0.009662
3579,0.012412,0.006231,0.004761
3580,-0.010555,-0.009543,-0.024086
3581,-0.079457,-0.009543,-0.009662
3582,0.012412,0.006231,0.004761
3583,-0.010555,-0.025317,0.019185
3584,0.012412,-0.009543,-0.009662
3585,-0.033523,0.006231,-0.024086
3586,0.012412,-0.009543,-0.009662
3587,-0.010555,-0.025317,0.019185
3588,-0.079457,-0.025317,-0.009662
3589,-0.010555,-0.041091,0.004761
3590,0.012412,-0.009543,0.004761
3591,-0.033523,-0.025317,0.004761
3592,-0.05649,-0.009543,0.004761
3593,0.012412,0.006231,0.004761
3594,0.058346,0.006231,-0.009662
