# Requested Sampling Rate (Hz):,1000
# Actual Sampling Rate (Hz):,998.785
# Requested Duration (s):,5.0
# Actual Duration (s):,5.048
# REST Calibration:,831.4595862068991,832.6049655172403,833.6698965517227
# MAX Calibration:,875.0000,896.0000,903.0000
# Normalization: MVC-based  (x_norm = (x - REST) / (MAX - REST))
sample_idx,EMG1,EMG2,EMG3
0,-0.010555,-0.009543,0.004761
1,0.012412,0.006231,0.004761
2,0.081313,0.022005,0.004761
3,0.081313,-0.009543,0.033609
4,0.058346,-0.009543,0.004761
5,0.058346,-0.009543,0.019185
6,0.035379,-0.009543,0.004761
7,-0.033523,-0.009543,0.004761
8,-0.05649,-0.009543,-0.009662
9,-0.010555,-0.025317,-0.024086
10,-0.010555,-0.009543,-0.009662
11,-0.010555,-0.025317,-0.024086
12,0.035379,-0.025317,-0.024086
13,0.058346,-0.009543,-0.009662
14,0.012412,-0.009543,0.004761
15,0.035379,0.006231,0.004761
16,0.035379,-0.025317,-0.024086
17,0.058346,0.006231,-0.009662
18,0.035379,-0.009543,-0.009662
19,0.012412,0.022005,0.004761
20,0.012412,-0.009543,-0.009662
21,0.058346,-0.009543,-0.009662
22,-0.010555,-0.009543,-0.009662
23,-0.033523,-0.009543,-0.009662
24,-0.010555,-0.009543,-0.009662
25,-0.010555,0.006231,-0.024086
26,0.012412,0.006231,0.004761
27,-0.05649,-0.009543,-0.009662
28,-0.010555,-0.009543,-0.009662
29,-0.010555,-0.009543,0.019185
30,-0.033523,0.006231,0.004761
31,-0.010555,-0.009543,-0.009662
32,0.035379,0.006231,0.004761
33,-0.05649,-0.009543,0.019185
34,-0.05649,-0.009543,0.019185
35,-0.033523,-0.025317,-0.009662
36,-0.033523,-0.009543,0.048033
37,-0.033523,-0.009543,0.004761
38,-0.033523,0.006231,0.004761
39,-0.033523,-0.009543,-0.009662
40,-0.010555,-0.025317,0.004761
41,-0.010555,-0.009543,-0.009662
42,-0.05649,-0.009543,-0.009662
43,-0.033523,-0.025317,-0.009662
44,0.012412,-0.041091,-0.024086
45,0.058346,-0.025317,-0.009662
46,0.012412,-0.009543,0.004761
47,0.035379,-0.009543,-0.024086
48,0.058346,0.006231,0.004761
49,0.012412,-0.025317,-0.009662
50,-0.010555,-0.009543,-0.024086
51,-0.033523,-0.025317,-0.009662
52,0.012412,-0.025317,-0.009662
53,0.058346,0.006231,0.004761
54,-0.05649,0.022005,-0.009662
55,-0.010555,0.006231,-0.009662
56,0.035379,0.006231,-0.009662
57,-0.033523,-0.009543,0.004761
58,-0.033523,-0.009543,-0.009662
59,0.012412,-0.025317,-0.009662
60,0.058346,-0.009543,0.004761
61,0.012412,-0.009543,-0.009662
62,-0.010555,0.006231,0.004761
63,-0.010555,-0.009543,0.004761
64,0.012412,-0.009543,-0.009662
65,0.035379,-0.009543,-0.024086
66,0.012412,-0.009543,-0.009662
67,-0.033523,0.006231,0.004761
68,-0.05649,-0.009543,-0.009662
69,-0.010555,-0.009543,0.048033
70,0.012412,-0.009543,-0.009662
71,0.012412,-0.009543,-0.009662
72,-0.033523,0.006231,0.004761
73,0.012412,0.006231,0.004761
74,-0.033523,0.006231,0.004761
75,-0.033523,0.006231,-0.024086
76,0.012412,-0.009543,-0.024086
77,-0.033523,-0.025317,-0.009662
78,-0.010555,-0.009543,-0.009662
79,-0.033523,-0.009543,0.019185
80,0.012412,-0.009543,0.004761
81,-0.033523,-0.009543,0.004761
82,0.035379,-0.009543,-0.009662
83,0.012412,-0.009543,-0.009662
84,0.012412,-0.009543,0.004761
85,0.035379,-0.009543,0.004761
86,-0.033523,-0.009543,0.004761
87,-0.010555,0.006231,0.004761
88,0.012412,-0.025317,0.004761
89,0.012412,-0.009543,-0.009662
90,0.012412,-0.009543,-0.009662
91,0.058346,0.006231,-0.009662
92,0.035379,-0.009543,-0.009662
93,-0.010555,0.006231,-0.009662
94,0.012412,0.006231,-0.024086
95,0.012412,-0.009543,-0.009662
96,0.035379,-0.009543,-0.009662
97,0.012412,0.006231,-0.009662
98,0.012412,-0.025317,-0.009662
99,0.035379,-0.025317,-0.009662
100,0.035379,-0.009543,0.004761
101,0.012412,0.022005,0.004761
102,0.012412,-0.009543,0.004761
103,0.035379,-0.025317,-0.024086
104,0.012412,-0.025317,0.004761
105,-0.010555,0.006231,-0.024086
106,-0.033523,0.006231,-0.009662
107,0.035379,-0.009543,-0.024086
108,-0.010555,-0.025317,0.004761
109,-0.010555,-0.009543,-0.024086
110,-0.010555,-0.025317,-0.009662
111,-0.033523,-0.009543,-0.009662
112,0.058346,0.006231,0.004761
113,0.035379,-0.009543,0.004761
114,0.012412,-0.025317,-0.009662
115,0.035379,-0.009543,0.019185
116,-0.010555,-0.025317,-0.009662
117,-0.102424,-0.025317,-0.009662
118,-0.079457,-0.041091,-0.024086
119,-0.05649,-0.025317,-0.03851
120,0.035379,-0.025317,-0.024086
121,-0.05649,-0.009543,-0.009662
122,-0.033523,-0.009543,-0.009662
123,-0.010555,-0.009543,0.004761
124,0.012412,-0.009543,-0.009662
125,-0.079457,-0.009543,-0.009662
126,-0.079457,-0.009543,-0.024086
127,0.012412,-0.009543,-0.009662
128,-0.010555,-0.009543,0.004761
129,0.058346,-0.025317,-0.009662
130,-0.033523,0.006231,-0.009662
131,0.012412,-0.009543,-0.009662
132,-0.010555,0.006231,-0.009662
133,0.012412,-0.009543,0.004761
134,0.035379,-0.009543,-0.009662
135,0.035379,-0.009543,0.004761
136,0.012412,0.006231,-0.009662
137,0.035379,-0.009543,0.004761
138,0.058346,-0.009543,0.004761
139,0.012412,0.006231,0.004761
140,0.035379,-0.009543,0.019185
141,0.012412,-0.025317,-0.009662
142,0.012412,-0.009543,-0.009662
143,0.035379,-0.009543,-0.009662
144,-0.010555,-0.009543,-0.024086
145,0.012412,-0.009543,-0.024086
146,0.012412,-0.025317,-0.009662
147,0.035379,-0.009543,-0.009662
148,-0.05649,0.006231,0.004761
149,-0.010555,-0.025317,0.004761
150,-0.010555,-0.009543,0.004761
151,-0.033523,-0.009543,0.004761
152,0.012412,-0.025317,0.019185
153,-0.010555,-0.009543,0.004761
154,-0.010555,0.006231,0.004761
155,-0.05649,0.006231,-0.009662
156,0.012412,-0.009543,-0.009662
157,-0.010555,0.006231,-0.024086
158,0.012412,-0.025317,0.004761
159,-0.033523,-0.009543,-0.024086
160,-0.010555,-0.009543,-0.009662
161,-0.033523,-0.025317,-0.024086
162,-0.033523,-0.025317,0.004761
163,-0.033523,-0.025317,-0.009662
164,0.035379,-0.009543,-0.024086
165,-0.010555,-0.025317,-0.009662
166,-0.033523,-0.025317,-0.009662
167,-0.010555,-0.009543,-0.009662
168,0.012412,0.006231,0.004761
169,-0.033523,-0.009543,-0.009662
170,-0.033523,-0.009543,0.004761
171,0.012412,-0.009543,0.004761
172,0.012412,-0.009543,-0.009662
173,0.035379,-0.009543,0.048033
174,0.035379,-0.025317,0.004761
175,0.035379,-0.025317,-0.024086
176,0.035379,-0.009543,-0.024086
177,0.035379,0.006231,0.004761
178,0.012412,-0.009543,0.004761
179,0.035379,-0.009543,0.004761
180,0.035379,-0.025317,-0.009662
181,0.012412,-0.009543,-0.009662
182,-0.010555,-0.025317,-0.024086
183,0.035379,-0.025317,-0.009662
184,0.127248,0.022005,0.004761
185,0.035379,-0.009543,0.019185
186,-0.05649,-0.009543,0.019185
187,0.012412,-0.009543,0.004761
188,0.035379,0.006231,-0.009662
189,-0.010555,-0.009543,0.004761
190,-0.079457,-0.041091,-0.009662
191,-0.010555,-0.025317,-0.009662
192,0.035379,-0.025317,-0.009662
193,-0.010555,-0.009543,0.004761
194,-0.033523,0.006231,-0.009662
195,-0.010555,0.006231,0.004761
196,0.081313,0.006231,0.004761
197,-0.033523,0.006231,0.004761
198,-0.05649,-0.009543,0.004761
199,-0.010555,-0.025317,0.004761
200,-0.033523,-0.056865,0.004761
201,-0.010555,-0.041091,0.004761
202,-0.010555,-0.025317,0.019185
203,0.012412,-0.009543,-0.009662
204,0.035379,-0.009543,-0.009662
205,-0.033523,-0.025317,-0.009662
206,-0.05649,-0.009543,-0.024086
207,0.012412,0.006231,-0.009662
208,-0.010555,-0.009543,0.004761
209,-0.033523,0.006231,-0.009662
210,-0.033523,-0.009543,-0.009662
211,0.012412,0.006231,-0.009662
212,0.012412,-0.009543,-0.009662
213,0.058346,-0.009543,-0.009662
214,0.012412,-0.025317,-0.009662
215,0.035379,-0.009543,-0.009662
216,0.035379,-0.009543,0.004761
217,0.035379,0.006231,0.004761
218,0.012412,-0.009543,0.019185
219,0.012412,-0.009543,0.019185
220,0.058346,0.006231,0.004761
221,-0.033523,-0.009543,-0.009662
222,0.012412,-0.041091,-0.009662
223,0.035379,-0.025317,-0.009662
224,0.081313,0.006231,0.004761
225,0.10428,0.03778,0.004761
226,0.058346,0.022005,-0.009662
227,0.081313,0.006231,-0.024086
228,0.081313,0.022005,-0.024086
229,-0.05649,-0.025317,-0.009662
230,-0.263194,-0.072639,0.019185
231,-0.171326,0.022005,0.004761
232,-0.05649,0.053554,0.004761
233,-0.05649,0.022005,-0.009662
234,-0.033523,0.006231,0.004761
235,0.035379,-0.041091,0.004761
236,0.10428,-0.041091,-0.009662
237,0.081313,-0.056865,-0.024086
238,0.058346,-0.041091,-0.009662
239,0.081313,-0.041091,-0.009662
240,0.012412,-0.009543,-0.024086
241,0.058346,-0.009543,0.019185
242,-0.05649,-0.025317,0.004761
243,-0.079457,-0.009543,0.019185
244,-0.033523,-0.072639,-0.009662
245,0.081313,-0.056865,-0.009662
246,0.196149,-0.025317,-0.009662
247,0.219116,0.006231,0.019185
248,0.219116,0.03778,-0.009662
249,0.242083,0.03778,-0.009662
250,0.081313,0.006231,0.004761
251,-0.171326,-0.025317,-0.009662
252,-0.240227,-0.056865,-0.009662
253,-0.079457,0.022005,-0.009662
254,0.035379,0.274391,0.004761
255,-0.010555,0.353262,0.019185
256,-0.05649,0.258617,0.004761
257,-0.05649,0.132424,0.004761
258,-0.079457,0.022005,-0.009662
259,-0.033523,-0.088413,-0.009662
260,-0.148358,-0.167284,-0.03851
261,-0.171326,-0.198832,-0.024086
262,-0.102424,-0.198832,-0.052934
263,-0.033523,-0.183058,-0.024086
264,0.012412,-0.119962,-0.009662
265,0.012412,-0.072639,0.004761
266,0.035379,-0.056865,0.019185
267,0.081313,-0.056865,0.004761
268,0.150215,-0.025317,0.004761
269,0.10428,-0.025317,0.004761
270,-0.033523,-0.009543,0.004761
271,0.012412,-0.009543,0.004761
272,0.035379,-0.025317,-0.024086
273,0.012412,-0.025317,0.004761
274,-0.010555,-0.041091,0.004761
275,0.035379,-0.009543,0.004761
276,0.10428,0.006231,-0.009662
277,-0.010555,0.03778,0.004761
278,-0.010555,-0.025317,-0.009662
279,-0.010555,0.006231,-0.009662
280,0.012412,0.022005,-0.009662
281,0.035379,0.006231,-0.009662
282,0.058346,0.069328,-0.009662
283,0.035379,0.069328,0.004761
284,-0.033523,0.053554,0.004761
285,0.012412,0.03778,-0.009662
286,-0.010555,-0.009543,0.004761
287,-0.033523,-0.072639,-0.009662
288,-0.010555,-0.088413,0.004761
289,0.012412,-0.056865,-0.009662
290,-0.079457,-0.056865,-0.009662
291,-0.010555,-0.104187,0.004761
292,-0.033523,-0.072639,-0.009662
293,-0.010555,-0.056865,0.004761
294,-0.033523,-0.025317,0.019185
295,-0.010555,-0.009543,0.004761
296,0.012412,0.03778,-0.009662
297,0.081313,0.006231,-0.024086
298,-0.05649,-0.009543,-0.009662
299,-0.079457,0.006231,-0.009662
300,-0.079457,0.006231,0.004761
301,-0.033523,-0.009543,-0.009662
302,-0.033523,-0.009543,0.019185
303,0.012412,-0.025317,-0.009662
304,0.058346,-0.025317,-0.024086
305,0.058346,-0.025317,-0.009662
306,0.150215,-0.009543,-0.024086
307,0.150215,-0.025317,-0.024086
308,0.173182,-0.025317,-0.009662
309,0.196149,-0.009543,0.004761
310,0.173182,-0.009543,0.004761
311,0.058346,0.03778,0.004761
312,-0.125391,0.132424,0.004761
313,-0.125391,0.100876,0.019185
314,-0.079457,0.069328,-0.009662
315,-0.010555,0.022005,0.019185
316,-0.010555,-0.009543,-0.009662
317,-0.033523,-0.056865,-0.009662
318,-0.05649,-0.056865,0.004761
319,-0.05649,-0.041091,0.019185
320,0.035379,-0.041091,0.004761
321,-0.033523,-0.056865,0.004761
322,0.012412,-0.056865,-0.009662
323,-0.033523,-0.088413,-0.009662
324,-0.079457,-0.072639,-0.024086
325,-0.033523,-0.025317,0.019185
326,0.196149,0.022005,0.004761
327,0.333952,0.022005,-0.009662
328,0.242083,-0.025317,0.004761
329,0.150215,-0.072639,0.004761
330,0.127248,-0.072639,-0.009662
331,0.10428,-0.072639,-0.009662
332,-0.033523,0.022005,-0.03851
333,-0.263194,0.132424,-0.03851
334,-0.332096,0.305939,-0.009662
335,-0.263194,0.38481,0.004761
336,-0.148358,0.416358,0.019185
337,-0.240227,0.305939,0.004761
338,-0.21726,0.069328,0.004761
339,-0.125391,-0.119962,0.033609
340,0.012412,-0.23038,0.033609
341,0.10428,-0.23038,0.004761
342,0.081313,-0.261928,-0.009662
343,0.150215,-0.261928,-0.024086
344,0.127248,-0.23038,-0.009662
345,0.035379,-0.214606,-0.009662
346,-0.102424,-0.15151,-0.009662
347,-0.102424,-0.119962,-0.024086
348,-0.033523,-0.041091,-0.009662
349,0.058346,0.132424,0.004761
350,0.058346,0.195521,0.004761
351,0.035379,0.211295,0.004761
352,0.081313,0.321713,0.019185
353,0.012412,0.258617,0.004761
354,0.012412,0.132424,0.004761
355,0.012412,-0.041091,-0.024086
356,-0.010555,-0.23038,-0.03851
357,-0.010555,-0.293477,-0.03851
358,0.012412,-0.246154,-0.024086
359,0.035379,-0.119962,-0.024086
360,0.058346,-0.056865,-0.009662
361,0.058346,0.006231,-0.009662
362,0.081313,0.100876,0.004761
363,0.035379,0.11665,-0.009662
364,0.012412,0.100876,-0.024086
365,0.035379,0.069328,-0.009662
366,0.150215,0.006231,0.033609
367,0.219116,-0.056865,0.004761
368,0.517689,-0.15151,0.004761
369,0.356919,-0.15151,-0.009662
370,0.196149,-0.167284,-0.009662
371,-0.05649,-0.104187,0.004761
372,-0.240227,-0.088413,-0.024086
373,-0.446932,-0.041091,-0.024086
374,-0.492866,0.006231,-0.009662
375,-0.355063,0.085102,0.019185
376,-0.033523,0.290165,0.048033
377,0.219116,0.526777,0.033609
378,0.173182,0.558325,-0.024086
379,0.196149,0.38481,-0.009662
380,0.035379,0.085102,-0.024086
381,-0.194293,-0.214606,0.004761
382,-0.492866,-0.309251,0.019185
383,-0.21726,0.053554,-0.009662
384,0.035379,0.290165,-0.009662
385,0.127248,0.242843,0.019185
386,0.173182,0.085102,0.019185
387,0.196149,-0.183058,0.004761
388,0.586591,-0.372347,-0.024086
389,0.494722,-0.41967,-0.009662
390,0.379886,-0.325025,-0.03851
391,0.012412,-0.198832,-0.052934
392,-0.37803,-0.056865,-0.052934
393,-0.515833,-0.104187,-0.024086
394,-0.607702,-0.198832,-0.024086
395,-0.263194,-0.23038,0.004761
396,-0.033523,-0.214606,0.004761
397,0.035379,-0.056865,0.033609
398,0.173182,0.100876,0.004761
399,-0.05649,0.211295,0.019185
400,-0.332096,0.227069,0.019185
401,-0.194293,0.100876,-0.009662
402,-0.05649,0.03778,-0.03851
403,0.035379,-0.009543,-0.03851
404,-0.010555,-0.025317,-0.009662
405,0.10428,-0.025317,-0.009662
406,0.173182,0.053554,0.004761
407,0.150215,0.148198,-0.024086
408,0.173182,0.085102,-0.024086
409,0.081313,0.053554,-0.024086
410,0.219116,-0.025317,0.004761
411,0.310985,-0.056865,-0.009662
412,0.310985,-0.056865,0.004761
413,0.173182,0.053554,0.004761
414,0.058346,-0.009543,0.004761
415,0.058346,0.132424,0.019185
416,-0.240227,0.179746,0.048033
417,-0.837373,0.416358,0.048033
418,-0.584735,0.274391,0.004761
419,-0.332096,0.211295,-0.009662
420,0.035379,0.274391,0.019185
421,0.035379,0.03778,0.033609
422,0.10428,-0.356573,0.004761
423,0.517689,-0.482766,-0.052934
424,0.540657,-0.482766,-0.052934
425,0.379886,-0.356573,-0.03851
426,0.265051,-0.167284,-0.024086
427,0.379886,-0.088413,-0.03851
428,0.058346,-0.167284,-0.024086
429,-0.05649,-0.183058,-0.03851
430,0.035379,-0.119962,-0.009662
431,0.035379,-0.119962,0.019185
432,0.012412,-0.261928,-0.009662
433,-0.079457,-0.277703,-0.03851
434,-0.37803,-0.23038,-0.052934
435,-0.355063,-0.072639,0.004761
436,-0.286161,0.03778,0.033609
437,-0.171326,0.11665,0.048033
438,-0.010555,0.132424,-0.009662
439,0.035379,0.11665,-0.024086
440,-0.125391,0.100876,-0.03851
441,-0.171326,0.085102,-0.03851
442,-0.033523,0.11665,-0.024086
443,0.563624,0.179746,-0.009662
444,0.793295,0.179746,-0.009662
445,0.379886,0.053554,0.004761
446,-0.355063,0.006231,0.004761
447,-0.653636,0.195521,0.033609
448,-0.745505,0.305939,0.033609
449,-0.791439,0.321713,0.019185
450,-0.171326,0.353262,0.033609
451,0.425821,0.479454,0.033609
452,0.747361,0.353262,-0.009662
453,0.885164,-0.009543,-0.024086
454,0.655492,-0.277703,-0.052934
455,0.379886,-0.198832,-0.052934
456,-0.240227,-0.135736,-0.052934
457,-0.745505,-0.088413,-0.03851
458,-0.676603,0.069328,-0.009662
459,-0.400997,0.069328,0.004761
460,-0.400997,0.11665,0.048033
461,-0.400997,-0.15151,-0.009662
462,-0.102424,-0.466992,-0.03851
463,0.150215,-0.466992,-0.03851
464,0.333952,-0.23038,-0.024086
465,0.402854,0.022005,-0.024086
466,0.402854,0.022005,-0.009662
467,0.563624,-0.009543,0.004761
468,0.586591,-0.246154,0.019185
469,0.471755,-0.293477,-0.009662
470,0.655492,-0.135736,0.004761
471,0.471755,-0.009543,-0.009662
472,-0.079457,-0.056865,0.004761
473,0.219116,0.053554,-0.024086
474,0.081313,0.163972,-0.009662
475,-0.446932,0.085102,-0.009662
476,-0.975176,-0.135736,-0.009662
477,-1.067045,-0.261928,0.004761
478,-0.722538,-0.025317,0.019185
479,0.058346,0.132424,0.004761
480,0.402854,0.148198,0.019185
481,0.724394,-0.041091,-0.024086
482,1.022967,-0.214606,-0.052934
483,0.977033,-0.15151,-0.03851
484,0.333952,0.053554,-0.009662
485,0.265051,0.258617,0.033609
486,-0.102424,0.163972,0.048033
487,-0.469899,0.163972,-0.009662
488,-0.515833,0.242843,-0.009662
489,-0.561767,0.100876,-0.03851
490,-0.722538,0.258617,-0.024086
491,-1.044078,0.416358,0.004761
492,-0.423964,0.38481,0.033609
493,-0.033523,0.46368,0.004761
494,0.10428,0.305939,0.004761
495,-0.102424,-0.293477,-0.052934
496,0.150215,-0.593185,-0.052934
497,0.540657,-0.403895,-0.024086
498,0.908131,-0.325025,0.019185
499,0.471755,-0.466992,0.062456
500,-0.355063,-0.514314,-0.024086
501,-0.286161,-0.451218,-0.081781
502,-0.033523,-0.119962,-0.052934
503,-0.05649,0.211295,-0.009662
504,0.517689,0.227069,-0.03851
505,1.183737,0.274391,-0.03851
506,1.091869,0.242843,0.004761
507,0.83923,0.353262,0.019185
508,0.310985,0.242843,0.019185
509,-0.446932,-0.041091,-0.009662
510,-0.240227,-0.246154,-0.024086
511,-0.492866,-0.119962,-0.024086
512,-1.480454,0.132424,0.004761
513,-0.998144,0.558325,-0.009662
514,0.127248,0.858033,0.004761
515,0.402854,0.794937,0.004761
516,0.10428,0.400584,-0.052934
517,-0.469899,-0.025317,-0.067357
518,-0.37803,-0.466992,-0.067357
519,-0.240227,-0.624733,-0.03851
520,-0.332096,-0.750926,0.004761
521,-0.21726,-0.466992,0.019185
522,0.196149,0.053554,0.048033
523,0.862197,0.65297,0.033609
524,1.344508,1.047322,-0.009662
525,1.734949,0.637196,-0.024086
526,1.16077,-0.198832,0.019185
527,0.081313,-1.255697,0.019185
528,-1.27375,-1.697372,-0.009662
529,-2.077601,-1.145278,-0.009662
530,-0.492866,0.006231,-0.009662
531,1.803851,0.542551,-0.009662
532,2.194293,0.810711,-0.03851
533,2.010555,0.73184,-0.052934
534,1.068902,0.684518,-0.024086
535,-0.998144,0.621421,0.004761
536,-1.664191,0.558325,0.019185
537,-1.710126,0.211295,-0.009662
538,-1.250782,-0.246154,-0.024086
539,-0.37803,-0.277703,-0.052934
540,0.196149,-0.41967,-0.067357
541,0.379886,-0.056865,-0.024086
542,-0.033523,0.274391,0.004761
543,-0.722538,0.621421,0.033609
544,-0.630669,0.400584,0.019185
545,-0.561767,0.416358,0.033609
546,-0.286161,-0.214606,0.062456
547,-0.400997,-0.955989,0.048033
548,-0.676603,-1.807791,-0.024086
549,0.10428,-1.508083,-0.009662
550,1.183737,-0.056865,-0.024086
551,1.32154,0.873807,0.019185
552,0.931098,1.078871,-0.009662
553,0.517689,0.921129,-0.081781
554,0.150215,0.747614,-0.052934
555,-1.021111,0.716066,-0.03851
556,0.035379,1.157741,0.048033
557,0.770328,0.889581,0.062456
558,0.540657,0.11665,-0.024086
559,0.770328,-0.072639,-0.096205
560,0.058346,-0.009543,-0.067357
561,-0.676603,0.179746,0.019185
562,-0.469899,0.369036,0.062456
563,-0.286161,0.479454,0.091304
564,0.035379,-0.009543,0.07688
565,-0.194293,-0.687829,0.033609
566,-0.5388,-1.224149,-0.03851
567,-0.607702,-1.460761,-0.081781
568,-0.860341,-0.750926,-0.110629
569,-0.148358,-0.104187,-0.110629
570,0.563624,0.053554,-0.096205
571,0.632525,-0.466992,-0.067357
572,1.091869,-0.798248,-0.024086
573,1.183737,-0.750926,-0.052934
574,0.563624,-0.672055,-0.052934
575,-0.148358,-0.624733,-0.024086
576,-1.044078,0.03778,-0.024086
577,-1.59529,0.589873,-0.03851
578,-0.515833,0.810711,0.048033
579,0.150215,1.078871,0.105728
580,0.196149,1.820254,0.120151
581,0.242083,1.867576,0.07688
582,-0.630669,0.858033,-0.024086
583,-1.158914,-0.214606,-0.024086
584,-0.860341,-0.009543,-0.009662
585,0.448788,-0.167284,0.019185
586,0.954066,-0.545862,0.004761
587,0.632525,-1.097956,-0.03851
588,-0.010555,-0.924441,-0.052934
589,0.173182,-0.514314,-0.067357
590,1.229672,-0.656281,-0.067357
591,2.653636,-0.214606,0.062456
592,2.676603,0.495229,0.105728
593,1.137803,0.684518,0.004761
594,-1.457487,0.479454,-0.052934
595,-3.340795,0.305939,-0.067357
596,-2.054633,0.022005,-0.081781
597,-1.181881,-0.277703,-0.009662
598,-0.975176,-0.829796,0.048033
599,-1.687159,-0.561637,0.062456
600,-1.962765,0.274391,0.033609
601,-0.033523,0.337488,-0.009662
602,1.597146,0.100876,-0.067357
603,3.021111,-0.009543,-0.067357
604,3.59529,0.11665,-0.052934
605,1.803851,0.432132,-0.052934
606,-0.69957,-0.009543,-0.125052
607,-1.779027,-0.388121,-0.081781
608,-1.664191,-0.356573,-0.024086
609,-0.929242,-0.435444,0.004761
610,-0.814406,-0.372347,0.033609
611,-0.240227,-0.530088,0.019185
612,0.793295,-0.561637,0.105728
613,0.265051,-0.388121,0.134575
614,-0.469899,-0.593185,0.091304
615,-0.607702,-0.309251,-0.024086
616,-0.69957,0.132424,-0.125052
617,-0.584735,0.700292,-0.067357
618,-0.033523,0.447906,-0.096205
619,0.219116,0.11665,-0.096205
620,0.83923,0.526777,-0.03851
621,0.425821,0.684518,0.048033
622,0.448788,0.305939,0.105728
623,0.724394,-0.325025,0.004761
624,0.081313,-0.15151,-0.081781
625,-0.883308,0.211295,-0.052934
626,-0.079457,0.432132,-0.03851
627,0.150215,0.100876,-0.024086
628,-0.332096,0.03778,0.033609
629,-0.194293,-0.198832,0.048033
630,-0.194293,0.132424,0.033609
631,1.367475,0.179746,0.019185
632,2.079457,-0.372347,-0.009662
633,1.574179,-0.624733,0.07688
634,-2.077601,-0.388121,0.091304
635,-1.801995,-0.388121,0.004761
636,-0.263194,-0.703603,-0.009662
637,-0.561767,-0.514314,-0.081781
638,0.012412,0.163972,-0.081781
639,0.770328,0.542551,-0.03851
640,0.862197,0.369036,-0.009662
641,0.081313,-0.025317,-0.081781
642,-0.768472,0.779163,-0.024086
643,-0.998144,0.558325,0.120151
644,-1.549356,0.03778,0.221118
645,-0.492866,-0.861345,0.07688
646,1.022967,-1.192601,-0.024086
647,2.492866,-0.593185,-0.139476
648,1.390442,0.747614,-0.125052
649,0.586591,0.873807,-0.096205
650,-0.148358,0.826485,-0.110629
651,-0.515833,0.447906,-0.067357
652,-0.837373,0.258617,-0.067357
653,-0.768472,-0.593185,-0.009662
654,-0.21726,-1.271471,0.120151
655,-0.240227,-1.287245,0.091304
656,-0.148358,-0.49854,-0.009662
657,0.196149,0.337488,-0.024086
658,0.356919,1.583642,-0.03851
659,0.242083,1.772931,0.019185
660,-0.607702,0.38481,-0.052934
661,-0.676603,-0.198832,-0.024086
662,0.242083,0.03778,-0.024086
663,1.022967,0.179746,-0.067357
664,0.862197,-0.025317,0.033609
665,1.16077,-0.15151,0.062456
666,0.012412,0.085102,0.105728
667,-1.296717,-0.293477,0.148999
668,-1.572323,-0.293477,0.163423
669,-1.503421,-1.03486,0.091304
670,-0.883308,-1.618502,-0.03851
671,-0.286161,-1.476535,-0.03851
672,-0.102424,-0.545862,-0.052934
673,0.150215,-0.23038,-0.168324
674,-0.05649,-0.104187,-0.182747
675,0.67846,1.063096,-0.125052
676,0.793295,1.488997,-0.024086
677,1.068902,0.952678,0.062456
678,0.67846,0.447906,0.091304
679,0.196149,1.063096,0.091304
680,-0.240227,1.047322,0.004761
681,-1.158914,0.163972,-0.081781
682,0.173182,-0.277703,-0.096205
683,1.275606,-0.608959,-0.009662
684,1.344508,-0.656281,0.033609
685,1.367475,-0.15151,-0.024086
686,0.885164,-0.309251,0.033609
687,-1.342651,-1.161053,-0.081781
688,-1.779027,-0.877119,-0.096205
689,0.035379,0.605647,0.105728
690,0.242083,0.432132,0.206694
691,-0.653636,0.495229,0.134575
692,-1.549356,0.447906,0.019185
693,-0.814406,-0.466992,-0.110629
694,0.035379,-1.129504,-0.096205
695,0.632525,-0.514314,-0.067357
696,0.288018,0.337488,-0.052934
697,0.058346,0.179746,-0.009662
698,0.885164,0.290165,0.048033
699,0.885164,0.574099,0.07688
700,0.265051,0.100876,-0.03851
701,-0.69957,-0.135736,-0.110629
702,-0.906275,0.132424,-0.096205
703,-0.607702,-0.435444,-0.052934
704,-0.033523,-0.577411,0.004761
705,0.563624,0.053554,0.091304
706,-0.286161,0.227069,0.062456
707,-1.135947,0.65297,0.033609
708,-0.975176,0.73184,-0.009662
709,-0.240227,0.11665,-0.03851
710,1.16077,-0.056865,0.048033
711,1.597146,-1.050634,-0.024086
712,0.931098,-0.530088,-0.03851
713,-0.630669,-0.198832,-0.110629
714,-0.745505,0.369036,-0.139476
715,0.265051,0.242843,-0.03851
716,0.609558,0.574099,0.07688
717,0.219116,0.337488,0.134575
718,-0.515833,-0.183058,0.19227
719,-0.171326,-1.318794,0.048033
720,0.632525,-1.082182,-0.125052
721,0.333952,0.684518,-0.067357
722,0.67846,0.858033,-0.03851
723,0.035379,0.195521,-0.009662
724,-0.607702,-0.451218,-0.009662
725,0.402854,-0.325025,-0.052934
726,1.022967,0.100876,-0.197171
727,0.609558,0.006231,-0.125052
728,-0.309129,0.227069,-0.024086
729,-0.561767,0.305939,0.062456
730,-0.423964,-0.088413,0.07688
731,-0.791439,-0.214606,0.004761
732,-0.286161,-0.135736,-0.052934
733,-0.148358,-0.072639,-0.03851
734,-0.446932,0.069328,-0.009662
735,0.862197,0.03778,-0.009662
736,0.127248,0.022005,0.105728
737,-1.296717,-0.23038,0.091304
738,-1.044078,-0.640507,0.004761
739,-0.240227,-0.246154,-0.067357
740,0.655492,0.447906,-0.024086
741,0.931098,0.179746,-0.168324
742,-0.286161,-0.088413,-0.052934
743,-0.722538,-0.293477,0.033609
744,-0.286161,-0.451218,0.019185
745,-0.286161,-0.372347,-0.024086
746,-0.102424,-0.246154,0.019185
747,0.242083,0.637196,0.105728
748,0.494722,1.110419,0.120151
749,0.609558,0.353262,0.033609
750,-0.722538,-0.656281,-0.081781
751,-1.158914,-0.561637,-0.110629
752,-0.309129,-0.41967,-0.081781
753,0.379886,-0.451218,-0.067357
754,0.517689,-0.072639,-0.03851
755,0.954066,0.242843,0.004761
756,1.16077,-0.246154,-0.024086
757,0.356919,0.179746,-0.009662
758,-0.561767,0.305939,0.019185
759,-0.033523,-0.009543,0.019185
760,-0.263194,-0.104187,0.033609
761,-0.240227,0.542551,0.033609
762,0.379886,1.552094,0.134575
763,-0.194293,1.252386,0.148999
764,-1.044078,-0.261928,-0.009662
765,-0.998144,-0.640507,-0.125052
766,0.173182,-0.167284,-0.052934
767,0.563624,-0.703603,-0.096205
768,0.448788,-1.019086,-0.096205
769,0.540657,-0.735152,-0.067357
770,0.173182,0.022005,-0.024086
771,-0.263194,-0.261928,0.004761
772,0.517689,-0.403895,0.062456
773,1.528245,-0.072639,0.163423
774,0.908131,-0.198832,0.062456
775,-0.21726,-0.735152,-0.03851
776,-0.05649,-0.593185,-0.081781
777,-0.5388,-0.072639,-0.024086
778,-0.05649,0.337488,0.004761
779,0.793295,1.441675,0.004761
780,-0.400997,1.96222,-0.009662
781,-1.112979,0.905355,-0.052934
782,-1.181881,-0.041091,-0.03851
783,-1.021111,-0.451218,-0.052934
784,-0.69957,-0.624733,-0.03851
785,-0.148358,-0.403895,-0.03851
786,0.127248,0.03778,-0.052934
787,0.150215,0.432132,-0.024086
788,0.10428,0.369036,0.019185
789,-0.102424,0.416358,0.091304
790,0.310985,-0.167284,0.07688
791,-0.332096,-1.176827,-0.024086
792,-0.148358,-0.624733,-0.081781
793,0.425821,0.179746,-0.081781
794,0.356919,0.227069,-0.024086
795,0.402854,-0.009543,-0.03851
796,0.173182,-0.15151,-0.067357
797,-0.446932,-0.246154,-0.03851
798,0.012412,0.006231,0.019185
799,0.127248,0.369036,0.033609
800,0.173182,0.716066,0.019185
801,0.035379,0.558325,0.033609
802,0.448788,0.258617,0.004761
803,0.816263,-0.183058,0.091304
804,0.081313,-0.135736,0.163423
805,-0.975176,-0.293477,0.019185
806,-0.906275,0.053554,-0.096205
807,-0.263194,-0.545862,-0.139476
808,-0.240227,-0.892893,-0.110629
809,-0.033523,-0.15151,-0.024086
810,0.173182,-0.325025,0.019185
811,0.10428,-0.608959,0.004761
812,0.012412,-0.41967,0.004761
813,-0.21726,-0.167284,0.019185
814,-0.332096,0.211295,0.120151
815,0.081313,0.369036,0.105728
816,0.402854,-0.23038,-0.009662
817,-0.423964,-0.719378,-0.024086
818,-0.791439,-0.261928,-0.052934
819,0.885164,1.220837,-0.009662
820,0.908131,0.763388,-0.024086
821,0.908131,0.526777,-0.052934
822,0.448788,0.432132,-0.081781
823,-0.171326,-0.135736,-0.067357
824,-0.837373,-0.056865,-0.009662
825,-0.5388,-0.135736,0.019185
826,-0.05649,0.085102,0.004761
827,0.081313,0.03778,0.019185
828,0.035379,-0.482766,0.019185
829,-0.033523,-0.656281,0.004761
830,-0.400997,-0.861345,-0.052934
831,0.196149,-0.119962,-0.024086
832,0.83923,0.921129,-0.024086
833,0.885164,0.65297,-0.009662
834,0.379886,0.321713,0.004761
835,-0.883308,-0.025317,-0.067357
836,-0.745505,-0.277703,-0.110629
837,-0.05649,-0.325025,-0.03851
838,0.173182,-0.15151,-0.024086
839,0.035379,-0.104187,-0.03851
840,0.127248,-0.072639,0.033609
841,0.356919,-0.056865,0.07688
842,0.265051,-0.025317,0.062456
843,0.012412,-0.009543,0.033609
844,0.10428,-0.041091,-0.024086
845,-0.240227,-0.214606,-0.081781
846,-0.492866,-0.183058,-0.067357
847,-0.332096,-0.041091,-0.067357
848,-0.125391,0.053554,0.004761
849,-0.079457,-0.025317,0.004761
850,-0.010555,-0.104187,0.033609
851,-0.05649,-0.214606,0.019185
852,-0.194293,-0.23038,0.048033
853,-0.125391,0.179746,-0.009662
854,-0.309129,-0.167284,-0.052934
855,-0.21726,-0.246154,-0.009662
856,0.127248,0.022005,0.004761
857,0.265051,-0.041091,-0.009662
858,0.081313,0.022005,0.004761
859,0.127248,0.258617,-0.009662
860,0.127248,0.11665,0.004761
861,0.012412,0.006231,0.019185
862,-0.010555,-0.009543,0.019185
863,-0.102424,-0.025317,0.004761
864,-0.079457,0.006231,-0.024086
865,-0.102424,-0.009543,-0.009662
866,-0.033523,-0.072639,-0.024086
867,0.058346,-0.025317,-0.03851
868,0.10428,0.006231,-0.009662
869,0.058346,-0.025317,0.004761
870,-0.05649,0.022005,-0.009662
871,-0.079457,0.006231,-0.009662
872,-0.148358,-0.277703,-0.024086
873,0.012412,-0.198832,-0.009662
874,0.058346,-0.104187,0.004761
875,-0.010555,-0.135736,-0.009662
876,-0.05649,-0.104187,-0.024086
877,-0.05649,0.006231,0.019185
878,0.012412,-0.009543,0.019185
879,0.035379,0.069328,0.033609
880,-0.010555,0.03778,0.004761
881,0.012412,-0.025317,0.019185
882,-0.010555,0.006231,-0.024086
883,-0.102424,0.03778,-0.024086
884,-0.102424,0.006231,-0.024086
885,-0.148358,0.053554,-0.009662
886,-0.033523,0.069328,0.004761
887,-0.102424,-0.072639,-0.024086
888,-0.010555,-0.214606,-0.052934
889,-0.010555,0.069328,-0.009662
890,0.10428,0.242843,-0.009662
891,-0.010555,0.369036,0.019185
892,0.058346,0.353262,0.019185
893,0.288018,0.242843,-0.009662
894,0.288018,-0.104187,-0.03851
895,-0.05649,-0.530088,-0.03851
896,-0.148358,-0.466992,-0.009662
897,-0.148358,-0.214606,0.019185
898,-0.05649,-0.025317,-0.024086
899,0.035379,0.022005,-0.009662
900,0.035379,0.03778,0.019185
901,0.081313,-0.025317,-0.024086
902,0.058346,-0.025317,0.004761
903,0.012412,-0.025317,0.004761
904,-0.102424,-0.088413,-0.009662
905,-0.079457,-0.104187,-0.009662
906,0.035379,-0.056865,-0.009662
907,0.035379,0.053554,-0.024086
908,0.012412,0.069328,-0.024086
909,0.035379,-0.025317,-0.024086
910,-0.033523,-0.072639,-0.024086
911,-0.05649,-0.214606,-0.024086
912,-0.033523,-0.056865,0.019185
913,0.012412,0.100876,0.033609
914,-0.010555,0.132424,0.019185
915,-0.102424,0.053554,-0.009662
916,-0.05649,-0.056865,-0.009662
917,-0.033523,-0.009543,0.004761
918,0.035379,0.100876,-0.009662
919,-0.010555,0.03778,-0.024086
920,-0.05649,0.022005,-0.009662
921,-0.033523,-0.025317,-0.024086
922,-0.033523,-0.009543,-0.024086
923,-0.010555,0.022005,-0.009662
924,-0.010555,0.006231,0.004761
925,-0.010555,-0.056865,-0.009662
926,-0.05649,-0.072639,-0.024086
927,-0.033523,0.022005,-0.009662
928,0.035379,0.006231,-0.009662
929,0.012412,0.006231,0.004761
930,0.012412,-0.009543,-0.009662
931,-0.033523,-0.009543,0.004761
932,-0.010555,-0.009543,0.004761
933,0.058346,-0.041091,0.004761
934,0.012412,-0.009543,-0.009662
935,0.012412,-0.025317,-0.009662
936,-0.010555,-0.009543,0.004761
937,-0.033523,-0.041091,0.004761
938,0.012412,-0.072639,-0.009662
939,0.012412,-0.056865,0.004761
940,0.012412,-0.088413,-0.024086
941,-0.05649,-0.135736,-0.052934
942,0.058346,0.100876,0.004761
943,-0.010555,0.085102,-0.009662
944,0.035379,0.03778,0.004761
945,0.012412,0.069328,0.019185
946,0.035379,0.03778,0.019185
947,0.012412,0.022005,0.004761
948,-0.010555,-0.009543,-0.009662
949,-0.033523,-0.009543,-0.024086
950,-0.033523,-0.009543,-0.024086
951,-0.010555,0.006231,0.048033
952,0.012412,0.006231,0.004761
953,0.058346,-0.009543,0.004761
954,0.012412,0.022005,0.004761
955,0.012412,0.053554,-0.009662
956,-0.05649,0.03778,-0.009662
957,-0.05649,0.022005,0.019185
958,-0.079457,-0.072639,0.004761
959,-0.05649,-0.072639,-0.024086
960,-0.033523,-0.072639,-0.024086
961,-0.033523,-0.041091,-0.03851
962,-0.033523,-0.009543,-0.009662
963,-0.05649,-0.041091,-0.009662
964,-0.033523,-0.009543,-0.024086
965,0.012412,-0.025317,-0.03851
966,0.035379,-0.009543,0.004761
967,-0.033523,-0.009543,0.004761
968,-0.010555,0.085102,0.019185
969,0.035379,0.11665,0.004761
970,-0.033523,0.053554,0.004761
971,-0.102424,-0.088413,-0.024086
972,-0.010555,-0.025317,-0.009662
973,0.058346,0.085102,-0.024086
974,0.035379,-0.072639,-0.024086
975,-0.010555,-0.056865,0.019185
976,-0.05649,0.022005,0.019185
977,-0.033523,0.100876,0.004761
978,-0.033523,-0.009543,-0.009662
979,-0.033523,0.006231,-0.009662
980,0.10428,-0.009543,-0.009662
981,0.081313,-0.072639,-0.024086
982,0.012412,-0.119962,-0.009662
983,-0.033523,-0.056865,0.004761
984,0.081313,-0.009543,0.004761
985,0.012412,-0.009543,-0.009662
986,0.012412,-0.009543,-0.009662
987,-0.010555,0.006231,-0.009662
988,-0.05649,0.022005,-0.009662
989,-0.010555,-0.041091,0.004761
990,-0.010555,-0.072639,-0.009662
991,-0.102424,-0.025317,-0.009662
992,-0.05649,0.006231,-0.024086
993,0.012412,0.006231,-0.009662
994,-0.033523,0.085102,-0.009662
995,-0.05649,0.03778,-0.009662
996,-0.05649,0.022005,-0.009662
997,-0.033523,0.006231,-0.009662
998,-0.010555,-0.009543,0.004761
999,-0.05649,-0.009543,0.004761
1000,-0.033523,-0.009543,0.004761
1001,0.035379,-0.025317,0.019185
1002,-0.010555,-0.009543,0.019185
1003,-0.05649,-0.009543,0.004761
1004,-0.033523,-0.041091,-0.009662
1005,-0.010555,-0.072639,-0.009662
1006,-0.010555,-0.072639,-0.009662
1007,-0.033523,-0.009543,0.019185
1008,-0.033523,0.006231,-0.009662
1009,0.012412,-0.009543,-0.024086
1010,0.012412,-0.009543,-0.024086
1011,-0.05649,-0.009543,0.004761
1012,-0.010555,-0.009543,-0.009662
1013,0.012412,-0.009543,0.004761
1014,0.035379,-0.056865,-0.009662
1015,0.035379,0.006231,-0.009662
1016,0.035379,0.053554,-0.009662
1017,0.035379,-0.009543,-0.009662
1018,0.012412,-0.009543,-0.009662
1019,-0.033523,-0.025317,-0.024086
1020,0.058346,-0.025317,-0.03851
1021,-0.033523,-0.025317,-0.009662
1022,-0.010555,-0.025317,-0.009662
1023,-0.010555,0.006231,0.033609
1024,0.035379,0.006231,0.004761
1025,0.012412,-0.009543,-0.009662
1026,0.012412,-0.025317,-0.024086
1027,-0.079457,-0.025317,-0.009662
1028,-0.010555,-0.009543,-0.009662
1029,-0.010555,-0.025317,0.004761
1030,0.012412,0.006231,0.019185
1031,-0.079457,-0.009543,-0.024086
1032,-0.010555,-0.025317,-0.009662
1033,-0.033523,-0.025317,-0.009662
1034,0.012412,0.006231,0.019185
1035,0.058346,-0.025317,-0.024086
1036,-0.05649,-0.009543,-0.009662
1037,-0.05649,-0.025317,-0.024086
1038,-0.079457,-0.025317,-0.009662
1039,-0.033523,-0.009543,0.048033
1040,-0.033523,0.006231,-0.024086
1041,-0.010555,-0.009543,-0.009662
1042,-0.010555,0.006231,0.004761
1043,0.035379,-0.025317,-0.009662
1044,0.035379,-0.025317,-0.009662
1045,0.058346,-0.025317,0.019185
1046,0.035379,-0.009543,-0.009662
1047,0.035379,-0.025317,-0.009662
1048,0.058346,-0.009543,-0.024086
1049,0.012412,-0.025317,0.019185
1050,-0.010555,-0.009543,0.004761
1051,0.035379,0.006231,0.019185
1052,0.058346,-0.009543,-0.009662
1053,0.012412,-0.009543,-0.009662
1054,-0.010555,-0.009543,-0.024086
1055,-0.010555,-0.009543,0.004761
1056,-0.010555,-0.025317,-0.024086
1057,-0.033523,-0.025317,0.004761
1058,-0.05649,-0.025317,0.019185
1059,0.012412,-0.025317,0.004761
1060,0.035379,-0.025317,0.019185
1061,-0.033523,-0.041091,-0.024086
1062,0.012412,-0.025317,-0.024086
1063,-0.010555,-0.009543,0.019185
1064,0.035379,-0.025317,0.004761
1065,-0.05649,-0.056865,-0.009662
1066,-0.033523,-0.009543,-0.009662
1067,-0.010555,-0.009543,0.004761
1068,-0.010555,0.006231,-0.024086
1069,-0.010555,-0.025317,0.019185
1070,-0.079457,-0.056865,0.019185
1071,-0.079457,-0.041091,-0.009662
1072,-0.010555,-0.025317,-0.009662
1073,-0.010555,-0.025317,-0.009662
1074,0.012412,-0.009543,-0.009662
1075,0.012412,0.053554,-0.024086
1076,0.035379,0.03778,-0.009662
1077,-0.010555,0.006231,0.004761
1078,-0.010555,0.006231,0.004761
1079,0.012412,-0.009543,0.019185
1080,0.012412,0.006231,0.004761
1081,0.035379,0.022005,-0.009662
1082,-0.033523,0.006231,0.004761
1083,-0.05649,-0.009543,0.004761
1084,0.035379,-0.009543,-0.009662
1085,0.012412,-0.025317,0.004761
1086,0.10428,-0.025317,0.033609
1087,0.012412,-0.009543,0.004761
1088,0.035379,0.006231,0.004761
1089,-0.010555,-0.025317,-0.03851
1090,0.012412,-0.025317,-0.009662
1091,0.012412,0.006231,-0.009662
1092,0.012412,-0.041091,-0.009662
1093,-0.033523,-0.025317,-0.024086
1094,-0.010555,-0.009543,-0.009662
1095,0.012412,-0.025317,0.004761
1096,-0.033523,0.006231,0.019185
1097,-0.05649,-0.009543,-0.009662
1098,0.012412,-0.041091,0.004761
1099,-0.05649,-0.025317,-0.009662
1100,-0.033523,-0.009543,-0.009662
1101,-0.033523,-0.009543,-0.024086
1102,-0.033523,-0.009543,0.004761
1103,0.012412,-0.009543,0.004761
1104,-0.033523,0.006231,0.019185
1105,0.012412,-0.009543,0.004761
1106,-0.05649,-0.025317,0.004761
1107,0.012412,-0.025317,-0.009662
1108,-0.010555,-0.041091,-0.024086
1109,-0.010555,-0.009543,-0.03851
1110,-0.010555,-0.025317,-0.009662
1111,0.035379,-0.025317,0.004761
1112,-0.010555,-0.009543,-0.024086
1113,-0.033523,-0.009543,-0.024086
1114,0.012412,-0.009543,0.004761
1115,0.012412,-0.009543,-0.009662
1116,0.127248,-0.025317,-0.009662
1117,0.035379,0.006231,-0.009662
1118,0.035379,0.006231,0.019185
1119,-0.033523,-0.009543,0.019185
1120,-0.010555,-0.041091,-0.009662
1121,-0.010555,-0.041091,-0.009662
1122,0.035379,0.006231,-0.009662
1123,0.012412,-0.025317,0.019185
1124,0.035379,-0.025317,0.004761
1125,0.012412,-0.009543,0.004761
1126,-0.010555,-0.009543,0.004761
1127,-0.010555,-0.025317,-0.009662
1128,-0.010555,-0.025317,-0.024086
1129,-0.05649,0.006231,-0.009662
1130,-0.033523,-0.009543,-0.009662
1131,-0.010555,-0.009543,0.004761
1132,-0.010555,-0.009543,0.004761
1133,-0.033523,-0.041091,0.004761
1134,-0.010555,-0.009543,-0.009662
1135,0.012412,-0.009543,0.004761
1136,-0.010555,-0.009543,0.004761
1137,-0.033523,0.006231,-0.009662
1138,-0.033523,-0.009543,0.019185
1139,0.012412,-0.009543,0.004761
1140,-0.033523,-0.009543,-0.009662
1141,-0.079457,-0.009543,-0.009662
1142,0.012412,0.006231,0.019185
1143,-0.05649,-0.025317,-0.03851
1144,-0.05649,-0.041091,-0.009662
1145,-0.05649,-0.041091,0.004761
1146,-0.05649,-0.009543,-0.009662
1147,0.035379,-0.009543,-0.009662
1148,-0.033523,-0.041091,-0.009662
1149,-0.010555,-0.025317,-0.009662
1150,-0.010555,-0.009543,0.019185
1151,0.035379,-0.009543,0.033609
1152,0.035379,0.006231,0.019185
1153,0.058346,-0.025317,0.004761
1154,-0.010555,-0.009543,-0.009662
1155,0.012412,-0.009543,-0.009662
1156,0.058346,-0.009543,-0.009662
1157,0.012412,-0.009543,-0.024086
1158,0.012412,-0.025317,-0.009662
1159,0.035379,-0.009543,-0.009662
1160,0.012412,-0.009543,0.004761
1161,-0.010555,-0.009543,0.004761
1162,0.012412,-0.009543,0.019185
1163,0.058346,-0.009543,-0.009662
1164,0.012412,-0.025317,-0.009662
1165,-0.05649,-0.009543,-0.009662
1166,-0.033523,0.006231,-0.009662
1167,-0.010555,-0.009543,0.004761
1168,-0.010555,-0.009543,-0.009662
1169,-0.010555,-0.009543,0.004761
1170,0.058346,0.006231,0.019185
1171,0.012412,-0.025317,-0.024086
1172,-0.05649,-0.025317,-0.009662
1173,-0.033523,-0.009543,0.019185
1174,-0.033523,0.006231,0.004761
1175,-0.010555,-0.009543,0.004761
1176,-0.033523,-0.009543,0.033609
1177,-0.033523,0.006231,0.033609
1178,-0.033523,-0.009543,-0.009662
1179,-0.05649,-0.009543,-0.024086
1180,-0.033523,-0.025317,0.004761
1181,-0.033523,-0.025317,0.004761
1182,-0.010555,-0.009543,-0.024086
1183,0.035379,-0.025317,0.004761
1184,-0.010555,-0.009543,0.004761
1185,-0.010555,-0.009543,0.004761
1186,0.012412,-0.009543,-0.009662
1187,0.012412,-0.041091,-0.009662
1188,0.035379,-0.009543,0.004761
1189,0.012412,-0.009543,0.019185
1190,-0.010555,-0.009543,0.004761
1191,-0.010555,0.006231,0.019185
1192,-0.033523,-0.009543,0.019185
1193,-0.033523,0.006231,0.004761
1194,0.035379,-0.041091,-0.009662
1195,0.012412,-0.009543,0.004761
1196,0.012412,-0.009543,0.019185
1197,0.058346,-0.009543,0.004761
1198,-0.010555,-0.025317,-0.009662
1199,0.012412,-0.025317,0.004761
1200,0.012412,-0.009543,-0.024086
1201,0.012412,-0.025317,-0.024086
1202,0.035379,-0.041091,-0.03851
1203,-0.033523,-0.025317,-0.024086
1204,-0.033523,-0.009543,-0.009662
1205,-0.033523,-0.009543,0.004761
1206,-0.010555,-0.009543,0.019185
1207,-0.010555,-0.009543,0.019185
1208,-0.010555,-0.009543,-0.009662
1209,-0.033523,-0.009543,0.004761
1210,-0.033523,-0.009543,-0.009662
1211,-0.010555,-0.041091,0.004761
1212,-0.033523,-0.025317,0.019185
1213,0.012412,-0.025317,0.004761
1214,0.012412,0.006231,0.004761
1215,-0.033523,-0.025317,0.004761
1216,-0.010555,-0.041091,0.004761
1217,-0.010555,0.006231,0.004761
1218,-0.010555,-0.025317,0.004761
1219,-0.05649,-0.009543,0.004761
1220,-0.033523,-0.025317,-0.009662
1221,-0.033523,-0.009543,-0.009662
1222,0.012412,-0.009543,0.004761
1223,-0.010555,-0.009543,0.004761
1224,0.012412,-0.009543,-0.009662
1225,-0.010555,-0.009543,-0.009662
1226,0.058346,-0.009543,-0.009662
1227,0.035379,-0.009543,-0.009662
1228,-0.033523,-0.025317,0.019185
1229,0.035379,0.006231,0.019185
1230,0.035379,-0.009543,0.019185
1231,0.035379,-0.025317,-0.009662
1232,0.058346,0.006231,-0.009662
1233,0.035379,0.006231,-0.009662
1234,-0.010555,-0.009543,-0.009662
1235,-0.033523,-0.009543,-0.009662
1236,-0.033523,-0.041091,0.004761
1237,-0.010555,-0.025317,0.004761
1238,-0.010555,-0.025317,0.004761
1239,-0.033523,-0.009543,0.004761
1240,-0.033523,-0.025317,0.019185
1241,0.012412,-0.025317,0.004761
1242,0.012412,-0.009543,-0.009662
1243,-0.010555,-0.009543,0.004761
1244,0.012412,-0.041091,0.004761
1245,-0.033523,-0.009543,0.004761
1246,-0.010555,0.022005,0.004761
1247,-0.010555,0.006231,0.004761
1248,-0.05649,-0.025317,0.004761
1249,-0.033523,-0.009543,0.019185
1250,-0.05649,-0.009543,0.004761
1251,-0.033523,0.006231,0.004761
1252,-0.033523,-0.009543,-0.009662
1253,-0.010555,-0.025317,0.004761
1254,0.012412,-0.041091,-0.009662
1255,-0.033523,0.006231,-0.009662
1256,-0.010555,0.006231,-0.009662
1257,0.035379,0.006231,-0.009662
1258,0.012412,-0.009543,0.019185
1259,-0.010555,-0.025317,0.004761
1260,-0.033523,-0.025317,-0.009662
1261,0.012412,-0.025317,-0.009662
1262,0.012412,-0.009543,-0.009662
1263,-0.033523,-0.025317,-0.024086
1264,0.012412,-0.009543,0.004761
1265,0.012412,-0.025317,-0.009662
1266,0.035379,-0.009543,0.004761
1267,-0.010555,-0.009543,0.004761
1268,0.012412,0.006231,0.004761
1269,0.012412,0.006231,0.004761
1270,0.035379,-0.009543,-0.009662
1271,0.012412,-0.009543,-0.009662
1272,-0.010555,-0.009543,-0.009662
1273,-0.033523,-0.041091,-0.009662
1274,-0.033523,-0.025317,-0.009662
1275,0.012412,-0.025317,-0.024086
1276,-0.010555,-0.025317,-0.009662
1277,0.012412,-0.025317,-0.024086
1278,-0.05649,-0.009543,-0.009662
1279,-0.033523,-0.025317,-0.009662
1280,-0.033523,-0.009543,0.019185
1281,0.012412,-0.025317,-0.009662
1282,-0.010555,0.006231,0.019185
1283,0.035379,-0.025317,-0.009662
1284,-0.010555,-0.009543,0.004761
1285,-0.033523,-0.009543,0.004761
1286,-0.033523,-0.025317,0.004761
1287,-0.05649,-0.025317,-0.009662
1288,-0.05649,0.006231,-0.009662
1289,-0.010555,0.006231,-0.009662
1290,-0.010555,0.006231,0.004761
1291,-0.010555,-0.009543,-0.009662
1292,-0.010555,-0.025317,0.004761
1293,0.012412,-0.025317,0.004761
1294,-0.05649,-0.009543,0.004761
1295,-0.033523,-0.009543,0.004761
1296,0.012412,-0.009543,0.004761
1297,0.012412,-0.009543,0.019185
1298,0.012412,-0.009543,0.004761
1299,-0.010555,-0.009543,0.004761
1300,0.035379,0.006231,0.004761
1301,0.081313,-0.025317,-0.009662
1302,-0.010555,-0.025317,0.004761
1303,0.012412,-0.009543,0.004761
1304,0.012412,0.006231,0.019185
1305,-0.010555,-0.009543,0.019185
1306,0.035379,-0.025317,-0.009662
1307,-0.010555,-0.025317,0.004761
1308,-0.033523,-0.025317,-0.009662
1309,-0.010555,-0.025317,-0.009662
1310,-0.010555,-0.025317,-0.009662
1311,0.035379,-0.025317,-0.009662
1312,0.035379,-0.009543,-0.009662
1313,0.012412,-0.009543,0.004761
1314,0.012412,-0.025317,0.004761
1315,0.035379,-0.009543,0.019185
1316,-0.010555,-0.025317,0.019185
1317,0.035379,-0.009543,0.033609
1318,0.058346,-0.009543,0.019185
1319,-0.079457,0.006231,0.019185
1320,-0.010555,-0.025317,0.004761
1321,0.012412,-0.025317,0.004761
1322,0.035379,-0.009543,0.004761
1323,0.012412,-0.009543,0.004761
1324,-0.010555,-0.009543,0.004761
1325,-0.033523,-0.009543,-0.024086
1326,-0.033523,-0.009543,-0.009662
1327,-0.033523,-0.025317,-0.009662
1328,-0.033523,-0.009543,0.004761
1329,-0.010555,-0.025317,-0.009662
1330,-0.05649,-0.009543,0.004761
1331,-0.033523,-0.025317,-0.009662
1332,0.012412,-0.041091,0.004761
1333,0.035379,-0.025317,-0.009662
1334,-0.010555,-0.009543,0.004761
1335,-0.033523,-0.025317,0.004761
1336,0.012412,0.006231,0.033609
1337,0.012412,-0.009543,-0.009662
1338,0.035379,-0.009543,0.004761
1339,-0.010555,-0.009543,0.004761
1340,0.012412,-0.009543,-0.009662
1341,0.035379,-0.009543,0.004761
1342,0.012412,-0.009543,0.004761
1343,-0.033523,-0.009543,-0.009662
1344,0.012412,-0.041091,-0.009662
1345,0.012412,0.006231,0.004761
1346,0.012412,-0.025317,0.004761
1347,0.012412,-0.009543,0.004761
1348,0.035379,-0.025317,0.004761
1349,0.012412,-0.009543,-0.03851
1350,0.035379,-0.009543,0.004761
1351,-0.010555,0.006231,0.004761
1352,-0.033523,-0.025317,-0.009662
1353,0.035379,-0.025317,-0.024086
1354,0.012412,-0.025317,-0.024086
1355,-0.010555,-0.025317,-0.024086
1356,0.035379,-0.041091,-0.009662
1357,0.035379,-0.025317,-0.024086
1358,0.035379,-0.009543,0.004761
1359,-0.033523,-0.009543,0.019185
1360,-0.010555,-0.009543,0.019185
1361,0.012412,-0.009543,0.019185
1362,-0.010555,-0.009543,0.019185
1363,-0.010555,-0.009543,0.019185
1364,-0.010555,-0.009543,0.004761
1365,0.035379,-0.009543,-0.009662
1366,-0.010555,-0.009543,-0.009662
1367,-0.033523,-0.025317,-0.009662
1368,-0.05649,-0.025317,-0.024086
1369,0.012412,-0.025317,0.019185
1370,0.012412,0.006231,0.004761
1371,-0.033523,0.006231,0.004761
1372,-0.010555,-0.009543,-0.009662
1373,0.012412,-0.009543,0.004761
1374,0.012412,-0.009543,-0.009662
1375,-0.079457,-0.009543,0.019185
1376,-0.010555,-0.009543,0.004761
1377,0.012412,-0.009543,0.004761
1378,0.012412,-0.025317,0.004761
1379,-0.033523,-0.009543,0.019185
1380,0.012412,-0.009543,0.033609
1381,0.035379,0.006231,0.019185
1382,0.012412,-0.025317,0.004761
1383,-0.010555,-0.009543,0.004761
1384,-0.010555,-0.009543,-0.009662
1385,0.035379,-0.009543,-0.009662
1386,-0.010555,-0.009543,0.004761
1387,-0.033523,-0.009543,0.004761
1388,0.035379,0.006231,-0.009662
1389,0.012412,-0.025317,0.004761
1390,0.012412,-0.025317,-0.009662
1391,-0.010555,-0.009543,-0.009662
1392,-0.010555,-0.009543,-0.009662
1393,0.012412,-0.025317,0.004761
1394,-0.010555,-0.009543,-0.009662
1395,0.058346,-0.025317,-0.024086
1396,0.035379,-0.025317,-0.024086
1397,-0.010555,-0.009543,-0.024086
1398,0.012412,-0.025317,0.004761
1399,-0.010555,-0.025317,0.004761
1400,-0.010555,0.006231,-0.009662
1401,-0.05649,-0.025317,0.004761
1402,-0.033523,0.006231,0.004761
1403,0.012412,-0.009543,-0.009662
1404,-0.033523,0.006231,0.004761
1405,-0.010555,-0.025317,-0.009662
1406,-0.033523,-0.009543,0.004761
1407,-0.010555,-0.009543,-0.009662
1408,-0.033523,-0.041091,-0.009662
1409,0.012412,-0.025317,0.004761
1410,0.012412,0.022005,0.019185
1411,-0.033523,0.006231,0.019185
1412,0.012412,0.006231,0.004761
1413,-0.033523,0.006231,0.019185
1414,-0.033523,-0.009543,0.019185
1415,-0.05649,0.006231,0.004761
1416,0.035379,-0.009543,-0.009662
1417,0.035379,0.006231,0.004761
1418,0.012412,-0.025317,-0.009662
1419,-0.05649,-0.025317,-0.024086
1420,-0.010555,-0.009543,-0.009662
1421,0.012412,-0.009543,-0.024086
1422,-0.010555,-0.025317,-0.024086
1423,0.012412,-0.025317,-0.024086
1424,-0.010555,-0.025317,-0.009662
1425,0.035379,-0.025317,-0.009662
1426,0.058346,-0.025317,-0.024086
1427,-0.033523,-0.025317,-0.009662
1428,0.035379,-0.009543,-0.009662
1429,0.012412,-0.009543,0.019185
1430,0.012412,-0.009543,0.033609
1431,-0.010555,-0.025317,0.004761
1432,0.012412,-0.009543,0.004761
1433,0.035379,-0.025317,0.004761
1434,0.012412,-0.025317,-0.009662
1435,-0.010555,-0.009543,0.019185
1436,0.012412,-0.009543,-0.009662
1437,0.012412,0.006231,0.004761
1438,-0.010555,-0.009543,-0.009662
1439,0.012412,-0.009543,0.019185
1440,-0.033523,-0.009543,0.004761
1441,0.012412,-0.009543,0.004761
1442,-0.010555,-0.009543,0.048033
1443,0.012412,0.006231,0.033609
1444,-0.033523,-0.009543,0.033609
1445,0.012412,0.006231,0.033609
1446,-0.033523,-0.009543,0.019185
1447,-0.010555,-0.009543,0.004761
1448,-0.010555,-0.025317,-0.009662
1449,-0.05649,-0.025317,-0.009662
1450,-0.079457,-0.025317,-0.024086
1451,-0.033523,0.006231,-0.024086
1452,-0.05649,-0.009543,-0.009662
1453,-0.033523,-0.009543,-0.024086
1454,-0.079457,-0.025317,-0.009662
1455,-0.033523,0.006231,-0.009662
1456,0.012412,-0.025317,-0.024086
1457,-0.010555,-0.009543,0.004761
1458,-0.010555,-0.025317,0.004761
1459,0.012412,-0.009543,-0.009662
1460,0.035379,-0.009543,0.004761
1461,0.058346,0.006231,0.004761
1462,-0.010555,-0.025317,-0.009662
1463,-0.033523,-0.041091,-0.009662
1464,0.012412,-0.025317,-0.009662
1465,0.012412,-0.009543,-0.024086
1466,0.081313,-0.009543,-0.009662
1467,-0.010555,-0.009543,0.004761
1468,0.012412,-0.025317,-0.009662
1469,0.035379,-0.009543,-0.009662
1470,0.012412,-0.025317,-0.009662
1471,0.012412,-0.025317,0.004761
1472,0.035379,0.006231,0.004761
1473,0.035379,-0.025317,0.004761
1474,-0.010555,-0.025317,0.004761
1475,-0.010555,-0.009543,0.004761
1476,0.012412,-0.009543,-0.009662
1477,0.012412,-0.009543,0.019185
1478,-0.010555,0.006231,0.019185
1479,0.012412,-0.009543,0.004761
1480,0.035379,-0.009543,0.004761
1481,0.012412,-0.009543,0.004761
1482,-0.033523,-0.009543,0.004761
1483,-0.010555,-0.025317,-0.009662
1484,0.012412,-0.025317,-0.009662
1485,0.012412,-0.025317,-0.009662
1486,0.012412,-0.009543,-0.009662
1487,0.012412,-0.009543,-0.009662
1488,-0.033523,-0.009543,-0.009662
1489,-0.033523,-0.025317,0.004761
1490,0.012412,0.022005,0.004761
1491,-0.033523,-0.009543,0.019185
1492,0.012412,-0.009543,0.004761
1493,-0.010555,0.006231,-0.009662
1494,-0.033523,-0.009543,-0.009662
1495,-0.033523,0.006231,0.004761
1496,-0.05649,-0.009543,-0.024086
1497,0.058346,-0.009543,-0.009662
1498,-0.05649,-0.009543,0.004761
1499,-0.05649,-0.041091,0.004761
1500,-0.010555,-0.009543,0.004761
1501,0.012412,-0.009543,-0.009662
1502,0.012412,-0.041091,0.004761
1503,0.012412,0.006231,0.004761
1504,0.012412,-0.009543,0.004761
1505,0.035379,0.006231,0.004761
1506,0.012412,-0.009543,-0.009662
1507,0.012412,-0.009543,0.004761
1508,0.012412,-0.025317,0.019185
1509,0.058346,-0.041091,0.019185
1510,0.012412,-0.009543,0.004761
1511,0.012412,-0.009543,0.019185
1512,0.035379,0.069328,0.019185
1513,-0.010555,-0.009543,0.004761
1514,-0.010555,-0.009543,0.004761
1515,-0.033523,-0.025317,0.004761
1516,0.012412,-0.009543,-0.024086
1517,0.012412,-0.025317,-0.009662
1518,0.012412,-0.009543,-0.009662
1519,-0.010555,-0.025317,-0.024086
1520,0.035379,-0.009543,-0.009662
1521,-0.010555,0.006231,0.004761
1522,-0.033523,0.006231,-0.009662
1523,-0.033523,-0.009543,-0.009662
1524,-0.033523,-0.009543,0.004761
1525,-0.010555,-0.009543,0.004761
1526,-0.010555,-0.009543,0.019185
1527,-0.010555,0.006231,0.004761
1528,-0.010555,-0.025317,0.004761
1529,-0.010555,-0.025317,0.019185
1530,-0.033523,0.006231,0.004761
1531,-0.05649,-0.009543,0.033609
1532,-0.010555,-0.025317,-0.009662
1533,0.035379,-0.009543,-0.024086
1534,-0.010555,-0.041091,-0.009662
1535,-0.010555,-0.009543,-0.009662
1536,-0.010555,-0.009543,-0.009662
1537,0.035379,-0.025317,0.019185
1538,-0.033523,-0.009543,0.019185
1539,0.012412,-0.025317,0.004761
1540,0.012412,-0.009543,0.004761
1541,0.035379,-0.009543,0.004761
1542,-0.010555,-0.025317,-0.009662
1543,0.012412,-0.009543,-0.009662
1544,-0.010555,-0.025317,-0.009662
1545,0.012412,-0.009543,0.004761
1546,0.012412,-0.009543,0.004761
1547,0.012412,-0.009543,-0.009662
1548,-0.010555,-0.025317,-0.009662
1549,-0.010555,-0.009543,-0.009662
1550,-0.010555,-0.041091,-0.009662
1551,0.012412,-0.025317,0.004761
1552,0.012412,-0.025317,0.004761
1553,0.035379,-0.009543,0.004761
1554,0.012412,-0.009543,-0.009662
1555,-0.010555,-0.009543,-0.009662
1556,0.012412,-0.025317,0.004761
1557,0.035379,0.022005,-0.009662
1558,-0.010555,0.006231,-0.009662
1559,0.012412,-0.025317,0.004761
1560,0.035379,-0.009543,-0.024086
1561,-0.010555,-0.009543,-0.009662
1562,-0.010555,-0.009543,0.004761
1563,-0.05649,0.006231,0.004761
1564,-0.010555,-0.009543,0.033609
1565,-0.010555,0.006231,0.004761
1566,-0.010555,-0.025317,0.004761
1567,0.012412,-0.025317,-0.009662
1568,-0.010555,-0.009543,-0.009662
1569,-0.05649,-0.009543,-0.009662
1570,-0.033523,-0.025317,0.004761
1571,-0.010555,0.006231,-0.024086
1572,-0.033523,-0.009543,-0.009662
1573,-0.010555,0.006231,0.004761
1574,-0.010555,-0.009543,0.004761
1575,-0.010555,-0.009543,0.004761
1576,-0.010555,-0.009543,0.004761
1577,0.035379,-0.041091,0.004761
1578,-0.010555,0.006231,0.004761
1579,0.035379,-0.025317,-0.009662
1580,0.058346,-0.009543,0.004761
1581,0.058346,0.006231,0.004761
1582,-0.010555,-0.009543,0.019185
1583,0.012412,-0.025317,0.004761
1584,0.035379,-0.025317,0.019185
1585,-0.010555,-0.009543,0.004761
1586,-0.010555,0.006231,-0.009662
1587,0.035379,-0.009543,0.004761
1588,0.035379,0.006231,-0.009662
1589,-0.010555,-0.025317,0.004761
1590,-0.010555,-0.009543,0.004761
1591,-0.010555,-0.009543,0.019185
1592,0.012412,-0.009543,0.004761
1593,-0.010555,-0.009543,0.019185
1594,-0.033523,-0.009543,0.004761
1595,-0.010555,0.006231,0.004761
1596,-0.010555,0.006231,-0.009662
1597,0.012412,-0.025317,0.019185
1598,-0.033523,-0.009543,-0.009662
1599,-0.033523,-0.041091,-0.024086
1600,-0.010555,-0.009543,-0.009662
1601,-0.010555,-0.009543,0.004761
1602,-0.05649,-0.025317,0.004761
1603,-0.010555,0.006231,-0.009662
1604,-0.05649,-0.009543,0.004761
1605,-0.033523,-0.009543,0.033609
1606,-0.05649,-0.025317,0.004761
1607,-0.033523,-0.025317,0.019185
1608,0.012412,-0.009543,-0.024086
1609,-0.079457,-0.009543,-0.009662
1610,-0.010555,-0.009543,-0.024086
1611,-0.033523,-0.009543,0.004761
1612,0.035379,-0.009543,0.019185
1613,-0.033523,0.006231,0.019185
1614,-0.010555,-0.009543,0.019185
1615,0.035379,-0.009543,0.004761
1616,0.012412,-0.025317,-0.024086
1617,-0.010555,-0.009543,-0.009662
1618,-0.033523,-0.009543,-0.009662
1619,0.012412,-0.009543,-0.009662
1620,0.012412,-0.009543,0.004761
1621,0.035379,-0.009543,0.004761
1622,-0.010555,-0.025317,0.004761
1623,0.035379,0.022005,0.004761
1624,0.035379,-0.009543,0.019185
1625,0.012412,-0.009543,0.004761
1626,-0.033523,-0.009543,0.019185
1627,0.058346,-0.009543,-0.009662
1628,0.035379,-0.009543,-0.03851
1629,-0.033523,-0.025317,-0.024086
1630,-0.010555,-0.025317,0.004761
1631,0.058346,-0.025317,0.004761
1632,0.035379,-0.009543,-0.009662
1633,-0.033523,-0.025317,-0.009662
1634,-0.033523,-0.009543,-0.009662
1635,0.012412,-0.009543,0.004761
1636,-0.010555,0.069328,0.004761
1637,-0.010555,-0.009543,0.019185
1638,-0.010555,-0.009543,-0.009662
1639,-0.010555,-0.009543,0.004761
1640,-0.010555,-0.009543,0.004761
1641,-0.033523,-0.009543,0.004761
1642,-0.010555,0.006231,0.004761
1643,-0.010555,0.006231,0.019185
1644,-0.010555,0.022005,0.004761
1645,-0.05649,-0.009543,-0.009662
1646,-0.010555,-0.025317,0.004761
1647,0.035379,-0.041091,0.004761
1648,0.035379,-0.009543,0.004761
1649,-0.033523,-0.009543,0.004761
1650,-0.033523,-0.009543,0.004761
1651,-0.010555,-0.009543,-0.009662
1652,0.012412,-0.025317,-0.024086
1653,-0.010555,0.006231,-0.009662
1654,-0.010555,0.006231,0.004761
1655,0.035379,0.006231,0.004761
1656,0.081313,0.006231,0.004761
1657,0.012412,-0.025317,-0.009662
1658,0.012412,-0.009543,0.004761
1659,0.012412,-0.009543,-0.009662
1660,0.012412,0.006231,-0.009662
1661,-0.010555,-0.009543,0.004761
1662,0.012412,-0.009543,0.004761
1663,0.035379,-0.009543,-0.009662
1664,0.012412,-0.009543,0.004761
1665,-0.010555,-0.009543,0.004761
1666,0.081313,-0.009543,0.019185
1667,-0.033523,-0.009543,0.004761
1668,-0.010555,-0.009543,-0.009662
1669,-0.033523,0.006231,-0.009662
1670,-0.033523,-0.025317,0.004761
1671,0.012412,-0.025317,-0.009662
1672,-0.010555,-0.009543,-0.009662
1673,-0.033523,-0.009543,0.004761
1674,0.035379,-0.009543,-0.009662
1675,-0.010555,-0.009543,0.004761
1676,-0.010555,-0.009543,-0.009662
1677,-0.05649,-0.009543,0.004761
1678,0.012412,-0.009543,0.033609
1679,0.012412,-0.009543,0.033609
1680,-0.033523,-0.025317,0.004761
1681,-0.033523,0.006231,0.019185
1682,0.035379,-0.009543,0.004761
1683,0.012412,-0.009543,0.004761
1684,0.012412,-0.009543,-0.009662
1685,0.012412,-0.025317,-0.009662
1686,-0.033523,-0.025317,-0.009662
1687,0.035379,-0.009543,-0.009662
1688,0.035379,-0.009543,-0.024086
1689,0.012412,-0.009543,-0.024086
1690,-0.010555,-0.025317,-0.009662
1691,0.012412,-0.009543,-0.009662
1692,0.012412,-0.009543,-0.009662
1693,0.035379,-0.009543,0.048033
1694,0.058346,-0.025317,0.004761
1695,0.012412,-0.009543,0.004761
1696,0.035379,-0.009543,0.019185
1697,0.035379,-0.009543,-0.009662
1698,0.035379,-0.025317,0.004761
1699,0.058346,0.006231,0.004761
1700,-0.010555,-0.009543,0.019185
1701,-0.010555,0.022005,0.019185
1702,0.012412,-0.009543,0.004761
1703,-0.010555,-0.009543,0.004761
1704,-0.033523,-0.009543,0.004761
1705,-0.033523,-0.009543,-0.009662
1706,0.035379,-0.009543,0.019185
1707,-0.010555,-0.009543,0.004761
1708,-0.010555,-0.009543,0.004761
1709,-0.079457,-0.041091,-0.009662
1710,-0.05649,-0.009543,-0.009662
1711,0.012412,-0.025317,-0.009662
1712,-0.010555,-0.009543,0.004761
1713,-0.033523,-0.009543,0.004761
1714,0.012412,-0.009543,0.004761
1715,-0.010555,-0.009543,0.004761
1716,-0.05649,-0.009543,0.004761
1717,-0.010555,0.006231,-0.009662
1718,-0.033523,-0.009543,-0.009662
1719,-0.010555,-0.025317,-0.024086
1720,-0.033523,-0.009543,-0.009662
1721,-0.010555,0.006231,-0.009662
1722,0.035379,-0.009543,-0.024086
1723,0.012412,-0.025317,-0.024086
1724,-0.033523,-0.009543,-0.009662
1725,0.035379,-0.009543,0.004761
1726,0.058346,-0.041091,0.019185
1727,0.012412,-0.009543,0.019185
1728,-0.010555,0.006231,0.019185
1729,0.058346,-0.009543,0.004761
1730,0.012412,-0.025317,0.004761
1731,0.012412,-0.009543,0.004761
1732,0.035379,-0.009543,0.004761
1733,0.035379,-0.009543,0.004761
1734,0.012412,-0.009543,-0.009662
1735,0.012412,-0.041091,0.004761
1736,0.012412,-0.025317,0.004761
1737,0.035379,-0.009543,-0.009662
1738,-0.033523,0.006231,0.004761
1739,0.012412,-0.009543,-0.009662
1740,-0.010555,-0.009543,0.004761
1741,-0.033523,-0.009543,-0.009662
1742,0.012412,-0.025317,-0.024086
1743,0.035379,-0.025317,-0.009662
1744,-0.05649,-0.025317,-0.024086
1745,-0.05649,-0.009543,-0.009662
1746,0.035379,-0.009543,-0.024086
1747,-0.033523,0.006231,-0.009662
1748,-0.033523,-0.009543,0.004761
1749,0.012412,-0.009543,0.004761
1750,-0.010555,-0.009543,0.019185
1751,-0.033523,0.006231,0.004761
1752,0.012412,-0.009543,0.004761
1753,-0.010555,-0.009543,-0.009662
1754,0.012412,-0.025317,0.004761
1755,-0.010555,-0.009543,-0.009662
1756,-0.010555,0.006231,0.004761
1757,-0.010555,0.006231,0.004761
1758,0.012412,-0.009543,0.004761
1759,-0.010555,-0.009543,0.004761
1760,-0.010555,-0.009543,-0.024086
1761,0.012412,-0.009543,-0.024086
1762,0.012412,-0.009543,0.004761
1763,-0.010555,-0.009543,0.048033
1764,-0.010555,-0.025317,0.004761
1765,0.012412,-0.009543,-0.009662
1766,0.035379,-0.009543,0.004761
1767,-0.010555,0.006231,0.004761
1768,0.058346,-0.025317,-0.009662
1769,0.035379,-0.009543,-0.009662
1770,-0.033523,-0.009543,0.004761
1771,-0.010555,-0.009543,-0.009662
1772,0.012412,-0.009543,-0.009662
1773,0.012412,-0.009543,0.004761
1774,0.012412,-0.009543,0.004761
1775,-0.033523,-0.009543,0.004761
1776,-0.033523,-0.009543,-0.009662
1777,0.058346,-0.009543,-0.009662
1778,0.035379,-0.009543,-0.009662
1779,0.035379,-0.009543,-0.009662
1780,-0.05649,-0.025317,0.004761
1781,-0.010555,-0.025317,0.019185
1782,-0.033523,-0.009543,0.033609
1783,-0.033523,-0.009543,0.019185
1784,-0.033523,-0.009543,0.019185
1785,-0.010555,0.006231,-0.009662
1786,0.012412,-0.009543,0.004761
1787,0.012412,0.006231,0.004761
1788,0.012412,-0.009543,0.004761
1789,0.012412,-0.025317,0.004761
1790,-0.033523,-0.025317,-0.009662
1791,-0.033523,-0.009543,-0.009662
1792,-0.010555,-0.009543,0.004761
1793,-0.010555,-0.009543,-0.009662
1794,0.012412,0.022005,-0.009662
1795,-0.010555,-0.025317,0.004761
1796,0.035379,-0.025317,0.019185
1797,0.012412,-0.009543,0.004761
1798,0.035379,-0.009543,0.019185
1799,-0.010555,-0.009543,0.004761
1800,0.012412,-0.009543,-0.009662
1801,0.012412,-0.025317,-0.009662
1802,-0.033523,-0.009543,-0.009662
1803,0.035379,-0.025317,-0.024086
1804,-0.010555,0.006231,0.004761
1805,-0.010555,0.006231,0.004761
1806,-0.010555,-0.009543,0.004761
1807,-0.010555,-0.009543,0.004761
1808,0.035379,-0.009543,0.004761
1809,-0.010555,0.006231,0.004761
1810,0.012412,-0.009543,0.019185
1811,-0.033523,-0.025317,0.004761
1812,-0.010555,-0.009543,0.004761
1813,0.012412,-0.025317,-0.009662
1814,-0.010555,-0.009543,-0.009662
1815,-0.033523,-0.025317,0.004761
1816,-0.010555,-0.009543,0.004761
1817,-0.05649,-0.009543,-0.009662
1818,-0.033523,-0.025317,0.004761
1819,-0.010555,-0.025317,0.004761
1820,0.012412,0.006231,-0.009662
1821,-0.033523,-0.009543,0.004761
1822,-0.05649,-0.025317,0.004761
1823,-0.010555,-0.041091,0.004761
1824,0.012412,-0.041091,-0.009662
1825,-0.010555,-0.025317,0.048033
1826,-0.010555,-0.009543,-0.009662
1827,-0.010555,-0.025317,-0.009662
1828,0.012412,-0.009543,-0.009662
1829,-0.010555,-0.041091,0.004761
1830,-0.010555,-0.009543,0.004761
1831,0.012412,-0.009543,0.004761
1832,0.035379,-0.025317,0.004761
1833,-0.010555,-0.009543,0.004761
1834,-0.05649,-0.009543,0.019185
1835,0.035379,-0.025317,-0.009662
1836,0.035379,0.006231,-0.009662
1837,0.035379,0.006231,-0.009662
1838,0.012412,-0.009543,-0.009662
1839,0.012412,-0.009543,0.004761
1840,0.012412,-0.025317,-0.009662
1841,0.012412,0.006231,-0.009662
1842,-0.033523,-0.025317,-0.009662
1843,-0.033523,-0.009543,-0.009662
1844,0.012412,-0.025317,0.004761
1845,-0.010555,0.006231,0.004761
1846,-0.010555,-0.025317,-0.03851
1847,-0.010555,-0.009543,-0.009662
1848,-0.010555,-0.025317,-0.009662
1849,-0.033523,0.006231,-0.009662
1850,-0.010555,-0.025317,-0.009662
1851,0.012412,-0.025317,-0.009662
1852,0.035379,-0.009543,0.004761
1853,-0.010555,-0.041091,0.004761
1854,-0.010555,-0.009543,0.004761
1855,0.012412,0.006231,0.004761
1856,0.012412,0.006231,0.004761
1857,-0.010555,-0.025317,0.004761
1858,0.012412,-0.009543,-0.009662
1859,-0.033523,-0.009543,-0.009662
1860,-0.010555,0.006231,-0.009662
1861,0.012412,0.006231,0.004761
1862,0.035379,-0.009543,0.019185
1863,0.012412,-0.009543,-0.009662
1864,0.035379,0.006231,-0.009662
1865,0.035379,-0.009543,-0.009662
1866,0.035379,-0.009543,-0.024086
1867,0.012412,-0.025317,-0.009662
1868,-0.010555,-0.009543,-0.024086
1869,-0.033523,-0.009543,-0.024086
1870,-0.010555,-0.025317,0.004761
1871,0.035379,-0.025317,0.004761
1872,0.012412,-0.009543,-0.009662
1873,-0.010555,-0.009543,0.019185
1874,-0.05649,-0.025317,0.019185
1875,-0.010555,0.006231,-0.009662
1876,-0.033523,0.006231,-0.009662
1877,-0.010555,-0.009543,0.019185
1878,-0.033523,-0.009543,0.019185
1879,-0.033523,-0.025317,0.004761
1880,0.012412,-0.009543,-0.009662
1881,-0.010555,-0.009543,0.004761
1882,0.012412,-0.009543,0.004761
1883,0.035379,-0.009543,0.004761
1884,-0.033523,-0.025317,-0.009662
1885,0.012412,-0.025317,0.004761
1886,-0.05649,-0.009543,-0.009662
1887,-0.010555,-0.009543,0.048033
1888,-0.033523,0.006231,-0.009662
1889,-0.033523,-0.009543,0.004761
1890,-0.010555,-0.025317,-0.024086
1891,0.035379,0.006231,0.004761
1892,0.012412,0.006231,0.004761
1893,-0.010555,-0.009543,0.004761
1894,-0.033523,-0.009543,0.004761
1895,-0.010555,0.006231,0.004761
1896,0.035379,-0.025317,-0.009662
1897,0.012412,-0.041091,0.004761
1898,0.058346,-0.009543,-0.009662
1899,0.012412,-0.025317,-0.009662
1900,0.035379,-0.025317,-0.009662
1901,-0.010555,-0.025317,0.004761
1902,0.035379,0.006231,-0.009662
1903,0.035379,-0.009543,0.004761
1904,-0.010555,-0.025317,0.004761
1905,0.012412,-0.009543,-0.009662
1906,-0.010555,-0.025317,0.004761
1907,0.058346,-0.009543,0.004761
1908,-0.010555,-0.025317,-0.009662
1909,0.012412,-0.025317,-0.009662
1910,0.012412,-0.009543,0.004761
1911,-0.033523,-0.041091,-0.009662
1912,-0.010555,0.006231,0.004761
1913,-0.033523,-0.009543,-0.009662
1914,0.012412,-0.009543,-0.009662
1915,-0.010555,0.022005,-0.009662
1916,-0.010555,-0.009543,-0.009662
1917,-0.010555,-0.025317,-0.009662
1918,-0.010555,-0.009543,0.004761
1919,-0.033523,-0.009543,0.019185
1920,-0.033523,-0.009543,0.019185
1921,0.012412,-0.009543,-0.009662
1922,-0.010555,-0.009543,0.004761
1923,-0.010555,-0.009543,-0.009662
1924,-0.033523,-0.009543,0.004761
1925,-0.033523,-0.025317,0.004761
1926,0.012412,-0.009543,0.019185
1927,0.058346,-0.009543,-0.009662
1928,-0.033523,-0.009543,0.004761
1929,0.012412,-0.025317,-0.009662
1930,-0.010555,-0.009543,-0.024086
1931,-0.010555,0.006231,0.004761
1932,-0.010555,-0.009543,0.004761
1933,0.035379,-0.009543,0.004761
1934,0.012412,-0.009543,-0.009662
1935,-0.010555,-0.025317,-0.009662
1936,-0.010555,-0.009543,-0.009662
1937,-0.010555,0.006231,-0.009662
1938,0.012412,0.006231,-0.009662
1939,0.035379,-0.009543,-0.009662
1940,0.012412,-0.025317,-0.009662
1941,0.058346,0.006231,-0.009662
1942,0.012412,-0.009543,0.004761
1943,0.012412,0.006231,-0.009662
1944,0.012412,-0.025317,0.004761
1945,0.035379,0.006231,-0.009662
1946,-0.010555,-0.009543,-0.024086
1947,0.012412,-0.025317,-0.024086
1948,-0.033523,-0.009543,0.019185
1949,-0.079457,-0.025317,-0.009662
1950,0.035379,-0.025317,-0.009662
1951,0.035379,-0.025317,0.004761
1952,-0.033523,0.006231,0.004761
1953,-0.010555,-0.025317,-0.009662
1954,0.035379,-0.025317,0.004761
1955,-0.102424,-0.009543,0.004761
1956,-0.010555,-0.009543,0.004761
1957,0.012412,-0.025317,-0.009662
1958,-0.010555,-0.009543,0.019185
1959,-0.05649,0.006231,0.004761
1960,-0.05649,0.006231,0.019185
1961,0.012412,-0.009543,0.004761
1962,-0.010555,0.006231,0.019185
1963,-0.010555,-0.009543,0.004761
1964,-0.010555,-0.009543,-0.009662
1965,0.012412,-0.009543,-0.009662
1966,0.012412,-0.025317,-0.024086
1967,0.035379,-0.009543,-0.024086
1968,-0.010555,-0.025317,-0.009662
1969,0.012412,-0.009543,0.004761
1970,0.035379,-0.025317,-0.009662
1971,0.012412,-0.009543,0.004761
1972,-0.010555,-0.025317,0.004761
1973,-0.010555,-0.025317,0.004761
1974,0.012412,-0.009543,0.004761
1975,-0.010555,-0.009543,0.004761
1976,0.012412,-0.009543,0.004761
1977,0.012412,-0.009543,-0.009662
1978,0.035379,-0.025317,-0.009662
1979,0.012412,-0.025317,-0.009662
1980,-0.010555,-0.009543,-0.024086
1981,0.012412,-0.009543,-0.024086
1982,-0.010555,-0.025317,0.004761
1983,-0.010555,-0.025317,-0.009662
1984,0.035379,-0.009543,0.004761
1985,0.035379,-0.009543,0.004761
1986,-0.033523,-0.009543,-0.009662
1987,0.012412,-0.009543,0.004761
1988,-0.033523,-0.009543,0.004761
1989,-0.010555,0.006231,-0.009662
1990,0.012412,-0.009543,-0.009662
1991,-0.010555,-0.025317,0.004761
1992,-0.010555,-0.009543,-0.009662
1993,-0.010555,-0.025317,-0.009662
1994,-0.102424,-0.025317,-0.024086
1995,-0.05649,-0.041091,-0.009662
1996,-0.010555,-0.025317,-0.009662
1997,-0.010555,-0.025317,-0.009662
1998,0.012412,-0.009543,0.004761
1999,-0.010555,0.006231,0.004761
2000,-0.010555,-0.009543,0.048033
2001,-0.010555,-0.009543,-0.009662
2002,-0.010555,-0.009543,0.004761
2003,-0.05649,-0.009543,0.004761
2004,-0.010555,0.006231,0.004761
2005,0.012412,0.006231,0.004761
2006,0.058346,-0.009543,0.004761
2007,0.012412,-0.009543,0.004761
2008,-0.033523,-0.009543,-0.009662
2009,0.012412,-0.009543,-0.009662
2010,0.012412,0.006231,-0.009662
2011,-0.010555,-0.009543,-0.009662
2012,0.058346,-0.009543,0.004761
2013,0.012412,-0.009543,0.004761
2014,0.012412,-0.009543,0.004761
2015,0.012412,-0.009543,-0.024086
2016,0.012412,-0.025317,-0.024086
2017,-0.010555,-0.025317,-0.024086
2018,-0.010555,-0.009543,-0.009662
2019,-0.033523,-0.025317,-0.009662
2020,-0.010555,0.006231,0.004761
2021,0.012412,-0.025317,0.004761
2022,-0.033523,-0.009543,0.004761
2023,-0.033523,-0.025317,0.004761
2024,-0.05649,-0.025317,0.019185
2025,0.012412,-0.009543,0.004761
2026,-0.05649,-0.009543,0.004761
2027,-0.033523,-0.025317,-0.009662
2028,0.035379,-0.025317,-0.009662
2029,0.035379,-0.009543,0.004761
2030,-0.010555,-0.009543,0.004761
2031,0.012412,-0.025317,-0.009662
2032,0.035379,0.006231,0.004761
2033,-0.010555,-0.025317,0.004761
2034,-0.079457,0.006231,-0.024086
2035,-0.010555,-0.025317,-0.024086
2036,0.012412,-0.025317,-0.009662
2037,0.035379,-0.009543,0.004761
2038,0.012412,0.006231,0.004761
2039,-0.010555,0.006231,-0.009662
2040,0.058346,-0.009543,-0.009662
2041,0.058346,-0.025317,-0.009662
2042,0.058346,0.006231,-0.009662
2043,0.035379,0.006231,0.004761
2044,0.012412,0.006231,0.004761
2045,0.035379,-0.009543,0.004761
2046,-0.010555,-0.009543,-0.009662
2047,-0.010555,-0.009543,0.004761
2048,0.035379,0.006231,-0.009662
2049,0.012412,-0.009543,0.004761
2050,0.035379,-0.009543,0.004761
2051,0.012412,0.006231,0.019185
2052,-0.010555,-0.025317,-0.009662
2053,-0.010555,-0.009543,0.004761
2054,-0.05649,-0.056865,-0.009662
2055,-0.079457,-0.025317,-0.009662
2056,-0.05649,-0.009543,-0.024086
2057,-0.010555,-0.009543,-0.024086
2058,-0.033523,-0.025317,-0.009662
2059,-0.05649,-0.009543,-0.009662
2060,0.012412,-0.041091,-0.009662
2061,-0.102424,-0.025317,-0.009662
2062,-0.033523,-0.025317,-0.009662
2063,-0.079457,-0.025317,-0.03851
2064,-0.010555,0.006231,-0.03851
2065,-0.033523,-0.009543,-0.009662
2066,-0.05649,-0.041091,0.019185
2067,-0.05649,-0.009543,0.004761
2068,0.012412,0.006231,0.004761
2069,0.012412,-0.009543,0.004761
2070,-0.010555,0.006231,-0.009662
2071,0.012412,-0.025317,0.004761
2072,0.012412,0.006231,0.019185
2073,0.035379,-0.009543,0.019185
2074,0.035379,-0.009543,0.019185
2075,0.012412,-0.009543,-0.009662
2076,0.035379,-0.009543,-0.009662
2077,0.035379,-0.009543,0.004761
2078,0.012412,-0.041091,0.019185
2079,-0.010555,-0.009543,-0.009662
2080,0.012412,-0.009543,-0.009662
2081,0.012412,-0.025317,-0.024086
2082,0.035379,-0.025317,-0.024086
2083,0.035379,-0.025317,-0.009662
2084,0.035379,-0.025317,-0.009662
2085,-0.010555,-0.009543,0.004761
2086,-0.033523,-0.009543,0.004761
2087,-0.010555,-0.009543,0.004761
2088,0.012412,-0.025317,0.004761
2089,0.012412,0.006231,0.019185
2090,-0.033523,-0.009543,-0.009662
2091,-0.05649,-0.025317,-0.009662
2092,0.012412,-0.009543,-0.009662
2093,0.012412,0.006231,0.019185
2094,-0.033523,-0.025317,-0.024086
2095,-0.05649,0.006231,-0.009662
2096,-0.033523,-0.009543,-0.009662
2097,-0.010555,-0.025317,-0.009662
2098,-0.033523,0.006231,0.004761
2099,-0.033523,0.006231,-0.009662
2100,0.012412,0.022005,-0.024086
2101,-0.033523,0.006231,-0.009662
2102,-0.033523,-0.025317,-0.024086
2103,0.012412,-0.009543,-0.009662
2104,-0.010555,-0.009543,0.019185
2105,-0.010555,0.006231,-0.009662
2106,-0.010555,0.006231,-0.009662
2107,0.012412,-0.025317,0.004761
2108,0.012412,-0.009543,0.019185
2109,0.012412,0.006231,0.004761
2110,0.035379,-0.009543,-0.009662
2111,0.035379,-0.009543,0.004761
2112,0.035379,0.006231,0.019185
2113,-0.010555,0.022005,0.004761
2114,-0.010555,0.006231,-0.009662
2115,0.012412,0.006231,0.019185
2116,0.012412,-0.009543,0.019185
2117,0.035379,-0.025317,-0.024086
2118,-0.010555,-0.025317,-0.009662
2119,0.058346,-0.041091,-0.024086
2120,-0.010555,0.006231,0.004761
2121,-0.05649,-0.041091,-0.009662
2122,-0.033523,-0.009543,-0.009662
2123,-0.010555,-0.009543,-0.009662
2124,-0.033523,-0.025317,-0.009662
2125,0.012412,-0.041091,-0.009662
2126,-0.079457,-0.025317,-0.009662
2127,0.035379,-0.025317,0.004761
2128,0.035379,-0.009543,-0.009662
2129,-0.010555,-0.009543,-0.009662
2130,-0.010555,0.006231,-0.009662
2131,0.035379,-0.025317,0.004761
2132,-0.010555,-0.009543,0.019185
2133,-0.033523,-0.009543,0.004761
2134,-0.010555,-0.009543,0.004761
2135,-0.033523,-0.009543,0.004761
2136,-0.010555,0.006231,0.004761
2137,-0.033523,-0.025317,-0.009662
2138,0.012412,0.006231,0.004761
2139,0.012412,-0.009543,0.004761
2140,-0.010555,-0.009543,0.004761
2141,-0.010555,-0.009543,0.019185
2142,-0.033523,0.006231,-0.009662
2143,0.035379,-0.009543,0.004761
2144,0.012412,-0.025317,-0.009662
2145,-0.033523,0.006231,0.004761
2146,0.058346,-0.009543,0.004761
2147,0.012412,0.006231,0.019185
2148,0.081313,-0.009543,0.004761
2149,0.035379,-0.009543,0.004761
2150,0.035379,0.006231,0.004761
2151,-0.010555,-0.009543,0.004761
2152,0.012412,0.006231,-0.009662
2153,0.035379,0.006231,0.004761
2154,0.035379,-0.009543,-0.009662
2155,-0.010555,0.006231,0.004761
2156,-0.033523,-0.009543,-0.03851
2157,-0.033523,-0.009543,-0.009662
2158,0.035379,-0.025317,-0.024086
2159,0.035379,-0.009543,0.004761
2160,0.012412,-0.009543,0.019185
2161,-0.010555,-0.025317,0.004761
2162,-0.033523,-0.009543,-0.009662
2163,0.012412,-0.025317,-0.009662
2164,-0.033523,-0.009543,-0.009662
2165,-0.010555,-0.009543,-0.009662
2166,-0.05649,0.006231,0.004761
2167,0.012412,0.006231,0.004761
2168,-0.010555,0.006231,0.019185
2169,-0.05649,-0.009543,0.004761
2170,-0.033523,-0.009543,-0.009662
2171,-0.033523,0.022005,0.004761
2172,-0.033523,-0.025317,0.019185
2173,0.012412,-0.009543,0.019185
2174,0.012412,0.006231,0.033609
2175,0.012412,-0.009543,0.004761
2176,-0.010555,-0.025317,0.004761
2177,0.035379,-0.009543,0.019185
2178,0.012412,0.006231,0.019185
2179,0.035379,-0.025317,-0.009662
2180,0.012412,-0.009543,-0.009662
2181,-0.010555,-0.009543,-0.009662
2182,0.058346,-0.025317,-0.009662
2183,0.035379,-0.009543,-0.024086
2184,-0.010555,0.022005,0.019185
2185,-0.010555,0.006231,0.004761
2186,-0.05649,-0.025317,0.048033
2187,-0.033523,-0.009543,-0.009662
2188,-0.010555,-0.009543,0.004761
2189,0.035379,-0.009543,-0.009662
2190,0.012412,-0.009543,-0.009662
2191,0.012412,-0.009543,0.004761
2192,-0.033523,-0.009543,0.004761
2193,0.058346,-0.009543,0.004761
2194,0.012412,-0.009543,-0.009662
2195,0.012412,0.006231,0.004761
2196,0.012412,0.022005,0.004761
2197,-0.033523,-0.009543,0.004761
2198,0.012412,-0.025317,-0.024086
2199,0.012412,-0.009543,-0.009662
2200,0.035379,-0.025317,-0.009662
2201,-0.05649,-0.025317,0.004761
2202,-0.033523,-0.025317,-0.009662
2203,-0.033523,-0.025317,0.004761
2204,0.012412,-0.009543,-0.009662
2205,-0.010555,0.006231,0.004761
2206,0.012412,0.006231,0.004761
2207,-0.010555,-0.025317,-0.009662
2208,-0.010555,0.006231,-0.03851
2209,0.012412,-0.025317,-0.024086
2210,0.012412,-0.025317,0.004761
2211,-0.033523,-0.009543,0.019185
2212,-0.05649,-0.025317,0.004761
2213,0.012412,0.006231,0.019185
2214,0.058346,-0.009543,-0.009662
2215,0.081313,0.006231,-0.009662
2216,0.012412,-0.009543,-0.009662
2217,0.035379,0.022005,0.004761
2218,0.035379,0.006231,0.019185
2219,-0.010555,0.006231,0.019185
2220,0.012412,0.006231,0.004761
2221,0.035379,-0.025317,0.004761
2222,0.012412,-0.009543,-0.009662
2223,0.012412,-0.009543,-0.009662
2224,0.035379,-0.025317,-0.024086
2225,0.012412,-0.009543,-0.009662
2226,0.012412,-0.009543,-0.009662
2227,0.012412,-0.009543,0.004761
2228,-0.033523,-0.009543,0.004761
2229,0.035379,-0.009543,0.004761
2230,-0.010555,-0.025317,-0.009662
2231,-0.033523,-0.025317,-0.024086
2232,-0.010555,0.006231,0.019185
2233,-0.010555,-0.009543,0.004761
2234,-0.010555,-0.009543,0.019185
2235,-0.033523,-0.009543,-0.009662
2236,0.012412,-0.025317,0.019185
2237,0.012412,0.006231,0.004761
2238,-0.010555,-0.009543,0.004761
2239,-0.05649,-0.009543,-0.03851
2240,0.035379,-0.009543,-0.024086
2241,-0.010555,-0.009543,-0.009662
2242,-0.033523,-0.025317,-0.024086
2243,-0.010555,-0.009543,-0.03851
2244,0.012412,-0.009543,-0.024086
2245,0.012412,-0.009543,0.004761
2246,0.035379,-0.009543,0.033609
2247,0.012412,-0.009543,0.019185
2248,0.012412,-0.009543,0.048033
2249,0.035379,0.006231,0.019185
2250,0.012412,-0.009543,-0.009662
2251,-0.010555,0.006231,0.004761
2252,0.058346,-0.009543,0.004761
2253,0.012412,-0.025317,0.004761
2254,0.035379,-0.025317,-0.009662
2255,0.012412,-0.009543,0.019185
2256,0.035379,-0.009543,0.004761
2257,0.035379,-0.009543,0.019185
2258,0.012412,-0.009543,0.004761
2259,-0.033523,-0.009543,-0.024086
2260,0.035379,-0.009543,-0.024086
2261,0.012412,-0.025317,-0.009662
2262,-0.033523,-0.025317,-0.009662
2263,-0.010555,-0.009543,0.004761
2264,0.012412,-0.025317,-0.009662
2265,0.035379,-0.009543,0.004761
2266,-0.010555,0.022005,0.004761
2267,-0.033523,0.006231,-0.009662
2268,0.012412,-0.009543,0.004761
2269,-0.033523,-0.009543,-0.009662
2270,-0.033523,-0.009543,0.004761
2271,-0.05649,-0.025317,0.004761
2272,0.058346,-0.009543,0.004761
2273,-0.010555,0.006231,-0.009662
2274,-0.033523,-0.025317,-0.009662
2275,-0.05649,-0.009543,0.004761
2276,-0.010555,0.006231,0.004761
2277,0.012412,0.006231,0.004761
2278,-0.033523,-0.025317,0.019185
2279,0.012412,-0.009543,0.019185
2280,0.012412,0.006231,0.033609
2281,0.035379,-0.009543,0.019185
2282,-0.010555,0.006231,0.019185
2283,0.012412,-0.009543,-0.009662
2284,0.012412,-0.025317,-0.009662
2285,0.035379,-0.025317,-0.03851
2286,-0.010555,-0.041091,-0.03851
2287,0.012412,-0.009543,0.048033
2288,-0.033523,-0.025317,-0.009662
2289,0.035379,-0.009543,-0.009662
2290,-0.010555,-0.025317,-0.009662
2291,0.012412,-0.009543,-0.009662
2292,-0.010555,-0.025317,-0.009662
2293,0.012412,-0.009543,0.019185
2294,0.012412,0.006231,0.004761
2295,0.012412,-0.025317,0.004761
2296,0.012412,-0.009543,-0.009662
2297,0.012412,-0.009543,0.004761
2298,-0.05649,-0.009543,-0.009662
2299,-0.010555,0.006231,-0.009662
2300,0.012412,-0.009543,0.019185
2301,0.012412,-0.009543,0.004761
2302,-0.010555,-0.025317,-0.024086
2303,-0.033523,-0.009543,-0.009662
2304,-0.033523,0.006231,-0.009662
2305,0.012412,-0.025317,-0.024086
2306,-0.05649,-0.009543,0.004761
2307,-0.010555,-0.009543,0.004761
2308,0.012412,-0.009543,0.004761
2309,-0.033523,-0.009543,0.004761
2310,-0.033523,-0.009543,0.004761
2311,0.012412,-0.009543,-0.009662
2312,0.012412,-0.009543,-0.009662
2313,-0.05649,-0.025317,-0.009662
2314,0.012412,-0.009543,-0.024086
2315,0.012412,-0.009543,-0.024086
2316,0.035379,-0.009543,0.004761
2317,0.012412,-0.009543,-0.009662
2318,0.012412,-0.009543,-0.024086
2319,0.012412,-0.009543,-0.009662
2320,0.012412,-0.025317,0.004761
2321,0.035379,-0.009543,0.004761
2322,0.012412,0.006231,0.004761
2323,0.012412,-0.009543,-0.009662
2324,0.012412,-0.025317,0.004761
2325,-0.010555,-0.025317,0.004761
2326,0.012412,-0.009543,-0.024086
2327,0.035379,-0.025317,-0.009662
2328,0.058346,-0.025317,-0.009662
2329,0.012412,-0.025317,-0.009662
2330,-0.033523,-0.009543,-0.009662
2331,0.035379,-0.025317,-0.009662
2332,-0.010555,0.022005,-0.009662
2333,0.012412,-0.009543,0.004761
2334,-0.05649,-0.009543,0.004761
2335,0.058346,-0.009543,-0.009662
2336,-0.010555,-0.009543,0.004761
2337,-0.033523,-0.009543,0.004761
2338,-0.05649,0.006231,0.019185
2339,-0.010555,-0.009543,-0.009662
2340,-0.010555,-0.009543,0.004761
2341,-0.05649,-0.025317,0.004761
2342,-0.010555,0.006231,0.004761
2343,0.012412,0.006231,0.004761
2344,-0.010555,-0.009543,0.019185
2345,-0.033523,-0.009543,0.004761
2346,-0.033523,-0.025317,-0.009662
2347,-0.033523,-0.009543,-0.009662
2348,0.035379,-0.025317,-0.009662
2349,0.035379,-0.025317,-0.009662
2350,-0.010555,0.006231,0.004761
2351,0.035379,0.006231,0.004761
2352,0.035379,-0.025317,0.004761
2353,0.012412,-0.025317,0.004761
2354,0.058346,-0.009543,0.004761
2355,0.012412,0.006231,0.004761
2356,0.035379,-0.009543,-0.024086
2357,0.035379,-0.009543,0.004761
2358,0.012412,-0.009543,0.019185
2359,0.012412,-0.025317,0.004761
2360,0.012412,-0.025317,0.004761
2361,-0.010555,0.006231,0.048033
2362,0.035379,-0.025317,-0.009662
2363,0.012412,0.006231,-0.009662
2364,-0.010555,-0.025317,-0.009662
2365,0.012412,-0.009543,-0.009662
2366,0.035379,-0.025317,-0.009662
2367,-0.010555,-0.025317,-0.009662
2368,-0.010555,0.022005,-0.009662
2369,-0.010555,-0.025317,-0.009662
2370,-0.033523,0.006231,-0.009662
2371,-0.033523,0.022005,-0.009662
2372,-0.010555,0.006231,0.004761
2373,-0.010555,-0.025317,0.004761
2374,0.012412,0.006231,0.004761
2375,0.035379,0.006231,0.004761
2376,-0.010555,-0.009543,0.004761
2377,-0.05649,-0.009543,0.004761
2378,-0.010555,-0.009543,0.004761
2379,0.012412,0.006231,0.033609
2380,-0.033523,0.006231,0.019185
2381,-0.010555,0.006231,0.004761
2382,0.012412,0.006231,-0.009662
2383,0.012412,-0.009543,-0.009662
2384,-0.033523,-0.009543,-0.024086
2385,-0.033523,0.006231,-0.052934
2386,-0.010555,-0.025317,-0.03851
2387,0.058346,-0.041091,-0.024086
2388,-0.05649,-0.041091,-0.024086
2389,-0.033523,-0.009543,0.004761
2390,0.035379,0.006231,-0.009662
2391,0.035379,-0.025317,0.004761
2392,-0.010555,0.006231,0.019185
2393,0.035379,-0.025317,0.004761
2394,0.058346,0.006231,0.004761
2395,0.058346,-0.009543,-0.009662
2396,0.012412,0.006231,0.019185
2397,0.012412,0.006231,-0.009662
2398,0.058346,-0.009543,-0.009662
2399,0.012412,-0.009543,-0.009662
2400,0.035379,-0.009543,-0.009662
2401,-0.010555,-0.025317,-0.009662
2402,0.012412,-0.009543,-0.009662
2403,-0.010555,-0.009543,-0.024086
2404,-0.010555,-0.009543,-0.009662
2405,0.012412,0.006231,0.004761
2406,0.035379,0.006231,0.019185
2407,0.012412,0.006231,0.019185
2408,-0.010555,-0.025317,0.048033
2409,-0.033523,-0.009543,0.019185
2410,-0.010555,-0.009543,-0.009662
2411,0.012412,-0.009543,-0.009662
2412,-0.010555,-0.009543,0.004761
2413,-0.010555,-0.025317,-0.009662
2414,-0.010555,-0.025317,-0.009662
2415,-0.010555,0.006231,-0.009662
2416,-0.05649,-0.025317,-0.009662
2417,-0.033523,-0.025317,0.004761
2418,0.035379,-0.009543,0.004761
2419,-0.079457,-0.009543,-0.009662
2420,-0.010555,-0.025317,0.004761
2421,-0.010555,-0.025317,0.004761
2422,0.012412,-0.009543,0.004761
2423,0.012412,0.006231,0.004761
2424,-0.033523,-0.009543,0.004761
2425,0.012412,0.006231,0.004761
2426,0.058346,-0.009543,0.004761
2427,0.012412,-0.009543,0.004761
2428,0.035379,-0.009543,0.004761
2429,0.012412,-0.009543,0.004761
2430,0.035379,0.006231,-0.009662
2431,0.012412,-0.009543,0.004761
2432,-0.010555,0.006231,0.004761
2433,0.058346,0.006231,0.004761
2434,0.058346,-0.009543,-0.009662
2435,0.012412,0.006231,-0.024086
2436,-0.010555,-0.009543,-0.009662
2437,0.012412,-0.009543,-0.024086
2438,0.012412,-0.009543,-0.024086
2439,0.012412,-0.009543,0.004761
2440,-0.010555,0.006231,0.004761
2441,-0.033523,0.006231,0.004761
2442,0.035379,-0.009543,0.019185
2443,0.012412,-0.025317,0.004761
2444,0.012412,-0.025317,0.019185
2445,0.058346,0.022005,0.019185
2446,0.012412,-0.009543,0.019185
2447,-0.033523,-0.009543,-0.009662
2448,-0.05649,-0.025317,-0.024086
2449,0.012412,0.006231,-0.024086
2450,-0.05649,-0.025317,-0.009662
2451,-0.05649,-0.009543,-0.024086
2452,-0.010555,-0.009543,-0.009662
2453,-0.010555,-0.041091,-0.024086
2454,-0.010555,-0.009543,-0.024086
2455,-0.05649,-0.025317,-0.009662
2456,-0.010555,-0.025317,0.019185
2457,0.035379,0.006231,0.004761
2458,0.035379,-0.009543,0.004761
2459,-0.033523,-0.009543,-0.009662
2460,-0.010555,-0.009543,0.004761
2461,0.035379,0.006231,-0.009662
2462,0.058346,0.006231,-0.009662
2463,-0.010555,0.006231,-0.024086
2464,0.035379,-0.009543,-0.009662
2465,0.035379,0.006231,-0.009662
2466,0.012412,0.006231,-0.024086
2467,-0.010555,-0.009543,0.004761
2468,0.012412,-0.009543,0.004761
2469,-0.010555,-0.009543,0.019185
2470,0.035379,0.006231,0.004761
2471,-0.010555,-0.009543,0.004761
2472,-0.010555,-0.009543,0.004761
2473,-0.033523,0.006231,-0.009662
2474,-0.010555,-0.009543,0.004761
2475,0.012412,-0.009543,0.019185
2476,-0.010555,-0.009543,0.004761
2477,0.035379,0.006231,0.004761
2478,0.012412,-0.025317,-0.009662
2479,-0.05649,-0.025317,0.033609
2480,-0.05649,-0.009543,-0.009662
2481,-0.010555,-0.009543,-0.009662
2482,-0.05649,-0.009543,-0.009662
2483,-0.05649,-0.009543,0.033609
2484,-0.033523,-0.009543,-0.009662
2485,-0.033523,-0.009543,0.004761
2486,0.012412,0.006231,0.004761
2487,-0.05649,-0.009543,0.019185
2488,-0.010555,0.006231,0.004761
2489,-0.033523,0.006231,-0.009662
2490,-0.010555,-0.025317,-0.009662
2491,-0.033523,-0.009543,-0.024086
2492,0.012412,-0.041091,-0.024086
2493,0.035379,-0.009543,-0.009662
2494,0.035379,-0.025317,0.019185
2495,0.035379,-0.009543,-0.009662
2496,0.035379,-0.025317,0.004761
2497,-0.010555,0.006231,0.004761
2498,0.058346,-0.009543,0.033609
2499,-0.010555,-0.009543,0.004761
2500,-0.010555,-0.025317,0.004761
2501,0.012412,-0.009543,-0.009662
2502,0.012412,-0.009543,0.004761
2503,0.035379,-0.009543,-0.024086
2504,0.012412,-0.025317,-0.03851
2505,0.012412,0.006231,-0.024086
2506,-0.010555,-0.009543,-0.009662
2507,-0.010555,-0.009543,-0.009662
2508,-0.010555,-0.009543,0.019185
2509,-0.010555,-0.009543,0.004761
2510,-0.05649,-0.009543,0.019185
2511,0.012412,0.006231,0.004761
2512,0.035379,0.006231,0.004761
2513,0.012412,-0.025317,0.004761
2514,-0.010555,-0.009543,-0.009662
2515,-0.010555,0.006231,0.004761
2516,-0.033523,-0.009543,-0.009662
2517,-0.010555,-0.009543,-0.009662
2518,-0.010555,-0.009543,0.004761
2519,-0.010555,0.006231,0.004761
2520,-0.05649,0.006231,-0.009662
2521,0.012412,-0.025317,-0.009662
2522,-0.010555,-0.009543,-0.009662
2523,-0.033523,0.006231,0.004761
2524,-0.05649,0.006231,0.019185
2525,0.012412,0.022005,0.019185
2526,-0.033523,-0.009543,0.004761
2527,-0.010555,-0.025317,0.004761
2528,0.012412,0.006231,-0.009662
2529,-0.010555,-0.025317,-0.009662
2530,-0.033523,-0.009543,-0.009662
2531,-0.033523,-0.025317,-0.009662
2532,0.012412,-0.025317,-0.009662
2533,0.035379,0.006231,-0.009662
2534,0.012412,-0.025317,-0.009662
2535,-0.010555,-0.025317,0.004761
2536,0.012412,-0.009543,0.004761
2537,0.081313,-0.009543,0.019185
2538,0.035379,-0.025317,0.004761
2539,-0.033523,-0.009543,0.019185
2540,-0.010555,-0.009543,-0.009662
2541,0.012412,-0.009543,0.004761
2542,0.012412,0.022005,0.004761
2543,0.058346,-0.025317,0.004761
2544,0.012412,-0.009543,0.004761
2545,0.058346,-0.025317,0.004761
2546,-0.010555,-0.009543,-0.009662
2547,0.012412,-0.009543,-0.009662
2548,0.035379,0.006231,0.004761
2549,0.012412,0.006231,0.004761
2550,0.012412,0.006231,0.019185
2551,0.012412,0.006231,0.004761
2552,0.058346,0.022005,0.019185
2553,0.035379,-0.009543,0.004761
2554,0.012412,-0.025317,-0.024086
2555,-0.033523,-0.009543,-0.009662
2556,-0.05649,-0.009543,0.004761
2557,-0.033523,-0.025317,-0.024086
2558,-0.010555,-0.025317,0.004761
2559,-0.033523,-0.009543,-0.009662
2560,-0.010555,0.006231,-0.009662
2561,-0.010555,-0.009543,-0.009662
2562,0.035379,0.006231,0.004761
2563,-0.033523,0.006231,0.019185
2564,-0.05649,-0.009543,0.004761
2565,0.035379,-0.025317,0.004761
2566,-0.05649,-0.009543,-0.024086
2567,-0.033523,-0.009543,-0.009662
2568,-0.010555,-0.009543,0.004761
2569,-0.033523,-0.009543,0.004761
2570,-0.010555,-0.009543,0.004761
2571,-0.010555,-0.009543,-0.009662
2572,-0.033523,-0.009543,-0.009662
2573,-0.010555,-0.009543,0.004761
2574,-0.033523,-0.025317,-0.009662
2575,-0.010555,-0.025317,0.004761
2576,0.035379,-0.009543,-0.009662
2577,-0.010555,-0.009543,-0.009662
2578,0.012412,-0.009543,-0.009662
2579,-0.033523,-0.009543,-0.024086
2580,-0.010555,-0.009543,0.004761
2581,0.012412,-0.025317,-0.009662
2582,-0.033523,-0.009543,-0.024086
2583,0.035379,-0.009543,-0.009662
2584,0.012412,-0.009543,-0.024086
2585,0.035379,-0.025317,0.004761
2586,-0.010555,-0.025317,-0.009662
2587,0.035379,0.006231,-0.024086
2588,0.035379,-0.009543,-0.009662
2589,0.081313,-0.009543,0.004761
2590,-0.05649,-0.009543,0.004761
2591,-0.010555,-0.025317,0.004761
2592,0.012412,0.006231,0.019185
2593,0.012412,-0.009543,0.019185
2594,0.012412,-0.025317,0.004761
2595,0.012412,0.006231,-0.009662
2596,-0.033523,-0.009543,-0.009662
2597,0.012412,0.006231,-0.009662
2598,-0.033523,-0.025317,-0.024086
2599,0.012412,-0.009543,-0.009662
2600,-0.033523,-0.025317,0.004761
2601,0.035379,0.006231,0.019185
2602,-0.010555,-0.009543,0.019185
2603,-0.033523,-0.009543,0.019185
2604,0.012412,0.006231,0.004761
2605,-0.010555,-0.009543,0.004761
2606,-0.010555,-0.025317,0.004761
2607,-0.079457,-0.025317,-0.009662
2608,-0.010555,-0.025317,-0.009662
2609,0.012412,-0.025317,-0.009662
2610,-0.033523,-0.041091,0.019185
2611,-0.010555,-0.009543,0.004761
2612,0.012412,-0.009543,0.019185
2613,0.012412,-0.009543,0.004761
2614,-0.033523,-0.009543,0.004761
2615,0.012412,-0.009543,-0.009662
2616,0.035379,0.006231,0.004761
2617,0.035379,-0.025317,-0.009662
2618,0.012412,-0.009543,0.004761
2619,0.012412,0.006231,0.004761
2620,-0.033523,-0.009543,0.004761
2621,-0.010555,-0.025317,-0.009662
2622,0.035379,-0.009543,0.004761
2623,-0.010555,-0.025317,0.004761
2624,0.035379,-0.025317,-0.024086
2625,0.012412,-0.009543,-0.009662
2626,0.058346,-0.025317,-0.024086
2627,-0.033523,-0.025317,-0.009662
2628,0.012412,-0.009543,-0.03851
2629,0.012412,-0.025317,-0.024086
2630,0.035379,-0.025317,-0.009662
2631,0.035379,-0.025317,0.004761
2632,0.035379,-0.025317,0.004761
2633,0.012412,-0.009543,0.004761
2634,0.012412,0.022005,0.004761
2635,0.035379,-0.009543,-0.009662
2636,-0.010555,-0.009543,0.004761
2637,0.012412,-0.025317,0.004761
2638,0.012412,-0.009543,0.004761
2639,-0.033523,-0.025317,0.019185
2640,-0.010555,0.006231,0.019185
2641,0.035379,-0.025317,0.019185
2642,0.012412,-0.009543,-0.024086
2643,-0.010555,-0.009543,-0.009662
2644,-0.010555,-0.009543,-0.024086
2645,-0.010555,-0.009543,-0.009662
2646,-0.010555,-0.025317,-0.009662
2647,-0.033523,-0.009543,-0.009662
2648,-0.010555,-0.009543,0.004761
2649,-0.010555,-0.025317,-0.009662
2650,-0.010555,-0.009543,-0.024086
2651,-0.05649,-0.009543,-0.009662
2652,-0.010555,0.006231,0.004761
2653,-0.010555,-0.009543,0.004761
2654,-0.033523,-0.009543,-0.009662
2655,0.035379,-0.009543,0.004761
2656,0.035379,-0.009543,-0.009662
2657,0.012412,0.006231,0.004761
2658,-0.033523,-0.025317,0.004761
2659,-0.010555,-0.009543,-0.009662
2660,0.012412,-0.009543,0.019185
2661,0.012412,-0.009543,0.004761
2662,0.058346,-0.009543,0.019185
2663,0.012412,-0.009543,-0.009662
2664,-0.010555,0.006231,0.019185
2665,-0.010555,-0.025317,-0.009662
2666,0.012412,-0.009543,-0.009662
2667,0.012412,-0.009543,0.004761
2668,0.012412,0.006231,-0.009662
2669,-0.010555,-0.009543,-0.009662
2670,0.012412,-0.009543,0.004761
2671,-0.05649,-0.009543,0.004761
2672,0.058346,0.006231,0.004761
2673,-0.010555,-0.009543,0.019185
2674,0.012412,-0.009543,0.019185
2675,-0.05649,-0.025317,0.004761
2676,0.035379,-0.009543,0.004761
2677,0.012412,-0.025317,-0.024086
2678,-0.05649,-0.025317,-0.024086
2679,-0.05649,-0.025317,-0.024086
2680,-0.079457,-0.009543,-0.009662
2681,-0.010555,0.006231,0.019185
2682,-0.010555,0.006231,0.033609
2683,-0.05649,-0.009543,0.019185
2684,-0.033523,-0.009543,-0.024086
2685,-0.010555,-0.009543,-0.024086
2686,-0.05649,-0.009543,-0.024086
2687,0.012412,0.006231,0.019185
2688,-0.033523,0.006231,-0.009662
2689,-0.010555,-0.009543,0.019185
2690,-0.010555,-0.009543,0.004761
2691,-0.033523,-0.025317,0.019185
2692,-0.010555,-0.025317,-0.009662
2693,0.035379,-0.025317,-0.009662
2694,-0.010555,-0.025317,0.004761
2695,-0.010555,-0.009543,0.019185
2696,0.012412,-0.025317,0.004761
2697,0.012412,-0.009543,0.004761
2698,0.012412,0.022005,0.004761
2699,0.035379,0.006231,0.004761
2700,0.012412,0.022005,-0.024086
2701,-0.010555,-0.041091,-0.009662
2702,-0.010555,-0.009543,-0.009662
2703,0.012412,-0.025317,-0.009662
2704,0.012412,-0.025317,-0.03851
2705,0.035379,0.006231,-0.009662
2706,-0.010555,-0.009543,-0.009662
2707,0.035379,-0.009543,0.019185
2708,0.012412,-0.025317,-0.009662
2709,0.035379,-0.009543,-0.03851
2710,-0.010555,-0.025317,0.004761
2711,-0.033523,0.006231,0.004761
2712,0.012412,-0.009543,0.004761
2713,0.012412,-0.009543,-0.009662
2714,-0.010555,-0.009543,-0.009662
2715,0.012412,-0.025317,0.019185
2716,0.012412,0.006231,0.019185
2717,0.012412,-0.009543,0.004761
2718,-0.010555,-0.009543,-0.024086
2719,-0.033523,-0.009543,-0.024086
2720,-0.010555,-0.009543,-0.009662
2721,0.035379,-0.025317,-0.009662
2722,0.035379,0.006231,0.048033
2723,0.012412,0.006231,0.004761
2724,0.012412,0.006231,0.004761
2725,-0.033523,-0.009543,0.004761
2726,-0.033523,-0.025317,-0.009662
2727,-0.05649,-0.025317,-0.009662
2728,-0.010555,-0.009543,-0.009662
2729,-0.05649,-0.025317,-0.009662
2730,-0.05649,-0.009543,-0.009662
2731,0.035379,0.006231,-0.009662
2732,0.035379,-0.009543,0.004761
2733,0.012412,0.006231,0.004761
2734,0.012412,-0.009543,0.004761
2735,0.058346,-0.009543,0.004761
2736,0.012412,0.006231,0.004761
2737,0.012412,0.006231,0.004761
2738,-0.010555,0.006231,0.019185
2739,0.012412,-0.009543,0.004761
2740,0.035379,-0.009543,0.033609
2741,0.012412,-0.009543,0.048033
2742,0.035379,-0.009543,0.004761
2743,0.012412,-0.009543,-0.009662
2744,0.012412,-0.009543,-0.009662
2745,-0.010555,-0.025317,-0.03851
2746,-0.033523,-0.025317,-0.03851
2747,0.012412,-0.041091,-0.052934
2748,-0.010555,-0.025317,-0.03851
2749,0.012412,-0.025317,-0.03851
2750,-0.033523,-0.009543,-0.024086
2751,-0.033523,-0.009543,-0.009662
2752,0.012412,-0.009543,-0.009662
2753,0.012412,-0.009543,0.004761
2754,-0.05649,-0.009543,0.019185
2755,-0.010555,-0.009543,0.019185
2756,0.081313,-0.025317,0.004761
2757,-0.033523,-0.009543,0.004761
2758,-0.033523,0.006231,0.004761
2759,0.035379,-0.009543,0.004761
2760,-0.010555,-0.009543,0.004761
2761,-0.033523,0.006231,0.004761
2762,-0.033523,-0.025317,0.004761
2763,-0.033523,-0.025317,0.004761
2764,0.035379,-0.025317,-0.009662
2765,-0.033523,-0.009543,-0.009662
2766,-0.033523,0.006231,-0.009662
2767,-0.033523,-0.009543,-0.024086
2768,0.012412,-0.025317,-0.009662
2769,0.012412,0.006231,0.004761
2770,0.012412,-0.009543,-0.009662
2771,-0.033523,-0.041091,0.019185
2772,0.012412,-0.009543,-0.009662
2773,0.012412,-0.025317,0.004761
2774,0.035379,-0.009543,0.019185
2775,0.012412,-0.041091,0.004761
2776,0.035379,-0.009543,0.004761
2777,0.081313,0.006231,0.004761
2778,0.012412,-0.009543,0.004761
2779,0.035379,-0.025317,0.004761
2780,0.058346,0.006231,0.004761
2781,0.035379,-0.025317,-0.009662
2782,-0.033523,-0.009543,0.004761
2783,-0.010555,-0.009543,0.004761
2784,0.012412,-0.009543,-0.009662
2785,0.035379,-0.025317,0.004761
2786,0.012412,-0.009543,-0.009662
2787,0.035379,-0.009543,0.004761
2788,0.035379,-0.009543,-0.009662
2789,0.012412,-0.009543,0.004761
2790,-0.010555,-0.009543,0.004761
2791,0.012412,0.006231,-0.009662
2792,-0.010555,-0.009543,-0.009662
2793,-0.010555,-0.025317,0.004761
2794,0.012412,-0.009543,-0.009662
2795,-0.010555,-0.009543,0.004761
2796,0.012412,-0.009543,0.004761
2797,0.012412,-0.025317,0.004761
2798,-0.010555,-0.025317,-0.009662
2799,-0.05649,-0.009543,0.004761
2800,0.012412,-0.009543,0.004761
2801,-0.010555,-0.009543,0.004761
2802,-0.05649,-0.009543,-0.024086
2803,-0.05649,0.006231,0.004761
2804,0.012412,-0.009543,0.004761
2805,-0.010555,-0.009543,0.004761
2806,0.012412,-0.009543,-0.009662
2807,-0.05649,-0.025317,-0.009662
2808,-0.010555,0.006231,0.019185
2809,0.035379,-0.009543,0.004761
2810,-0.010555,0.006231,-0.009662
2811,0.012412,0.022005,-0.009662
2812,0.035379,-0.009543,0.019185
2813,0.035379,-0.009543,0.019185
2814,-0.010555,-0.025317,-0.009662
2815,-0.033523,0.006231,0.004761
2816,0.035379,-0.009543,0.004761
2817,0.081313,-0.025317,-0.009662
2818,0.035379,-0.025317,-0.03851
2819,0.035379,-0.009543,-0.024086
2820,-0.033523,-0.009543,-0.009662
2821,0.012412,-0.009543,-0.009662
2822,-0.033523,-0.009543,-0.009662
2823,0.012412,-0.009543,-0.009662
2824,0.035379,0.006231,0.004761
2825,0.035379,-0.009543,0.004761
2826,0.058346,-0.009543,0.019185
2827,0.058346,0.006231,0.019185
2828,0.058346,-0.025317,-0.009662
2829,-0.010555,-0.009543,-0.009662
2830,-0.010555,-0.025317,-0.009662
2831,0.058346,-0.025317,-0.024086
2832,0.012412,-0.009543,0.004761
2833,0.012412,0.006231,0.004761
2834,-0.010555,0.006231,0.019185
2835,-0.010555,-0.009543,-0.009662
2836,-0.010555,-0.009543,-0.009662
2837,-0.010555,-0.009543,-0.009662
2838,-0.033523,-0.056865,-0.024086
2839,-0.010555,-0.009543,-0.009662
2840,0.035379,0.006231,0.004761
2841,0.012412,-0.025317,0.004761
2842,0.012412,-0.009543,0.004761
2843,-0.010555,-0.025317,-0.009662
2844,-0.010555,0.006231,-0.009662
2845,-0.010555,0.006231,-0.009662
2846,-0.05649,-0.009543,0.019185
2847,-0.010555,-0.009543,0.004761
2848,-0.010555,-0.009543,-0.009662
2849,-0.05649,-0.025317,-0.024086
2850,-0.079457,-0.009543,-0.009662
2851,-0.010555,-0.025317,-0.009662
2852,-0.010555,0.006231,-0.009662
2853,0.012412,-0.009543,-0.009662
2854,0.012412,-0.009543,0.004761
2855,0.012412,-0.009543,0.019185
2856,0.035379,-0.009543,0.004761
2857,0.012412,0.006231,0.004761
2858,-0.033523,-0.009543,0.004761
2859,-0.010555,-0.025317,0.019185
2860,0.035379,-0.009543,0.019185
2861,0.035379,0.022005,0.019185
2862,-0.033523,0.006231,0.004761
2863,-0.010555,-0.009543,-0.009662
2864,0.012412,-0.025317,-0.009662
2865,0.012412,-0.009543,0.004761
2866,-0.010555,-0.009543,-0.009662
2867,0.035379,-0.025317,-0.009662
2868,0.081313,-0.009543,-0.009662
2869,0.012412,-0.025317,-0.009662
2870,-0.033523,-0.025317,-0.024086
2871,0.012412,-0.009543,-0.009662
2872,-0.010555,-0.025317,-0.009662
2873,-0.010555,-0.025317,-0.024086
2874,-0.079457,-0.025317,-0.009662
2875,-0.033523,-0.009543,0.004761
2876,0.012412,0.006231,0.019185
2877,-0.05649,-0.009543,0.004761
2878,0.012412,0.006231,0.019185
2879,-0.033523,-0.009543,0.004761
2880,0.012412,-0.009543,0.019185
2881,0.035379,-0.009543,0.004761
2882,-0.010555,0.022005,0.004761
2883,0.012412,-0.009543,0.019185
2884,0.012412,-0.025317,0.004761
2885,-0.010555,-0.009543,-0.009662
2886,-0.010555,-0.025317,-0.009662
2887,-0.010555,-0.009543,-0.024086
2888,-0.010555,0.006231,-0.024086
2889,-0.010555,-0.009543,-0.024086
2890,-0.033523,0.006231,-0.009662
2891,0.012412,-0.009543,0.004761
2892,0.058346,-0.009543,-0.009662
2893,-0.010555,-0.009543,-0.009662
2894,-0.010555,0.006231,0.004761
2895,-0.010555,-0.009543,0.004761
2896,0.012412,-0.009543,0.019185
2897,-0.033523,-0.009543,0.004761
2898,-0.05649,-0.009543,0.019185
2899,-0.010555,-0.009543,0.004761
2900,-0.033523,-0.009543,-0.024086
2901,0.012412,-0.009543,-0.009662
2902,0.035379,0.006231,0.004761
2903,0.012412,-0.009543,0.004761
2904,0.012412,-0.025317,-0.009662
2905,-0.033523,-0.041091,-0.009662
2906,-0.010555,-0.009543,-0.009662
2907,0.012412,-0.025317,0.004761
2908,0.012412,0.006231,-0.009662
2909,0.012412,0.006231,-0.009662
2910,0.012412,-0.041091,0.033609
2911,0.058346,-0.009543,-0.009662
2912,0.012412,-0.009543,0.004761
2913,0.035379,-0.025317,0.004761
2914,-0.033523,0.022005,-0.009662
2915,0.058346,-0.009543,-0.009662
2916,0.035379,-0.009543,-0.009662
2917,-0.033523,-0.009543,0.004761
2918,-0.033523,-0.009543,0.004761
2919,-0.010555,0.006231,-0.009662
2920,0.012412,-0.025317,-0.009662
2921,-0.033523,-0.025317,0.004761
2922,-0.010555,-0.009543,0.004761
2923,0.012412,0.006231,0.004761
2924,0.012412,-0.009543,0.004761
2925,-0.05649,-0.009543,0.019185
2926,-0.05649,-0.025317,0.019185
2927,0.012412,0.006231,0.004761
2928,-0.010555,-0.009543,0.004761
2929,-0.05649,-0.009543,-0.009662
2930,0.012412,-0.009543,-0.009662
2931,-0.010555,-0.009543,-0.009662
2932,-0.010555,-0.009543,-0.009662
2933,-0.033523,-0.009543,-0.009662
2934,0.012412,-0.025317,-0.024086
2935,-0.010555,-0.009543,-0.009662
2936,0.035379,-0.009543,-0.024086
2937,0.035379,-0.009543,-0.009662
2938,0.035379,-0.009543,0.004761
2939,0.035379,-0.009543,0.004761
2940,0.058346,-0.025317,0.004761
2941,0.012412,-0.009543,-0.024086
2942,0.035379,0.006231,-0.009662
2943,0.012412,0.006231,0.004761
2944,0.012412,0.006231,0.004761
2945,0.012412,-0.025317,-0.009662
2946,-0.033523,-0.025317,-0.009662
2947,0.012412,-0.009543,0.019185
2948,-0.010555,-0.009543,0.004761
2949,-0.033523,0.006231,-0.009662
2950,-0.010555,0.006231,-0.024086
2951,0.012412,-0.025317,-0.024086
2952,-0.010555,0.006231,-0.009662
2953,-0.010555,-0.009543,-0.024086
2954,-0.033523,0.006231,0.004761
2955,-0.010555,0.006231,-0.009662
2956,-0.010555,-0.025317,0.004761
2957,-0.033523,0.006231,-0.009662
2958,-0.010555,0.006231,-0.009662
2959,0.012412,-0.009543,0.004761
2960,-0.033523,-0.009543,-0.009662
2961,-0.05649,-0.009543,0.004761
2962,-0.010555,-0.009543,0.004761
2963,0.012412,-0.009543,0.004761
2964,-0.010555,0.03778,0.004761
2965,-0.033523,-0.009543,-0.024086
2966,0.035379,-0.009543,-0.009662
2967,0.035379,-0.009543,0.004761
2968,0.081313,0.006231,0.004761
2969,-0.033523,-0.025317,-0.009662
2970,0.012412,-0.025317,0.004761
2971,0.012412,-0.025317,-0.024086
2972,0.058346,0.006231,-0.009662
2973,0.035379,-0.009543,0.004761
2974,0.012412,0.006231,0.004761
2975,0.012412,-0.025317,0.004761
2976,0.012412,-0.009543,0.019185
2977,0.035379,-0.009543,0.019185
2978,0.058346,0.069328,-0.009662
2979,0.035379,-0.009543,-0.009662
2980,-0.010555,0.006231,0.004761
2981,0.035379,-0.009543,0.004761
2982,0.058346,0.006231,-0.009662
2983,-0.010555,0.006231,0.004761
2984,0.058346,-0.025317,0.004761
2985,-0.010555,-0.009543,-0.024086
2986,0.012412,-0.025317,-0.009662
2987,-0.010555,0.006231,0.004761
2988,-0.010555,-0.009543,-0.009662
2989,0.012412,0.022005,0.048033
2990,-0.010555,-0.009543,0.004761
2991,-0.033523,-0.025317,-0.009662
2992,-0.010555,-0.025317,-0.009662
2993,-0.05649,-0.041091,-0.024086
2994,-0.010555,-0.025317,-0.024086
2995,-0.05649,0.006231,0.004761
2996,-0.010555,-0.009543,-0.009662
2997,-0.033523,-0.009543,-0.009662
2998,0.035379,-0.009543,-0.009662
2999,0.035379,0.006231,-0.009662
3000,-0.05649,-0.025317,-0.009662
3001,-0.033523,-0.009543,0.004761
3002,0.035379,-0.009543,0.019185
3003,0.058346,-0.009543,0.019185
3004,-0.05649,-0.009543,0.019185
3005,0.012412,0.006231,0.004761
3006,0.035379,0.006231,-0.009662
3007,0.012412,0.022005,0.004761
3008,0.035379,-0.009543,0.004761
3009,-0.05649,-0.009543,-0.009662
3010,0.012412,-0.009543,-0.024086
3011,0.058346,-0.009543,-0.024086
3012,0.012412,-0.025317,-0.024086
3013,-0.010555,0.006231,0.004761
3014,-0.010555,-0.025317,-0.009662
3015,0.012412,-0.009543,0.004761
3016,0.058346,-0.009543,-0.009662
3017,0.012412,-0.009543,-0.009662
3018,0.012412,-0.009543,0.004761
3019,-0.010555,-0.009543,0.004761
3020,-0.033523,-0.009543,0.004761
3021,-0.010555,-0.009543,-0.009662
3022,0.012412,-0.009543,0.004761
3023,0.058346,-0.025317,0.019185
3024,-0.010555,-0.009543,0.004761
3025,0.035379,-0.009543,0.004761
3026,0.012412,-0.009543,-0.009662
3027,-0.033523,-0.009543,0.004761
3028,-0.033523,0.006231,0.004761
3029,-0.05649,-0.025317,-0.009662
3030,-0.010555,-0.025317,0.004761
3031,-0.010555,-0.009543,0.004761
3032,-0.033523,-0.009543,0.004761
3033,0.035379,-0.009543,0.004761
3034,0.012412,-0.009543,0.019185
3035,-0.05649,0.006231,0.004761
3036,0.035379,-0.009543,-0.009662
3037,-0.010555,-0.009543,-0.009662
3038,-0.010555,-0.009543,-0.009662
3039,-0.033523,-0.009543,-0.024086
3040,0.012412,0.006231,0.004761
3041,0.035379,-0.009543,0.004761
3042,0.035379,0.006231,0.019185
3043,0.035379,-0.009543,0.019185
3044,0.012412,-0.025317,0.019185
3045,0.012412,-0.009543,-0.009662
3046,0.058346,-0.009543,0.004761
3047,0.012412,-0.009543,0.004761
3048,0.058346,-0.009543,-0.009662
3049,0.035379,0.006231,-0.009662
3050,0.035379,-0.009543,-0.009662
3051,0.035379,-0.025317,0.004761
3052,-0.033523,0.006231,-0.009662
3053,-0.010555,-0.009543,-0.009662
3054,-0.010555,-0.009543,-0.009662
3055,-0.05649,-0.009543,0.004761
3056,-0.033523,-0.025317,-0.009662
3057,0.012412,-0.009543,-0.024086
3058,-0.010555,-0.009543,0.004761
3059,-0.010555,-0.025317,-0.009662
3060,-0.033523,-0.009543,-0.009662
3061,-0.033523,-0.009543,-0.009662
3062,-0.010555,-0.009543,0.004761
3063,-0.010555,-0.009543,0.004761
3064,-0.05649,-0.025317,-0.009662
3065,-0.010555,-0.009543,0.004761
3066,0.012412,-0.025317,0.004761
3067,-0.033523,-0.009543,0.004761
3068,0.012412,-0.009543,-0.009662
3069,0.035379,0.006231,-0.009662
3070,-0.010555,-0.009543,-0.009662
3071,-0.010555,-0.009543,0.004761
3072,-0.010555,-0.009543,0.004761
3073,0.012412,0.006231,-0.009662
3074,0.058346,0.022005,0.019185
3075,-0.010555,0.006231,-0.009662
3076,-0.033523,-0.009543,-0.009662
3077,-0.010555,-0.009543,-0.009662
3078,0.035379,-0.009543,0.004761
3079,-0.033523,-0.009543,0.004761
3080,0.012412,-0.009543,-0.009662
3081,-0.010555,0.006231,0.004761
3082,0.035379,-0.009543,0.019185
3083,0.012412,-0.025317,0.004761
3084,-0.010555,-0.025317,-0.009662
3085,0.035379,-0.009543,-0.024086
3086,0.035379,-0.009543,-0.009662
3087,0.012412,-0.025317,-0.009662
3088,-0.010555,-0.009543,0.004761
3089,-0.010555,-0.009543,0.004761
3090,0.035379,-0.009543,-0.009662
3091,0.012412,-0.009543,0.004761
3092,0.012412,-0.009543,0.004761
3093,0.058346,-0.025317,0.004761
3094,0.012412,-0.009543,-0.009662
3095,-0.033523,-0.009543,-0.009662
3096,0.012412,-0.025317,-0.024086
3097,0.035379,-0.025317,-0.024086
3098,-0.033523,0.006231,0.004761
3099,-0.010555,-0.009543,-0.009662
3100,-0.033523,-0.009543,0.004761
3101,-0.010555,-0.009543,-0.009662
3102,0.012412,-0.025317,0.004761
3103,-0.010555,-0.009543,0.004761
3104,-0.05649,0.006231,0.004761
3105,-0.010555,-0.025317,-0.009662
3106,-0.010555,-0.025317,0.004761
3107,-0.010555,-0.025317,0.004761
3108,-0.010555,0.006231,0.019185
3109,0.012412,0.022005,0.019185
3110,0.012412,0.006231,0.019185
3111,0.012412,0.022005,0.019185
3112,0.012412,0.006231,0.048033
3113,0.012412,-0.025317,0.019185
3114,-0.033523,-0.025317,-0.009662
3115,-0.033523,-0.025317,-0.03851
3116,-0.05649,-0.041091,-0.03851
3117,-0.05649,-0.009543,-0.009662
3118,0.035379,-0.009543,-0.024086
3119,0.035379,-0.025317,-0.009662
3120,0.012412,-0.009543,-0.009662
3121,0.012412,0.006231,0.019185
3122,0.012412,0.006231,-0.009662
3123,-0.033523,-0.009543,-0.024086
3124,0.012412,-0.009543,-0.009662
3125,0.058346,-0.009543,-0.009662
3126,0.012412,0.006231,0.004761
3127,0.012412,-0.025317,0.019185
3128,-0.033523,-0.009543,0.019185
3129,0.012412,-0.009543,-0.009662
3130,0.035379,-0.009543,0.004761
3131,0.035379,0.022005,-0.009662
3132,0.058346,0.006231,-0.009662
3133,0.058346,0.006231,-0.009662
3134,0.035379,-0.009543,-0.024086
3135,-0.010555,-0.025317,-0.009662
3136,-0.033523,0.006231,0.019185
3137,-0.010555,-0.009543,0.019185
3138,-0.010555,-0.025317,0.004761
3139,-0.010555,0.006231,-0.009662
3140,-0.033523,-0.009543,-0.009662
3141,-0.033523,-0.009543,0.004761
3142,0.012412,-0.009543,-0.009662
3143,0.012412,-0.009543,-0.009662
3144,-0.079457,-0.009543,0.004761
3145,0.035379,-0.025317,-0.009662
3146,-0.033523,-0.025317,0.004761
3147,0.035379,-0.009543,-0.024086
3148,-0.010555,-0.009543,-0.009662
3149,0.012412,-0.009543,-0.009662
3150,-0.010555,0.022005,-0.009662
3151,-0.033523,-0.009543,-0.024086
3152,-0.033523,-0.025317,-0.009662
3153,0.012412,-0.009543,0.019185
3154,0.012412,-0.009543,0.019185
3155,0.012412,0.022005,-0.009662
3156,0.035379,0.006231,0.048033
3157,0.035379,-0.025317,-0.009662
3158,0.012412,0.006231,0.004761
3159,-0.010555,0.022005,-0.009662
3160,0.012412,0.006231,-0.009662
3161,0.035379,-0.025317,-0.009662
3162,0.012412,-0.009543,0.019185
3163,0.012412,-0.009543,0.004761
3164,0.035379,0.006231,0.004761
3165,0.035379,0.006231,0.004761
3166,0.035379,0.006231,0.004761
3167,0.035379,0.006231,0.004761
3168,0.035379,0.006231,0.019185
3169,0.058346,-0.009543,0.004761
3170,-0.010555,0.006231,0.004761
3171,-0.033523,0.006231,0.004761
3172,0.012412,0.006231,-0.024086
3173,0.012412,-0.041091,-0.024086
3174,-0.010555,-0.025317,-0.009662
3175,-0.033523,-0.009543,-0.009662
3176,-0.033523,-0.009543,-0.024086
3177,0.035379,-0.009543,-0.009662
3178,-0.010555,0.006231,-0.009662
3179,-0.033523,-0.009543,-0.009662
3180,-0.010555,-0.009543,0.004761
3181,0.058346,-0.009543,-0.009662
3182,-0.033523,-0.025317,-0.009662
3183,-0.010555,-0.009543,-0.009662
3184,-0.010555,-0.025317,-0.009662
3185,-0.010555,0.006231,-0.009662
3186,-0.033523,0.006231,-0.024086
3187,-0.05649,-0.025317,0.019185
3188,-0.010555,0.006231,-0.009662
3189,0.035379,-0.041091,0.004761
3190,-0.010555,-0.009543,0.004761
3191,-0.033523,0.006231,-0.009662
3192,0.058346,0.006231,0.004761
3193,0.012412,-0.009543,-0.009662
3194,-0.05649,0.006231,-0.009662
3195,0.035379,0.006231,0.004761
3196,0.012412,-0.009543,-0.009662
3197,-0.033523,-0.009543,-0.009662
3198,0.012412,-0.009543,0.019185
3199,-0.05649,-0.025317,-0.009662
3200,0.012412,-0.009543,0.004761
3201,0.012412,-0.009543,-0.009662
3202,0.058346,-0.009543,0.004761
3203,0.012412,-0.009543,0.004761
3204,0.012412,-0.009543,-0.009662
3205,0.012412,-0.009543,-0.024086
3206,0.012412,-0.009543,-0.009662
3207,0.012412,-0.009543,0.019185
3208,0.012412,-0.009543,0.019185
3209,-0.010555,-0.009543,0.019185
3210,0.035379,-0.009543,-0.009662
3211,-0.033523,-0.009543,-0.009662
3212,0.035379,-0.025317,0.004761
3213,-0.010555,-0.009543,-0.009662
3214,-0.033523,-0.025317,-0.009662
3215,0.012412,-0.009543,0.004761
3216,0.012412,0.006231,-0.009662
3217,-0.033523,0.006231,0.033609
3218,-0.010555,-0.009543,0.004761
3219,-0.033523,-0.025317,-0.009662
3220,-0.033523,-0.009543,0.004761
3221,-0.010555,0.006231,-0.009662
3222,0.035379,0.006231,0.019185
3223,-0.033523,-0.009543,0.004761
3224,0.012412,-0.009543,-0.024086
3225,-0.05649,-0.025317,-0.009662
3226,-0.010555,-0.025317,-0.024086
3227,-0.033523,-0.009543,-0.024086
3228,-0.033523,0.006231,-0.03851
3229,-0.010555,0.022005,0.004761
3230,-0.010555,0.006231,-0.009662
3231,0.012412,0.022005,0.004761
3232,0.058346,-0.009543,-0.009662
3233,0.012412,-0.009543,-0.009662
3234,0.035379,-0.009543,0.019185
3235,0.035379,0.022005,0.004761
3236,0.035379,0.006231,0.019185
3237,0.035379,-0.009543,0.004761
3238,0.012412,-0.025317,0.019185
3239,0.012412,-0.041091,-0.024086
3240,0.035379,0.006231,-0.024086
3241,0.012412,-0.041091,0.004761
3242,-0.010555,-0.025317,-0.024086
3243,-0.010555,-0.009543,-0.009662
3244,0.035379,-0.009543,-0.03851
3245,0.035379,0.006231,-0.009662
3246,0.012412,-0.009543,0.004761
3247,-0.033523,-0.025317,0.004761
3248,0.035379,-0.009543,-0.024086
3249,0.035379,-0.009543,0.004761
3250,-0.033523,-0.009543,-0.009662
3251,-0.033523,-0.025317,-0.024086
3252,0.058346,-0.025317,-0.024086
3253,-0.010555,0.022005,-0.009662
3254,-0.010555,-0.009543,0.004761
3255,-0.033523,-0.009543,-0.024086
3256,-0.05649,-0.009543,-0.009662
3257,0.012412,-0.009543,-0.009662
3258,-0.010555,0.006231,0.004761
3259,-0.033523,0.006231,0.019185
3260,0.012412,-0.009543,-0.024086
3261,-0.033523,-0.025317,-0.024086
3262,-0.010555,0.006231,0.004761
3263,-0.010555,-0.025317,-0.009662
3264,-0.010555,-0.009543,0.019185
3265,-0.033523,-0.009543,-0.024086
3266,0.012412,0.006231,0.004761
3267,-0.033523,-0.025317,0.004761
3268,0.012412,-0.009543,0.004761
3269,0.035379,0.006231,0.004761
3270,-0.010555,-0.009543,0.019185
3271,0.012412,-0.009543,-0.009662
3272,0.081313,-0.009543,-0.009662
3273,0.058346,0.006231,-0.009662
3274,0.012412,-0.009543,-0.009662
3275,0.035379,-0.009543,-0.009662
3276,0.012412,-0.056865,-0.009662
3277,0.012412,-0.025317,0.004761
3278,-0.010555,-0.009543,-0.024086
3279,0.035379,-0.025317,-0.009662
3280,0.081313,-0.009543,0.019185
3281,-0.010555,-0.025317,-0.009662
3282,0.058346,0.022005,0.019185
3283,0.058346,0.022005,0.062456
3284,0.035379,0.022005,0.033609
3285,-0.05649,-0.009543,0.004761
3286,-0.079457,-0.025317,-0.03851
3287,-0.010555,-0.025317,-0.024086
3288,-0.033523,-0.025317,-0.024086
3289,-0.010555,-0.041091,-0.009662
3290,-0.033523,0.006231,-0.009662
3291,-0.033523,-0.025317,-0.03851
3292,-0.05649,-0.025317,-0.03851
3293,-0.079457,0.006231,-0.009662
3294,-0.010555,0.006231,-0.009662
3295,-0.010555,-0.009543,-0.024086
3296,-0.010555,-0.041091,0.004761
3297,-0.033523,0.006231,0.004761
3298,0.012412,-0.009543,-0.009662
3299,0.012412,-0.009543,0.004761
3300,0.058346,-0.009543,-0.009662
3301,0.012412,-0.025317,-0.009662
3302,0.035379,-0.041091,0.004761
3303,0.012412,-0.009543,-0.024086
3304,0.035379,-0.009543,-0.009662
3305,-0.010555,-0.025317,-0.009662
3306,0.035379,-0.009543,-0.009662
3307,0.012412,-0.009543,-0.03851
3308,0.058346,-0.025317,-0.009662
3309,0.035379,0.006231,0.004761
3310,0.012412,0.006231,0.004761
3311,0.058346,-0.009543,0.004761
3312,0.012412,-0.025317,-0.009662
3313,-0.033523,-0.009543,-0.009662
3314,0.035379,0.006231,0.004761
3315,0.035379,0.006231,-0.009662
3316,0.012412,-0.025317,0.004761
3317,0.012412,-0.009543,0.004761
3318,0.058346,-0.025317,-0.009662
3319,-0.010555,0.006231,-0.009662
3320,0.012412,-0.009543,0.004761
3321,-0.033523,-0.009543,0.004761
3322,-0.033523,-0.009543,0.004761
3323,-0.010555,-0.009543,-0.03851
3324,-0.010555,-0.009543,-0.009662
3325,-0.033523,-0.009543,0.004761
3326,-0.010555,-0.009543,0.004761
3327,-0.010555,-0.009543,-0.009662
3328,-0.010555,-0.009543,-0.009662
3329,0.012412,-0.009543,0.019185
3330,0.035379,-0.009543,0.004761
3331,0.012412,-0.009543,0.004761
3332,-0.033523,-0.009543,0.019185
3333,-0.033523,-0.009543,-0.009662
3334,-0.05649,0.006231,-0.024086
3335,0.035379,-0.025317,-0.009662
3336,-0.010555,-0.009543,-0.024086
3337,-0.010555,-0.009543,-0.009662
3338,0.058346,-0.025317,0.004761
3339,0.058346,0.006231,0.004761
3340,0.012412,-0.025317,-0.009662
3341,-0.010555,0.006231,-0.009662
3342,0.012412,-0.009543,0.048033
3343,-0.033523,-0.009543,0.004761
3344,-0.010555,-0.009543,-0.009662
3345,-0.010555,-0.009543,0.004761
3346,-0.010555,-0.025317,-0.009662
3347,0.058346,-0.025317,-0.009662
3348,0.035379,-0.009543,0.004761
3349,0.012412,-0.009543,0.019185
3350,0.012412,-0.009543,-0.009662
3351,0.012412,-0.009543,0.004761
3352,0.012412,-0.025317,-0.024086
3353,-0.033523,-0.025317,-0.009662
3354,0.035379,-0.025317,0.004761
3355,0.012412,-0.009543,0.019185
3356,0.012412,0.006231,0.004761
3357,-0.010555,0.006231,-0.009662
3358,0.012412,-0.009543,-0.024086
3359,-0.010555,-0.025317,-0.024086
3360,-0.010555,-0.025317,-0.009662
3361,-0.010555,-0.009543,-0.009662
3362,-0.05649,-0.009543,0.004761
3363,-0.010555,-0.009543,-0.009662
3364,-0.010555,0.006231,-0.009662
3365,-0.05649,-0.009543,-0.024086
3366,0.035379,-0.025317,-0.024086
3367,-0.010555,-0.009543,-0.009662
3368,-0.010555,0.006231,0.004761
3369,-0.033523,-0.025317,-0.009662
3370,0.035379,-0.025317,0.004761
3371,0.035379,-0.025317,0.004761
3372,-0.033523,-0.025317,0.004761
3373,0.012412,-0.009543,-0.009662
3374,0.012412,-0.025317,-0.009662
3375,0.035379,-0.025317,-0.009662
3376,0.035379,0.022005,-0.009662
3377,0.035379,-0.009543,-0.009662
3378,0.012412,-0.025317,0.004761
3379,0.012412,-0.009543,0.004761
3380,0.012412,-0.009543,0.019185
3381,0.012412,0.006231,0.019185
3382,0.012412,0.006231,0.004761
3383,0.035379,-0.009543,0.004761
3384,0.012412,-0.009543,0.004761
3385,-0.010555,-0.009543,-0.024086
3386,0.012412,-0.009543,-0.009662
3387,-0.010555,-0.025317,0.004761
3388,0.035379,-0.009543,-0.009662
3389,0.012412,-0.009543,-0.009662
3390,0.012412,-0.009543,-0.009662
3391,-0.010555,-0.009543,-0.024086
3392,-0.010555,-0.009543,-0.009662
3393,-0.05649,-0.009543,-0.009662
3394,0.012412,-0.009543,-0.009662
3395,-0.033523,0.006231,0.004761
3396,-0.010555,-0.009543,-0.009662
3397,-0.033523,0.006231,0.004761
3398,0.012412,-0.009543,-0.009662
3399,-0.010555,-0.009543,0.004761
3400,-0.010555,0.006231,-0.009662
3401,-0.05649,-0.009543,-0.009662
3402,-0.010555,-0.025317,0.004761
3403,-0.010555,-0.025317,0.019185
3404,-0.033523,0.006231,-0.009662
3405,0.012412,-0.009543,0.004761
3406,-0.010555,-0.025317,0.019185
3407,-0.010555,-0.009543,-0.009662
3408,-0.010555,-0.009543,0.004761
3409,-0.010555,0.006231,0.004761
3410,0.012412,-0.025317,0.019185
3411,0.012412,-0.025317,-0.009662
3412,0.012412,0.022005,0.004761
3413,0.012412,-0.009543,0.004761
3414,0.035379,0.006231,0.019185
3415,0.012412,-0.009543,-0.009662
3416,-0.033523,-0.009543,-0.009662
3417,0.035379,-0.009543,-0.024086
3418,0.058346,0.006231,-0.009662
3419,-0.010555,-0.009543,-0.024086
3420,0.035379,-0.009543,-0.024086
3421,0.012412,-0.025317,-0.009662
3422,0.012412,-0.025317,0.004761
3423,-0.010555,-0.009543,-0.009662
3424,-0.010555,-0.009543,0.004761
3425,0.035379,0.006231,-0.009662
3426,-0.010555,-0.009543,-0.009662
3427,0.035379,-0.025317,-0.009662
3428,-0.010555,-0.025317,0.004761
3429,0.012412,0.006231,0.019185
3430,-0.010555,-0.025317,0.019185
3431,-0.05649,0.006231,0.004761
3432,-0.033523,-0.041091,0.004761
3433,-0.05649,-0.025317,-0.024086
3434,-0.033523,-0.009543,-0.009662
3435,-0.010555,-0.009543,-0.009662
3436,-0.033523,-0.009543,0.004761
3437,0.012412,-0.009543,0.019185
3438,-0.010555,-0.025317,-0.009662
3439,-0.033523,-0.025317,-0.009662
3440,-0.033523,-0.025317,-0.009662
3441,-0.033523,-0.025317,0.004761
3442,-0.05649,-0.025317,0.004761
3443,-0.010555,-0.025317,0.004761
3444,0.058346,-0.025317,0.004761
3445,0.035379,-0.009543,0.004761
3446,0.035379,-0.025317,0.004761
3447,0.012412,-0.009543,-0.009662
3448,0.012412,-0.041091,-0.009662
3449,0.012412,-0.009543,-0.009662
3450,0.035379,-0.009543,-0.024086
3451,-0.010555,-0.025317,-0.009662
3452,-0.010555,-0.056865,-0.009662
3453,0.035379,-0.025317,-0.009662
3454,0.058346,0.006231,0.048033
3455,0.012412,-0.009543,-0.009662
3456,-0.010555,0.022005,0.004761
3457,0.081313,-0.009543,-0.009662
3458,0.012412,0.006231,-0.009662
3459,-0.010555,-0.025317,-0.009662
3460,0.012412,0.006231,-0.009662
3461,0.081313,-0.009543,0.004761
3462,-0.033523,-0.025317,0.019185
3463,0.012412,-0.009543,0.019185
3464,-0.033523,-0.009543,-0.024086
3465,-0.033523,-0.025317,-0.009662
3466,-0.010555,-0.009543,-0.024086
3467,-0.010555,-0.041091,0.004761
3468,-0.033523,-0.025317,0.004761
3469,0.012412,-0.009543,0.004761
3470,0.035379,-0.009543,0.019185
3471,-0.033523,-0.009543,0.004761
3472,0.012412,-0.025317,0.004761
3473,0.012412,-0.009543,0.004761
3474,-0.010555,-0.009543,0.004761
3475,-0.010555,-0.009543,-0.009662
3476,-0.010555,-0.009543,0.019185
3477,-0.010555,-0.009543,0.004761
3478,-0.033523,0.006231,-0.024086
3479,-0.010555,-0.009543,-0.03851
3480,-0.010555,-0.025317,-0.009662
3481,-0.033523,-0.009543,0.004761
3482,0.035379,-0.009543,-0.024086
3483,0.012412,0.006231,-0.009662
3484,0.012412,-0.009543,-0.024086
3485,0.012412,-0.009543,0.019185
3486,0.012412,0.006231,0.004761
3487,0.035379,0.006231,-0.009662
3488,-0.010555,-0.025317,-0.009662
3489,0.012412,-0.041091,-0.009662
3490,-0.010555,-0.025317,0.004761
3491,0.012412,-0.025317,-0.009662
3492,0.058346,-0.009543,-0.009662
3493,0.035379,0.006231,0.019185
3494,0.035379,-0.009543,0.004761
3495,-0.010555,-0.025317,-0.009662
3496,0.058346,-0.025317,-0.009662
3497,0.012412,-0.025317,0.004761
3498,-0.010555,-0.009543,0.004761
3499,0.012412,-0.009543,0.004761
3500,0.035379,-0.009543,-0.024086
3501,0.012412,-0.009543,-0.009662
3502,-0.010555,-0.009543,0.004761
3503,-0.05649,-0.009543,-0.009662
3504,-0.033523,0.006231,-0.024086
3505,-0.010555,-0.009543,-0.024086
3506,-0.010555,0.006231,-0.009662
3507,-0.010555,-0.009543,0.004761
3508,-0.010555,-0.041091,0.004761
3509,0.012412,0.006231,0.004761
3510,-0.010555,0.006231,0.004761
3511,-0.033523,-0.025317,-0.009662
3512,0.012412,-0.041091,-0.009662
3513,0.012412,-0.009543,-0.024086
3514,-0.033523,-0.025317,0.004761
3515,0.012412,-0.025317,-0.009662
3516,0.012412,-0.009543,-0.009662
3517,0.012412,-0.009543,0.004761
3518,-0.05649,-0.009543,0.004761
3519,0.012412,-0.009543,0.004761
3520,0.012412,-0.009543,-0.009662
3521,0.012412,-0.009543,0.004761
3522,-0.033523,0.006231,0.019185
3523,0.012412,0.006231,0.004761
3524,-0.033523,-0.056865,0.019185
3525,0.012412,-0.009543,-0.024086
3526,-0.010555,-0.025317,-0.024086
3527,0.012412,0.006231,-0.024086
3528,0.058346,-0.025317,-0.03851
3529,0.058346,-0.056865,0.004761
3530,-0.033523,-0.025317,-0.009662
3531,0.012412,-0.025317,-0.024086
3532,0.035379,-0.009543,-0.009662
3533,0.035379,0.006231,0.004761
3534,0.012412,-0.041091,0.019185
3535,-0.010555,-0.009543,0.004761
3536,0.012412,0.006231,0.004761
3537,-0.033523,-0.025317,-0.024086
3538,-0.033523,-0.009543,-0.009662
3539,0.012412,-0.009543,-0.009662
3540,0.081313,-0.025317,-0.009662
3541,-0.010555,-0.009543,0.004761
3542,-0.05649,-0.009543,0.004761
3543,-0.033523,-0.009543,0.019185
3544,0.012412,-0.009543,-0.009662
3545,-0.033523,-0.009543,0.004761
3546,0.012412,-0.025317,-0.009662
3547,-0.010555,-0.025317,0.004761
3548,-0.010555,-0.009543,-0.024086
3549,0.012412,-0.009543,0.004761
3550,-0.033523,0.006231,0.004761
3551,-0.033523,0.006231,-0.009662
3552,0.035379,-0.009543,-0.009662
3553,-0.05649,-0.009543,0.004761
3554,-0.05649,0.006231,-0.009662
3555,0.012412,-0.025317,-0.009662
3556,0.035379,-0.009543,0.004761
3557,0.012412,-0.025317,-0.024086
3558,0.012412,-0.025317,0.004761
3559,0.035379,-0.009543,-0.009662
3560,0.058346,0.006231,0.004761
3561,0.058346,-0.009543,0.004761
3562,0.012412,0.006231,0.004761
3563,0.035379,-0.009543,-0.009662
3564,0.012412,-0.025317,-0.009662
3565,0.012412,0.006231,0.019185
3566,0.058346,0.006231,0.019185
3567,0.012412,0.006231,0.004761
3568,0.035379,-0.009543,-0.009662
3569,0.012412,-0.025317,-0.009662
3570,-0.033523,-0.025317,0.019185
3571,0.012412,-0.025317,0.004761
3572,-0.05649,-0.009543,0.004761
3573,-0.010555,-0.025317,-0.024086
3574,-0.010555,-0.041091,-0.024086
3575,0.035379,-0.009543,0.004761
3576,-0.010555,-0.009543,-0.009662
3577,-0.033523,-0.009543,-0.009662
3578,-0.010555,0.006231,-0.024086
3579,-0.033523,-0.009543,0.004761
3580,-0.033523,-0.009543,-0.009662
3581,-0.033523,-0.009543,-0.009662
3582,-0.033523,-0.009543,-0.009662
3583,-0.010555,0.006231,-0.009662
3584,-0.033523,-0.025317,-0.009662
3585,-0.010555,-0.009543,-0.009662
3586,0.012412,-0.009543,-0.024086
3587,0.012412,-0.009543,-0.009662
3588,-0.010555,-0.009543,0.004761
3589,0.012412,-0.025317,0.048033
