# Requested Sampling Rate (Hz):,1000
# Actual Sampling Rate (Hz):,999.319
# Requested Duration (s):,5.0
# Actual Duration (s):,5.05
# REST Calibration:,831.4595862068991,832.6049655172403,833.6698965517227
# MAX Calibration:,875.0000,896.0000,903.0000
# Normalization: MVC-based  (x_norm = (x - REST) / (MAX - REST))
sample_idx,EMG1,EMG2,EMG3
0,0.035379,-0.025317,-0.009662
1,-0.010555,0.006231,-0.009662
2,0.012412,-0.009543,0.019185
3,-0.010555,-0.025317,-0.009662
4,-0.033523,-0.009543,-0.009662
5,-0.010555,0.006231,-0.009662
6,0.012412,-0.009543,-0.009662
7,0.012412,0.006231,0.004761
8,-0.010555,0.006231,0.004761
9,-0.05649,-0.025317,0.004761
10,-0.010555,-0.009543,-0.009662
11,-0.033523,-0.009543,-0.009662
12,-0.033523,-0.009543,-0.009662
13,0.035379,-0.009543,-0.009662
14,-0.033523,-0.009543,-0.024086
15,-0.033523,-0.025317,0.004761
16,0.035379,-0.009543,-0.009662
17,0.035379,0.006231,0.019185
18,0.035379,-0.009543,-0.009662
19,-0.033523,-0.009543,0.004761
20,0.058346,-0.025317,-0.024086
21,0.035379,-0.025317,0.004761
22,0.058346,-0.025317,0.019185
23,-0.010555,-0.009543,0.004761
24,-0.010555,0.006231,0.004761
25,-0.033523,-0.009543,-0.009662
26,-0.033523,-0.041091,0.048033
27,-0.033523,-0.009543,-0.024086
28,0.012412,-0.025317,-0.009662
29,0.035379,-0.009543,0.004761
30,-0.010555,-0.009543,0.004761
31,-0.010555,-0.025317,-0.009662
32,-0.010555,-0.025317,0.004761
33,0.012412,-0.009543,-0.009662
34,-0.010555,-0.009543,0.004761
35,-0.033523,-0.009543,0.004761
36,-0.033523,-0.025317,-0.009662
37,-0.033523,-0.009543,0.004761
38,-0.010555,-0.025317,-0.024086
39,-0.033523,-0.025317,-0.009662
40,-0.033523,-0.009543,-0.009662
41,-0.033523,-0.009543,-0.009662
42,-0.05649,-0.009543,0.004761
43,-0.033523,0.006231,0.004761
44,-0.05649,-0.009543,0.004761
45,-0.05649,-0.025317,-0.009662
46,-0.010555,-0.025317,-0.024086
47,-0.010555,-0.025317,0.004761
48,-0.010555,-0.009543,-0.009662
49,0.058346,-0.025317,0.004761
50,0.058346,0.006231,0.004761
51,0.035379,-0.009543,0.004761
52,0.058346,-0.009543,0.004761
53,-0.033523,-0.009543,-0.009662
54,0.035379,-0.009543,-0.009662
55,0.058346,-0.025317,-0.024086
56,0.012412,-0.025317,-0.009662
57,0.058346,-0.009543,-0.024086
58,0.012412,-0.009543,0.004761
59,0.012412,0.006231,-0.009662
60,-0.010555,0.006231,0.004761
61,0.058346,-0.009543,0.004761
62,-0.010555,-0.025317,0.004761
63,0.012412,-0.009543,-0.009662
64,-0.010555,-0.009543,0.019185
65,-0.05649,0.022005,-0.009662
66,0.035379,-0.025317,0.004761
67,-0.05649,0.006231,0.004761
68,-0.033523,-0.009543,0.004761
69,0.012412,0.006231,-0.009662
70,-0.010555,-0.009543,-0.009662
71,-0.010555,0.006231,0.019185
72,0.012412,-0.025317,0.004761
73,-0.033523,-0.025317,-0.009662
74,0.058346,-0.009543,0.004761
75,-0.033523,-0.009543,-0.009662
76,0.035379,0.006231,-0.009662
77,0.012412,-0.025317,-0.009662
78,0.012412,-0.041091,-0.009662
79,0.012412,0.022005,-0.009662
80,0.035379,-0.009543,-0.009662
81,0.012412,-0.009543,-0.009662
82,0.012412,-0.009543,0.004761
83,0.035379,-0.009543,0.019185
84,0.012412,0.022005,0.048033
85,0.012412,-0.009543,0.004761
86,-0.010555,-0.009543,0.004761
87,-0.010555,0.006231,-0.009662
88,0.035379,-0.009543,-0.009662
89,0.012412,-0.025317,-0.009662
90,0.012412,0.006231,0.004761
91,-0.010555,-0.025317,0.004761
92,-0.033523,-0.025317,-0.009662
93,-0.010555,-0.025317,-0.009662
94,-0.033523,0.006231,-0.009662
95,-0.05649,-0.009543,0.019185
96,0.035379,-0.009543,0.004761
97,-0.010555,-0.009543,0.019185
98,-0.05649,-0.009543,-0.009662
99,0.012412,-0.009543,-0.009662
100,-0.010555,-0.025317,-0.024086
101,-0.010555,-0.009543,-0.009662
102,0.012412,-0.025317,-0.009662
103,0.035379,0.006231,-0.024086
104,0.058346,-0.009543,0.004761
105,0.035379,-0.025317,-0.009662
106,0.012412,-0.025317,0.004761
107,0.035379,-0.056865,-0.03851
108,0.012412,-0.025317,-0.024086
109,-0.010555,-0.009543,-0.024086
110,0.012412,0.006231,0.004761
111,-0.010555,-0.009543,0.004761
112,-0.010555,0.006231,0.004761
113,-0.010555,-0.009543,-0.009662
114,-0.033523,-0.009543,0.004761
115,0.081313,-0.025317,-0.009662
116,0.012412,0.022005,-0.009662
117,-0.010555,-0.009543,0.004761
118,-0.010555,-0.025317,-0.009662
119,-0.010555,-0.009543,-0.009662
120,0.035379,0.006231,0.004761
121,0.012412,-0.025317,-0.009662
122,-0.010555,-0.025317,-0.009662
123,-0.010555,0.006231,-0.009662
124,0.012412,-0.009543,-0.009662
125,-0.010555,-0.009543,-0.009662
126,0.012412,-0.025317,-0.009662
127,0.058346,-0.009543,0.004761
128,0.012412,-0.009543,0.004761
129,-0.033523,-0.009543,0.004761
130,0.012412,0.006231,0.004761
131,0.035379,-0.009543,0.004761
132,-0.079457,-0.009543,-0.009662
133,0.012412,0.006231,-0.009662
134,0.058346,-0.009543,-0.009662
135,0.058346,-0.025317,0.004761
136,0.035379,-0.009543,-0.009662
137,0.035379,-0.009543,-0.009662
138,0.058346,0.006231,-0.009662
139,-0.010555,-0.009543,-0.009662
140,-0.010555,-0.025317,-0.009662
141,0.012412,-0.009543,0.004761
142,0.058346,-0.009543,0.004761
143,-0.010555,-0.009543,0.004761
144,0.035379,-0.009543,-0.009662
145,-0.010555,-0.009543,0.019185
146,0.035379,-0.025317,0.019185
147,0.012412,-0.009543,0.004761
148,-0.010555,-0.009543,0.004761
149,0.035379,0.022005,0.004761
150,0.012412,0.006231,0.019185
151,-0.033523,-0.009543,0.004761
152,-0.079457,-0.009543,0.004761
153,-0.033523,-0.009543,-0.024086
154,0.012412,-0.041091,-0.009662
155,0.012412,0.006231,-0.009662
156,-0.010555,0.006231,-0.009662
157,0.058346,-0.009543,0.004761
158,-0.010555,-0.009543,0.004761
159,-0.033523,-0.009543,0.004761
160,0.012412,-0.009543,0.004761
161,0.012412,-0.025317,-0.024086
162,0.012412,-0.025317,-0.009662
163,0.035379,-0.025317,-0.009662
164,0.058346,-0.009543,0.004761
165,0.081313,0.006231,-0.009662
166,0.035379,-0.025317,-0.009662
167,-0.033523,-0.041091,0.004761
168,-0.010555,-0.041091,0.004761
169,0.058346,0.069328,0.019185
170,-0.010555,0.006231,-0.009662
171,-0.010555,-0.009543,0.004761
172,0.035379,0.006231,-0.009662
173,-0.010555,0.006231,0.004761
174,0.012412,-0.025317,-0.009662
175,0.012412,-0.009543,0.004761
176,0.012412,-0.009543,0.004761
177,0.012412,-0.025317,0.004761
178,-0.010555,0.006231,0.004761
179,0.012412,0.006231,0.004761
180,-0.033523,-0.009543,0.004761
181,-0.010555,0.006231,0.019185
182,-0.033523,-0.025317,0.004761
183,-0.033523,-0.009543,-0.024086
184,0.012412,-0.009543,-0.009662
185,-0.010555,-0.009543,-0.009662
186,-0.033523,-0.009543,0.019185
187,-0.010555,-0.009543,0.004761
188,0.012412,-0.009543,0.019185
189,-0.033523,-0.009543,-0.009662
190,0.012412,0.006231,0.004761
191,-0.010555,-0.025317,-0.009662
192,0.035379,0.006231,-0.009662
193,0.058346,-0.009543,0.004761
194,-0.010555,-0.009543,-0.009662
195,0.058346,-0.009543,-0.009662
196,-0.010555,-0.025317,-0.009662
197,0.012412,-0.009543,-0.024086
198,0.012412,0.006231,-0.009662
199,-0.010555,0.006231,-0.009662
200,0.035379,-0.009543,-0.009662
201,0.035379,-0.025317,-0.009662
202,0.012412,-0.009543,0.019185
203,0.012412,-0.009543,0.004761
204,-0.010555,-0.025317,0.019185
205,0.012412,-0.025317,0.033609
206,0.012412,-0.009543,-0.009662
207,-0.033523,-0.009543,0.004761
208,0.012412,-0.025317,-0.009662
209,0.012412,-0.009543,-0.009662
210,-0.033523,-0.009543,-0.009662
211,-0.033523,-0.009543,0.004761
212,-0.033523,0.006231,0.004761
213,-0.033523,0.006231,0.004761
214,0.012412,-0.025317,-0.009662
215,-0.010555,-0.009543,-0.024086
216,0.012412,-0.009543,-0.024086
217,-0.010555,0.006231,-0.009662
218,0.035379,0.022005,-0.009662
219,0.012412,-0.009543,0.019185
220,-0.010555,-0.009543,0.004761
221,-0.010555,0.006231,0.019185
222,0.012412,-0.009543,-0.009662
223,0.012412,-0.009543,-0.009662
224,0.012412,-0.009543,-0.009662
225,0.012412,0.022005,0.004761
226,-0.010555,-0.009543,0.004761
227,0.012412,-0.009543,0.004761
228,-0.033523,-0.009543,0.004761
229,0.012412,0.006231,0.019185
230,0.035379,-0.009543,-0.009662
231,0.012412,-0.009543,-0.009662
232,0.012412,-0.009543,0.004761
233,0.058346,-0.025317,-0.009662
234,0.081313,0.006231,0.004761
235,0.035379,-0.009543,0.004761
236,0.035379,-0.009543,0.019185
237,-0.010555,-0.025317,-0.009662
238,-0.033523,-0.009543,-0.024086
239,0.035379,-0.025317,-0.024086
240,0.058346,-0.025317,-0.024086
241,0.035379,-0.009543,-0.024086
242,-0.010555,-0.009543,-0.009662
243,-0.010555,0.006231,0.004761
244,-0.033523,-0.025317,0.004761
245,-0.033523,-0.025317,0.019185
246,-0.010555,-0.009543,-0.009662
247,-0.033523,-0.025317,-0.009662
248,-0.05649,-0.009543,-0.024086
249,-0.033523,0.006231,0.019185
250,-0.05649,-0.009543,0.004761
251,-0.033523,-0.041091,-0.009662
252,-0.033523,-0.009543,-0.024086
253,0.012412,-0.025317,-0.009662
254,0.058346,-0.009543,0.004761
255,0.127248,-0.009543,0.019185
256,-0.010555,-0.009543,0.004761
257,0.035379,0.006231,0.004761
258,0.035379,0.022005,-0.009662
259,0.058346,-0.025317,0.004761
260,0.012412,-0.009543,-0.009662
261,-0.05649,-0.025317,0.004761
262,-0.033523,-0.009543,0.004761
263,-0.033523,0.022005,-0.009662
264,-0.010555,0.022005,-0.009662
265,0.012412,0.006231,-0.024086
266,0.012412,0.022005,-0.009662
267,0.012412,-0.009543,-0.009662
268,0.012412,-0.025317,0.004761
269,-0.079457,-0.056865,-0.009662
270,-0.05649,-0.056865,0.004761
271,-0.05649,-0.025317,0.004761
272,-0.05649,-0.025317,0.048033
273,0.10428,-0.009543,-0.009662
274,0.265051,0.006231,-0.024086
275,0.310985,0.006231,-0.009662
276,0.265051,0.006231,-0.009662
277,0.196149,-0.025317,-0.024086
278,0.081313,0.006231,-0.03851
279,-0.125391,0.006231,0.004761
280,-0.286161,0.006231,0.004761
281,-0.125391,0.006231,-0.009662
282,-0.079457,-0.009543,-0.024086
283,-0.079457,0.006231,-0.024086
284,-0.125391,-0.025317,-0.009662
285,-0.05649,-0.056865,0.004761
286,0.035379,-0.025317,0.004761
287,-0.010555,-0.009543,0.004761
288,0.012412,-0.009543,0.004761
289,0.012412,-0.056865,0.004761
290,0.035379,-0.041091,0.004761
291,0.035379,-0.009543,0.004761
292,0.035379,0.03778,0.019185
293,0.10428,0.053554,0.019185
294,0.058346,0.053554,-0.009662
295,0.012412,0.022005,-0.009662
296,-0.033523,-0.041091,-0.009662
297,0.058346,-0.072639,0.004761
298,0.035379,-0.025317,0.004761
299,0.035379,-0.025317,0.004761
300,0.012412,-0.009543,-0.009662
301,-0.033523,-0.025317,-0.009662
302,-0.05649,-0.009543,0.004761
303,-0.079457,-0.009543,0.004761
304,-0.079457,-0.009543,-0.009662
305,0.012412,-0.009543,-0.009662
306,-0.102424,0.006231,0.004761
307,-0.05649,0.006231,-0.009662
308,-0.125391,0.022005,0.004761
309,-0.010555,0.006231,-0.009662
310,0.035379,0.006231,0.019185
311,0.058346,-0.009543,0.004761
312,0.081313,-0.072639,-0.009662
313,0.035379,-0.025317,0.004761
314,-0.033523,0.132424,-0.009662
315,0.058346,0.195521,-0.009662
316,0.035379,0.305939,-0.009662
317,0.081313,0.305939,-0.009662
318,0.196149,0.242843,0.004761
319,0.242083,0.11665,-0.024086
320,0.242083,-0.009543,-0.009662
321,0.127248,-0.135736,-0.009662
322,0.035379,-0.198832,-0.024086
323,-0.05649,-0.214606,-0.009662
324,-0.171326,-0.23038,-0.024086
325,-0.21726,-0.23038,-0.052934
326,-0.355063,-0.198832,-0.024086
327,-0.309129,-0.135736,0.004761
328,-0.079457,-0.088413,0.019185
329,0.081313,-0.041091,-0.009662
330,0.081313,-0.025317,-0.009662
331,0.081313,-0.025317,0.019185
332,0.219116,-0.041091,-0.009662
333,0.127248,-0.041091,-0.009662
334,0.058346,-0.009543,-0.009662
335,0.035379,0.022005,-0.009662
336,-0.05649,0.03778,0.004761
337,-0.263194,0.006231,-0.009662
338,-0.171326,0.006231,-0.024086
339,0.265051,-0.009543,-0.024086
340,0.724394,0.006231,-0.009662
341,0.747361,0.022005,0.004761
342,0.724394,-0.009543,-0.009662
343,0.540657,-0.009543,-0.009662
344,0.127248,-0.025317,0.004761
345,-0.355063,-0.009543,0.019185
346,-0.69957,-0.025317,-0.009662
347,-0.653636,0.022005,-0.009662
348,-0.37803,0.03778,0.004761
349,0.035379,0.11665,0.004761
350,0.150215,0.132424,0.004761
351,0.196149,0.053554,0.004761
352,0.127248,-0.025317,0.004761
353,0.058346,-0.104187,-0.024086
354,0.219116,-0.104187,-0.009662
355,0.265051,0.006231,-0.024086
356,-0.079457,0.022005,-0.009662
357,-0.286161,0.006231,0.004761
358,-0.102424,-0.009543,0.019185
359,-0.079457,-0.041091,-0.009662
360,-0.05649,-0.104187,-0.024086
361,-0.125391,-0.104187,-0.024086
362,-0.37803,-0.072639,-0.024086
363,-0.125391,-0.041091,-0.009662
364,-0.05649,-0.009543,-0.009662
365,0.035379,0.022005,0.004761
366,-0.033523,0.053554,0.004761
367,0.012412,0.022005,0.004761
368,0.012412,0.006231,0.019185
369,0.035379,-0.041091,0.019185
370,0.012412,-0.072639,0.004761
371,0.058346,-0.056865,0.004761
372,0.035379,-0.041091,-0.009662
373,0.012412,-0.056865,-0.024086
374,-0.102424,-0.009543,-0.009662
375,-0.05649,0.006231,-0.024086
376,-0.079457,0.006231,-0.024086
377,-0.102424,-0.009543,-0.009662
378,-0.033523,-0.041091,-0.009662
379,-0.033523,-0.041091,0.004761
380,-0.033523,-0.056865,0.004761
381,-0.079457,-0.072639,0.004761
382,-0.079457,-0.056865,0.004761
383,-0.05649,0.006231,-0.009662
384,-0.079457,0.006231,0.004761
385,-0.033523,0.03778,-0.009662
386,0.242083,0.053554,0.004761
387,0.356919,0.100876,0.004761
388,0.379886,0.163972,0.004761
389,0.219116,0.11665,0.004761
390,0.173182,0.132424,-0.009662
391,-0.079457,0.290165,0.004761
392,0.356919,0.274391,0.004761
393,0.379886,0.163972,0.004761
394,0.196149,0.227069,0.033609
395,-0.033523,0.195521,0.033609
396,-0.5388,0.163972,0.048033
397,-0.676603,0.11665,0.033609
398,-0.998144,-0.104187,-0.009662
399,-1.181881,-0.183058,-0.067357
400,-0.814406,-0.167284,-0.009662
401,-0.492866,-0.041091,-0.009662
402,-0.102424,-0.072639,-0.024086
403,0.242083,-0.183058,-0.009662
404,0.448788,-0.183058,-0.024086
405,0.67846,-0.214606,-0.024086
406,0.885164,-0.277703,-0.024086
407,0.862197,-0.23038,-0.024086
408,0.793295,-0.072639,-0.024086
409,0.655492,0.022005,-0.024086
410,0.10428,-0.119962,-0.03851
411,-0.286161,-0.183058,-0.03851
412,-0.148358,-0.088413,0.004761
413,-0.05649,-0.025317,-0.009662
414,-0.010555,0.100876,-0.009662
415,-0.079457,0.069328,0.019185
416,-0.148358,0.022005,0.019185
417,-0.125391,-0.009543,0.019185
418,0.10428,-0.056865,-0.009662
419,0.150215,-0.056865,-0.009662
420,0.196149,-0.072639,0.004761
421,0.219116,-0.119962,0.004761
422,0.058346,-0.119962,0.004761
423,-0.148358,-0.041091,-0.009662
424,-0.148358,-0.056865,0.004761
425,-0.125391,0.006231,0.004761
426,-0.171326,0.069328,-0.009662
427,-0.171326,0.227069,0.019185
428,-0.148358,0.369036,0.033609
429,-0.010555,0.321713,0.019185
430,-0.010555,0.11665,0.004761
431,-0.033523,-0.135736,-0.024086
432,0.081313,-0.072639,0.004761
433,0.471755,0.195521,0.004761
434,0.563624,0.274391,0.004761
435,0.379886,0.179746,-0.024086
436,0.081313,0.195521,-0.009662
437,-0.102424,0.163972,-0.024086
438,-0.446932,0.006231,-0.024086
439,-0.332096,-0.119962,0.004761
440,-0.194293,-0.23038,-0.009662
441,-0.05649,-0.277703,-0.009662
442,-0.171326,-0.325025,0.019185
443,-0.263194,-0.214606,0.004761
444,0.058346,-0.15151,-0.009662
445,0.563624,-0.23038,-0.03851
446,0.356919,-0.183058,-0.009662
447,0.081313,-0.072639,-0.009662
448,0.150215,-0.025317,-0.009662
449,0.035379,0.022005,-0.024086
450,-0.332096,0.100876,-0.024086
451,-0.515833,0.053554,-0.03851
452,0.127248,-0.009543,-0.024086
453,0.219116,-0.088413,-0.009662
454,0.196149,-0.072639,-0.024086
455,0.081313,-0.104187,-0.024086
456,0.150215,-0.056865,-0.03851
457,0.173182,0.03778,-0.009662
458,-0.5388,0.148198,-0.024086
459,-0.722538,0.38481,0.019185
460,-0.423964,0.400584,0.07688
461,-0.194293,0.242843,0.048033
462,0.196149,0.132424,0.004761
463,0.379886,0.069328,-0.024086
464,0.517689,0.006231,-0.03851
465,0.265051,-0.198832,-0.024086
466,0.127248,-0.356573,0.004761
467,0.10428,-0.23038,0.019185
468,0.10428,-0.072639,0.033609
469,-0.010555,0.11665,0.033609
470,0.081313,0.179746,0.004761
471,-0.05649,0.085102,-0.024086
472,-0.332096,0.03778,-0.03851
473,-0.722538,0.006231,-0.03851
474,-0.584735,0.069328,-0.009662
475,-0.400997,0.148198,0.019185
476,-0.286161,0.069328,0.062456
477,-0.148358,-0.041091,-0.009662
478,0.058346,-0.135736,-0.024086
479,0.448788,-0.198832,-0.024086
480,0.563624,-0.119962,-0.024086
481,0.494722,0.069328,-0.009662
482,0.242083,0.006231,-0.009662
483,0.173182,-0.072639,-0.052934
484,0.173182,0.132424,-0.024086
485,0.10428,0.163972,0.004761
486,0.10428,0.085102,0.004761
487,0.035379,-0.056865,-0.009662
488,0.012412,-0.309251,-0.024086
489,0.058346,-0.482766,-0.024086
490,0.058346,-0.403895,-0.024086
491,0.035379,-0.309251,-0.009662
492,0.058346,-0.23038,-0.009662
493,-0.05649,-0.088413,-0.009662
494,-0.033523,-0.025317,-0.024086
495,-0.05649,0.085102,0.004761
496,-0.033523,0.100876,-0.009662
497,-0.033523,0.11665,-0.009662
498,-0.079457,0.085102,0.004761
499,-0.102424,0.053554,-0.009662
500,-0.102424,0.03778,-0.009662
501,-0.079457,0.11665,0.004761
502,-0.079457,0.163972,-0.024086
503,-0.05649,0.148198,-0.009662
504,-0.05649,0.069328,-0.009662
505,0.058346,0.006231,-0.009662
506,0.127248,-0.056865,-0.009662
507,0.379886,-0.072639,-0.009662
508,0.310985,-0.072639,0.004761
509,-0.033523,-0.119962,0.004761
510,-0.423964,-0.104187,0.019185
511,-0.263194,0.006231,0.004761
512,-0.194293,-0.025317,-0.03851
513,-0.286161,0.006231,-0.024086
514,-0.148358,0.022005,-0.009662
515,-0.033523,0.03778,0.004761
516,0.058346,0.006231,-0.009662
517,0.081313,0.006231,-0.024086
518,0.012412,-0.072639,-0.009662
519,0.012412,0.132424,0.004761
520,-0.102424,0.305939,0.019185
521,0.333952,0.38481,0.004761
522,0.977033,0.38481,0.004761
523,0.954066,0.148198,0.004761
524,0.67846,-0.104187,0.004761
525,0.173182,-0.309251,-0.03851
526,-0.286161,-0.277703,-0.024086
527,-0.791439,-0.23038,-0.009662
528,-0.929242,-0.056865,0.004761
529,-0.561767,0.132424,-0.009662
530,-0.05649,0.227069,-0.009662
531,0.173182,0.148198,-0.024086
532,0.10428,-0.072639,-0.03851
533,-0.033523,-0.198832,-0.024086
534,-0.309129,-0.167284,-0.03851
535,-0.5388,0.053554,-0.009662
536,-0.400997,0.179746,-0.009662
537,-0.286161,0.242843,0.004761
538,-0.240227,-0.041091,-0.009662
539,0.012412,-0.261928,-0.009662
540,0.333952,-0.15151,-0.009662
541,0.265051,-0.198832,-0.009662
542,0.310985,-0.104187,0.019185
543,0.173182,-0.041091,0.004761
544,0.035379,-0.104187,0.004761
545,0.035379,-0.104187,0.019185
546,0.219116,0.069328,-0.052934
547,0.219116,0.148198,-0.052934
548,-0.05649,0.022005,-0.024086
549,-0.309129,-0.088413,-0.009662
550,-0.21726,0.148198,0.033609
551,-0.033523,0.353262,0.004761
552,0.265051,0.432132,0.019185
553,0.494722,0.274391,0.004761
554,0.356919,-0.119962,-0.009662
555,0.310985,-0.372347,-0.009662
556,0.081313,-0.577411,-0.052934
557,-0.033523,-0.750926,-0.081781
558,0.173182,-0.340799,-0.024086
559,0.333952,0.053554,0.048033
560,0.242083,0.211295,0.07688
561,-0.010555,0.274391,0.004761
562,-0.332096,0.337488,0.033609
563,-0.768472,0.337488,0.019185
564,-0.722538,0.053554,-0.009662
565,-0.607702,-0.072639,-0.024086
566,-0.079457,0.227069,0.019185
567,0.127248,0.305939,-0.024086
568,0.127248,0.46368,-0.052934
569,0.150215,0.274391,-0.03851
570,0.10428,-0.072639,-0.009662
571,0.127248,-0.293477,0.033609
572,0.173182,-0.577411,0.004761
573,0.242083,-0.608959,-0.009662
574,0.747361,-0.41967,0.004761
575,0.747361,-0.277703,0.033609
576,0.265051,-0.214606,0.019185
577,0.10428,-0.025317,0.019185
578,-0.033523,0.526777,-0.009662
579,-0.5388,1.473223,0.004761
580,-0.400997,1.53632,-0.009662
581,0.012412,1.205063,0.019185
582,0.10428,0.558325,0.019185
583,-0.171326,-0.325025,-0.024086
584,-0.263194,-0.735152,-0.03851
585,-0.21726,-0.971763,-0.03851
586,-0.194293,-0.861345,-0.009662
587,0.540657,-0.84557,-0.024086
588,0.67846,-0.640507,0.004761
589,0.242083,-0.356573,-0.024086
590,-0.102424,0.558325,-0.052934
591,-0.263194,1.189289,0.004761
592,-0.125391,1.220837,0.019185
593,-0.010555,0.73184,-0.03851
594,-0.148358,0.179746,-0.009662
595,-0.240227,-0.593185,0.019185
596,-0.102424,-0.561637,0.048033
597,0.081313,-0.466992,0.019185
598,0.081313,-0.183058,0.004761
599,-0.033523,0.053554,-0.03851
600,-0.033523,0.132424,-0.009662
601,-0.010555,0.179746,-0.03851
602,-0.125391,0.085102,-0.067357
603,-0.033523,-0.119962,-0.081781
604,-0.010555,-0.293477,-0.067357
605,0.242083,-0.198832,-0.009662
606,0.67846,-0.23038,0.033609
607,0.494722,-0.183058,0.048033
608,-0.309129,-0.340799,0.048033
609,-0.69957,-0.15151,0.048033
610,-1.044078,0.11665,-0.024086
611,-0.148358,0.227069,-0.024086
612,0.747361,0.163972,-0.03851
613,1.183737,0.069328,-0.052934
614,0.333952,0.03778,0.033609
615,0.402854,-0.025317,0.004761
616,0.67846,-0.088413,0.019185
617,-0.171326,-0.025317,0.048033
618,0.058346,-0.088413,0.048033
619,0.127248,-0.167284,0.004761
620,-0.653636,0.085102,0.019185
621,-0.768472,-0.214606,0.048033
622,-0.768472,-0.451218,0.004761
623,-0.998144,-0.167284,0.019185
624,0.127248,0.069328,0.033609
625,0.793295,-0.072639,0.019185
626,0.793295,-0.23038,-0.110629
627,0.540657,-0.183058,-0.125052
628,0.402854,0.558325,-0.096205
629,0.425821,0.873807,0.004761
630,0.127248,0.447906,-0.009662
631,-0.102424,0.65297,-0.009662
632,0.081313,0.763388,0.019185
633,0.058346,0.511003,0.062456
634,-0.033523,0.290165,0.033609
635,-0.240227,-0.246154,-0.024086
636,-0.309129,-0.309251,0.004761
637,-0.125391,-0.088413,0.004761
638,0.012412,-0.388121,-0.024086
639,0.242083,-0.325025,-0.009662
640,0.494722,-0.325025,-0.03851
641,0.425821,-0.672055,-0.067357
642,-0.332096,-0.782474,-0.009662
643,-0.860341,-0.23038,0.062456
644,-0.952209,0.637196,0.091304
645,-0.676603,1.26816,0.091304
646,-0.194293,1.094645,0.048033
647,0.770328,0.242843,-0.024086
648,0.747361,-0.135736,0.019185
649,0.242083,-0.640507,0.07688
650,0.379886,-1.129504,0.019185
651,-0.883308,-1.334568,-0.096205
652,-0.837373,-0.372347,-0.052934
653,-0.423964,0.936904,0.019185
654,-0.309129,0.921129,-0.009662
655,-0.929242,0.242843,0.048033
656,-0.630669,-0.388121,-0.009662
657,-0.676603,-0.624733,-0.110629
658,0.10428,-0.388121,-0.139476
659,1.206705,-0.246154,-0.052934
660,1.091869,-0.214606,0.004761
661,0.632525,0.321713,0.004761
662,0.402854,0.65297,0.062456
663,0.058346,0.447906,0.105728
664,-0.05649,0.432132,0.062456
665,0.10428,0.842259,0.062456
666,-0.125391,0.542551,0.033609
667,0.310985,-0.277703,-0.052934
668,0.885164,-1.224149,-0.067357
669,1.091869,-0.955989,-0.067357
670,1.183737,0.258617,0.019185
671,0.632525,0.73184,0.07688
672,-0.492866,0.763388,0.07688
673,-0.676603,-0.025317,0.033609
674,-0.768472,-0.640507,0.004761
675,-0.607702,-0.703603,-0.009662
676,0.035379,0.38481,-0.067357
677,0.265051,1.157741,-0.110629
678,0.288018,1.993769,-0.096205
679,-0.05649,1.630964,-0.009662
680,-0.263194,0.621421,0.062456
681,-0.653636,-0.451218,0.019185
682,-0.653636,-1.287245,-0.009662
683,-0.286161,-1.508083,-0.024086
684,-0.079457,-1.697372,0.048033
685,0.67846,-1.366116,0.07688
686,0.908131,-0.545862,0.07688
687,1.091869,0.747614,0.091304
688,0.908131,0.936904,0.033609
689,0.471755,1.047322,-0.03851
690,-0.883308,0.65297,-0.067357
691,-1.870896,-0.84557,-0.182747
692,-1.227815,-1.555405,-0.182747
693,0.632525,0.006231,-0.168324
694,1.0,0.684518,-0.052934
695,0.770328,0.148198,-0.009662
696,0.83923,-0.088413,-0.009662
697,1.826818,-0.435444,-0.052934
698,0.356919,-0.466992,-0.03851
699,-0.607702,-0.167284,0.019185
700,-0.240227,0.211295,0.033609
701,-0.584735,0.337488,0.048033
702,-0.722538,0.826485,0.048033
703,-0.125391,0.668744,0.048033
704,0.586591,-0.119962,0.033609
705,0.517689,-0.545862,0.062456
706,-0.791439,-0.261928,0.091304
707,-0.653636,0.305939,0.07688
708,-0.37803,0.053554,0.004761
709,0.563624,-0.41967,-0.024086
710,1.298573,-1.066408,-0.081781
711,1.091869,-0.466992,-0.03851
712,0.563624,0.148198,0.033609
713,-0.837373,0.432132,-0.03851
714,-0.906275,1.047322,-0.052934
715,-0.722538,0.211295,-0.03851
716,0.242083,-0.309251,-0.096205
717,0.219116,-0.49854,-0.081781
718,-0.837373,-0.735152,-0.067357
719,-1.75606,-0.261928,0.004761
720,-0.607702,0.11665,0.07688
721,0.931098,0.258617,0.120151
722,2.05649,0.132424,0.07688
723,1.964621,0.069328,0.048033
724,0.081313,-0.277703,-0.024086
725,-0.745505,-0.009543,-0.009662
726,-0.998144,-0.49854,-0.03851
727,0.058346,0.163972,-0.03851
728,0.632525,1.583642,0.07688
729,-0.469899,1.126193,0.091304
730,-1.044078,0.242843,-0.024086
731,-1.112979,-0.356573,-0.081781
732,0.196149,-0.750926,-0.024086
733,0.862197,-0.703603,-0.024086
734,1.734949,0.03778,-0.067357
735,2.240227,1.094645,-0.139476
736,1.574179,1.315482,-0.052934
737,0.196149,-0.372347,0.033609
738,-0.975176,-0.703603,0.120151
739,-1.044078,-0.798248,0.091304
740,-2.031666,-1.697372,0.062456
741,-2.215404,-1.72892,0.004761
742,0.150215,-0.214606,0.048033
743,1.482311,0.353262,-0.081781
744,1.0,0.779163,-0.182747
745,0.310985,1.205063,-0.1539
746,-0.446932,0.810711,-0.096205
747,-1.480454,0.794937,-0.03851
748,-1.27375,0.369036,0.062456
749,-0.676603,-0.246154,0.07688
750,0.701427,-0.672055,-0.03851
751,2.814406,-0.971763,-0.096205
752,3.572323,-0.814022,-0.067357
753,2.263194,-0.356573,0.004761
754,-0.079457,0.100876,0.004761
755,-1.135947,0.589873,0.062456
756,-2.674747,0.574099,0.105728
757,-3.248926,-0.466992,0.033609
758,-0.860341,-0.072639,0.004761
759,0.494722,1.110419,0.07688
760,0.035379,0.747614,0.019185
761,-1.572323,-0.861345,-0.139476
762,-0.148358,-0.877119,-0.067357
763,1.022967,0.085102,0.033609
764,1.183737,0.022005,0.019185
765,0.310985,-0.183058,0.019185
766,0.081313,-0.246154,-0.024086
767,0.265051,0.11665,-0.03851
768,0.081313,0.069328,-0.03851
769,-0.355063,0.195521,-0.009662
770,-0.492866,1.362804,0.105728
771,-0.309129,1.094645,0.091304
772,0.609558,0.163972,-0.03851
773,0.609558,-0.183058,-0.096205
774,-0.05649,-1.176827,-0.1539
775,0.242083,-1.586953,-0.096205
776,0.10428,-0.640507,0.07688
777,-0.125391,-0.135736,0.105728
778,-0.148358,-0.009543,0.033609
779,0.150215,0.558325,-0.052934
780,0.494722,0.542551,-0.096205
781,0.333952,-0.135736,-0.096205
782,1.413409,0.100876,-0.110629
783,1.229672,0.46368,-0.03851
784,-0.561767,0.353262,0.07688
785,-1.641224,-0.640507,0.091304
786,-2.169469,-1.208375,-0.024086
787,-0.69957,-0.466992,-0.110629
788,0.908131,0.337488,-0.052934
789,0.770328,0.716066,-0.052934
790,0.494722,0.558325,0.033609
791,0.793295,-0.135736,0.091304
792,0.540657,-0.687829,0.091304
793,1.068902,-0.088413,0.062456
794,0.150215,0.38481,0.019185
795,-1.939798,0.400584,-0.024086
796,-1.893863,0.132424,0.004761
797,-0.676603,0.542551,0.048033
798,0.609558,0.747614,-0.009662
799,0.655492,0.085102,-0.067357
800,0.724394,0.526777,-0.067357
801,1.390442,0.668744,0.004761
802,0.333952,-0.719378,-0.067357
803,-0.05649,-1.224149,-0.125052
804,-0.515833,-0.435444,-0.125052
805,-0.469899,-0.041091,0.019185
806,-0.079457,-0.246154,0.091304
807,0.058346,-0.23038,0.091304
808,-0.171326,-0.608959,-0.009662
809,0.10428,-0.183058,0.019185
810,-0.079457,0.179746,0.062456
811,-0.492866,-0.703603,0.019185
812,-0.010555,-0.656281,-0.024086
813,0.655492,0.053554,-0.052934
814,0.816263,0.889581,-0.1539
815,0.219116,0.889581,-0.096205
816,-0.21726,0.558325,0.048033
817,-0.400997,0.274391,0.134575
818,0.540657,-0.861345,0.120151
819,0.288018,-0.940215,0.019185
820,-0.05649,-0.466992,-0.067357
821,-0.400997,-0.104187,-0.1539
822,-0.286161,0.511003,-0.110629
823,1.022967,0.716066,-0.024086
824,1.757917,0.842259,0.048033
825,0.563624,0.605647,0.062456
826,0.058346,0.952678,0.033609
827,-0.400997,0.763388,0.019185
828,-1.847929,-0.782474,-0.052934
829,-1.250782,-1.38189,-0.009662
830,-0.240227,-0.482766,0.048033
831,-0.125391,-0.119962,0.062456
832,-0.309129,-0.577411,-0.009662
833,-0.952209,0.11665,-0.1539
834,-0.607702,0.337488,-0.067357
835,-0.814406,-0.025317,0.134575
836,-0.515833,-0.025317,0.177846
837,-0.079457,-0.577411,0.07688
838,-0.492866,-0.924441,-0.096205
839,-0.286161,-0.261928,-0.182747
840,1.367475,0.779163,-0.110629
841,2.102424,0.810711,0.019185
842,2.033523,0.416358,0.033609
843,0.517689,-0.056865,0.004761
844,0.333952,-0.15151,0.091304
845,0.586591,0.321713,0.091304
846,0.609558,1.094645,0.033609
847,0.356919,0.873807,0.004761
848,-0.263194,0.053554,-0.052934
849,-0.745505,-0.135736,-0.009662
850,-0.148358,0.432132,-0.009662
851,0.127248,-0.466992,-0.067357
852,-0.814406,-0.861345,-0.139476
853,-0.125391,-0.829796,-0.125052
854,0.173182,-0.892893,-0.03851
855,-0.079457,-0.782474,0.062456
856,-1.112979,-0.451218,0.105728
857,-0.37803,0.053554,0.048033
858,1.275606,0.700292,0.062456
859,1.32154,0.605647,0.062456
860,0.356919,0.274391,-0.009662
861,-0.033523,-0.340799,-0.096205
862,-0.469899,-0.41967,0.019185
863,-0.860341,-0.23038,0.033609
864,0.196149,0.542551,-0.067357
865,0.356919,1.630964,-0.024086
866,-0.05649,0.763388,-0.024086
867,0.150215,-0.025317,-0.052934
868,-0.309129,-0.340799,-0.096205
869,-0.515833,-0.861345,-0.096205
870,-0.263194,-0.892893,0.033609
871,-0.446932,-0.577411,-0.024086
872,-0.469899,0.589873,0.004761
873,-0.883308,0.337488,0.033609
874,-0.515833,-0.009543,0.033609
875,0.242083,-0.246154,0.048033
876,0.83923,-0.277703,0.091304
877,-0.033523,-0.041091,0.120151
878,-1.27375,-0.388121,0.004761
879,-1.411553,-1.429212,-0.110629
880,0.219116,-1.318794,-0.052934
881,2.492866,-0.167284,0.033609
882,2.355063,0.447906,-0.081781
883,0.655492,0.621421,-0.182747
884,-0.676603,1.914898,-0.024086
885,-0.171326,1.425901,0.062456
886,-0.240227,0.179746,0.048033
887,-0.309129,-0.214606,0.033609
888,-0.21726,-0.041091,-0.052934
889,0.127248,0.810711,0.019185
890,0.012412,0.605647,0.004761
891,-0.469899,0.085102,0.004761
892,-0.860341,-0.198832,-0.009662
893,-0.469899,-0.545862,-0.024086
894,0.127248,-1.050634,-0.096205
895,1.413409,0.163972,-0.03851
896,1.849785,0.668744,0.004761
897,0.908131,0.163972,0.048033
898,0.127248,-0.782474,-0.009662
899,-0.37803,-1.176827,-0.125052
900,-0.286161,-0.719378,-0.03851
901,-1.250782,-0.561637,-0.03851
902,0.265051,-0.293477,-0.067357
903,1.872752,0.006231,0.004761
904,0.816263,0.006231,0.033609
905,0.035379,0.148198,0.062456
906,-0.079457,0.132424,-0.096205
907,-0.975176,0.873807,-0.110629
908,-0.653636,0.794937,0.033609
909,-0.171326,0.574099,0.163423
910,-0.630669,0.085102,0.148999
911,-1.733093,-0.924441,-0.03851
912,-1.411553,-1.050634,0.033609
913,0.448788,-0.261928,0.091304
914,1.32154,0.03778,0.033609
915,1.574179,-0.687829,-0.1539
916,1.436376,0.148198,-0.139476
917,0.793295,0.637196,-0.03851
918,-0.515833,0.242843,0.004761
919,-1.090012,0.274391,0.062456
920,-0.37803,0.069328,0.019185
921,-0.010555,0.258617,-0.03851
922,0.448788,0.794937,-0.03851
923,0.333952,0.274391,-0.024086
924,-0.607702,0.022005,0.033609
925,-0.653636,0.716066,0.105728
926,-0.952209,0.416358,0.062456
927,-0.791439,-0.167284,-0.024086
928,-0.010555,-0.340799,-0.081781
929,0.448788,-0.640507,-0.110629
930,0.632525,-1.11373,-0.067357
931,0.265051,-1.019086,-0.081781
932,0.196149,-0.388121,-0.081781
933,0.288018,0.242843,0.019185
934,0.563624,0.369036,-0.009662
935,0.356919,0.858033,0.048033
936,-0.37803,0.716066,0.033609
937,-0.768472,0.558325,0.048033
938,-0.722538,0.46368,0.07688
939,-0.561767,-0.325025,-0.009662
940,0.081313,-1.129504,-0.052934
941,0.908131,-0.782474,-0.067357
942,0.540657,-0.261928,-0.024086
943,-0.148358,0.305939,-0.009662
944,-0.102424,0.495229,0.004761
945,0.081313,-0.025317,-0.03851
946,-0.148358,-0.640507,-0.03851
947,0.196149,-0.924441,0.019185
948,0.494722,-0.829796,0.07688
949,0.288018,-0.198832,0.004761
950,-0.423964,0.353262,0.004761
951,-0.423964,0.46368,-0.024086
952,-0.423964,0.700292,-0.096205
953,0.058346,0.258617,-0.067357
954,0.196149,-0.340799,-0.009662
955,-0.240227,-0.388121,-0.052934
956,-0.240227,-0.214606,-0.024086
957,-0.05649,-0.009543,-0.009662
958,-0.010555,0.274391,-0.009662
959,-0.079457,0.432132,0.019185
960,-0.171326,0.258617,-0.009662
961,-0.148358,-0.025317,-0.03851
962,-0.102424,-0.088413,-0.024086
963,-0.05649,-0.088413,0.004761
964,-0.240227,-0.277703,-0.024086
965,0.012412,-0.15151,0.004761
966,0.150215,0.069328,0.004761
967,0.219116,0.211295,0.004761
968,0.196149,0.211295,0.033609
969,-0.148358,0.132424,0.062456
970,-0.37803,-0.041091,0.019185
971,-0.240227,-0.403895,-0.03851
972,-0.171326,-0.49854,-0.03851
973,-0.630669,-0.056865,0.033609
974,-0.286161,0.305939,-0.009662
975,0.081313,0.148198,-0.009662
976,0.035379,-0.009543,-0.024086
977,0.127248,-0.277703,-0.024086
978,0.058346,-0.356573,0.004761
979,0.173182,0.069328,-0.024086
980,0.219116,0.353262,0.019185
981,0.012412,-0.356573,0.004761
982,-0.21726,-0.908667,-0.024086
983,-0.125391,-0.7667,-0.024086
984,-0.125391,-0.403895,0.048033
985,-0.194293,-0.072639,-0.009662
986,0.83923,0.637196,0.019185
987,0.931098,0.700292,-0.067357
988,0.816263,0.574099,-0.067357
989,0.219116,0.227069,-0.052934
990,-0.653636,0.11665,0.004761
991,-0.515833,0.100876,0.033609
992,-0.286161,0.022005,0.019185
993,-0.125391,0.006231,-0.024086
994,-0.05649,-0.072639,-0.067357
995,-0.033523,-0.088413,-0.024086
996,0.035379,-0.072639,0.004761
997,0.012412,-0.088413,-0.009662
998,-0.010555,-0.072639,-0.009662
999,-0.010555,-0.056865,0.033609
1000,-0.033523,-0.088413,0.033609
1001,0.035379,0.022005,0.048033
1002,-0.079457,-0.025317,0.004761
1003,-0.21726,-0.088413,0.004761
1004,-0.125391,0.11665,-0.009662
1005,0.058346,-0.088413,-0.009662
1006,0.058346,-0.15151,-0.052934
1007,0.035379,-0.104187,-0.03851
1008,-0.010555,-0.025317,-0.009662
1009,0.081313,-0.009543,0.004761
1010,-0.010555,-0.056865,-0.03851
1011,-0.05649,-0.072639,-0.024086
1012,-0.102424,-0.072639,-0.009662
1013,-0.05649,-0.009543,-0.009662
1014,0.012412,0.006231,-0.009662
1015,-0.05649,0.069328,0.004761
1016,-0.05649,0.132424,0.033609
1017,-0.033523,0.069328,0.033609
1018,-0.079457,-0.072639,-0.024086
1019,-0.079457,-0.072639,-0.03851
1020,-0.05649,-0.041091,0.004761
1021,0.012412,0.022005,-0.009662
1022,-0.102424,-0.104187,0.004761
1023,-0.033523,-0.119962,0.019185
1024,-0.010555,0.03778,0.033609
1025,-0.010555,-0.025317,0.033609
1026,0.012412,-0.167284,0.019185
1027,-0.102424,-0.15151,-0.03851
1028,-0.033523,-0.15151,-0.024086
1029,-0.05649,-0.088413,-0.024086
1030,0.081313,-0.041091,-0.009662
1031,0.081313,-0.025317,-0.024086
1032,0.035379,-0.119962,-0.009662
1033,-0.033523,-0.198832,0.004761
1034,-0.05649,-0.198832,-0.024086
1035,-0.102424,0.195521,0.004761
1036,-0.010555,0.38481,0.019185
1037,0.150215,0.447906,0.004761
1038,0.035379,0.100876,0.004761
1039,-0.033523,-0.119962,-0.009662
1040,0.012412,-0.198832,-0.024086
1041,-0.010555,-0.104187,-0.009662
1042,0.035379,0.006231,0.019185
1043,-0.033523,-0.041091,0.019185
1044,-0.102424,-0.088413,-0.009662
1045,-0.010555,-0.104187,-0.009662
1046,-0.079457,-0.135736,0.019185
1047,-0.010555,-0.104187,0.004761
1048,0.058346,0.11665,-0.024086
1049,-0.033523,0.100876,-0.009662
1050,-0.079457,0.085102,-0.024086
1051,-0.125391,0.085102,0.019185
1052,-0.079457,0.022005,0.004761
1053,-0.102424,-0.119962,0.004761
1054,0.10428,0.006231,0.019185
1055,0.127248,0.006231,0.004761
1056,0.035379,0.03778,-0.009662
1057,-0.010555,0.053554,-0.009662
1058,-0.079457,0.053554,-0.009662
1059,-0.05649,-0.041091,-0.03851
1060,0.035379,-0.009543,-0.009662
1061,0.058346,0.006231,0.004761
1062,-0.079457,0.022005,-0.009662
1063,-0.010555,-0.198832,0.004761
1064,0.035379,-0.293477,-0.009662
1065,-0.033523,-0.325025,-0.009662
1066,-0.033523,-0.23038,-0.024086
1067,0.058346,0.100876,0.004761
1068,0.288018,0.38481,-0.009662
1069,0.012412,0.290165,-0.052934
1070,-0.240227,0.195521,-0.024086
1071,-0.05649,0.085102,-0.024086
1072,0.012412,-0.056865,-0.024086
1073,-0.010555,-0.104187,-0.009662
1074,-0.05649,-0.025317,-0.009662
1075,-0.079457,0.03778,0.004761
1076,-0.033523,0.132424,0.033609
1077,-0.010555,0.132424,-0.009662
1078,-0.05649,0.085102,-0.009662
1079,-0.033523,0.069328,-0.009662
1080,-0.05649,-0.041091,-0.03851
1081,-0.033523,-0.15151,-0.009662
1082,-0.102424,-0.119962,0.033609
1083,-0.010555,-0.009543,0.033609
1084,-0.010555,-0.009543,0.004761
1085,-0.033523,-0.041091,-0.009662
1086,-0.05649,-0.025317,0.004761
1087,-0.079457,-0.088413,-0.024086
1088,-0.033523,-0.009543,-0.009662
1089,0.012412,0.022005,0.019185
1090,-0.05649,-0.056865,0.004761
1091,-0.079457,-0.104187,0.019185
1092,-0.010555,-0.056865,0.019185
1093,-0.05649,0.006231,0.019185
1094,-0.033523,-0.025317,-0.009662
1095,-0.033523,0.053554,0.004761
1096,0.012412,0.100876,-0.024086
1097,0.058346,0.03778,-0.024086
1098,-0.033523,-0.009543,-0.024086
1099,0.035379,-0.009543,-0.009662
1100,-0.010555,0.006231,-0.009662
1101,-0.010555,-0.025317,-0.009662
1102,-0.079457,-0.072639,-0.024086
1103,-0.033523,0.006231,-0.009662
1104,-0.033523,-0.009543,-0.009662
1105,0.012412,0.006231,-0.009662
1106,-0.010555,-0.009543,0.004761
1107,0.012412,-0.025317,0.048033
1108,-0.079457,-0.025317,0.004761
1109,-0.05649,0.022005,0.004761
1110,-0.102424,0.03778,0.019185
1111,-0.033523,0.022005,0.004761
1112,-0.079457,0.006231,-0.009662
1113,-0.033523,-0.041091,0.004761
1114,-0.010555,-0.119962,-0.009662
1115,-0.010555,-0.088413,-0.024086
1116,-0.05649,-0.025317,-0.024086
1117,-0.125391,-0.025317,-0.024086
1118,-0.125391,-0.041091,0.004761
1119,-0.010555,-0.041091,0.019185
1120,-0.033523,-0.041091,-0.009662
1121,-0.010555,0.053554,-0.009662
1122,-0.010555,0.179746,0.019185
1123,-0.05649,0.290165,0.019185
1124,-0.102424,0.227069,0.004761
1125,0.012412,0.069328,0.004761
1126,-0.05649,-0.388121,0.019185
1127,-0.05649,-0.561637,-0.009662
1128,-0.079457,-0.388121,-0.024086
1129,-0.102424,-0.104187,-0.024086
1130,-0.010555,0.100876,-0.009662
1131,0.035379,0.195521,-0.03851
1132,0.10428,0.274391,-0.03851
1133,0.127248,0.163972,-0.024086
1134,0.081313,0.053554,0.004761
1135,0.035379,0.03778,0.004761
1136,-0.05649,-0.025317,-0.009662
1137,-0.079457,-0.072639,-0.009662
1138,-0.033523,-0.041091,-0.009662
1139,-0.05649,-0.009543,0.004761
1140,-0.033523,0.053554,0.004761
1141,-0.05649,0.022005,-0.009662
1142,-0.010555,0.03778,-0.009662
1143,-0.033523,-0.041091,-0.009662
1144,-0.033523,-0.135736,-0.009662
1145,-0.102424,-0.056865,-0.009662
1146,-0.010555,-0.025317,0.019185
1147,-0.010555,-0.025317,0.019185
1148,-0.05649,-0.025317,-0.009662
1149,-0.033523,-0.072639,-0.052934
1150,-0.033523,-0.041091,-0.009662
1151,-0.010555,-0.009543,0.019185
1152,-0.010555,0.006231,0.019185
1153,-0.010555,0.006231,0.004761
1154,-0.079457,-0.025317,-0.024086
1155,-0.05649,-0.009543,0.019185
1156,-0.033523,-0.009543,0.019185
1157,-0.05649,-0.025317,0.004761
1158,0.035379,-0.009543,0.004761
1159,0.012412,0.022005,0.004761
1160,-0.033523,0.006231,0.019185
1161,-0.010555,0.022005,0.019185
1162,-0.033523,-0.009543,-0.009662
1163,0.012412,-0.119962,-0.024086
1164,-0.079457,-0.088413,0.019185
1165,0.058346,-0.041091,0.004761
1166,-0.010555,-0.009543,0.004761
1167,-0.010555,-0.025317,-0.009662
1168,-0.010555,-0.009543,-0.009662
1169,0.058346,-0.009543,-0.009662
1170,-0.033523,-0.009543,-0.009662
1171,0.012412,-0.009543,0.004761
1172,-0.010555,0.006231,-0.009662
1173,-0.010555,-0.025317,-0.03851
1174,-0.010555,0.006231,-0.009662
1175,-0.033523,0.006231,0.019185
1176,-0.05649,0.006231,0.033609
1177,0.035379,0.006231,0.048033
1178,0.035379,-0.056865,0.004761
1179,0.012412,-0.009543,0.004761
1180,0.012412,-0.009543,0.004761
1181,0.035379,-0.041091,-0.009662
1182,0.012412,0.006231,-0.024086
1183,-0.079457,-0.041091,-0.03851
1184,-0.033523,-0.041091,-0.024086
1185,-0.033523,-0.056865,-0.03851
1186,-0.033523,-0.119962,-0.024086
1187,-0.05649,-0.135736,-0.024086
1188,-0.05649,-0.056865,-0.024086
1189,0.012412,0.085102,-0.009662
1190,-0.010555,0.163972,-0.024086
1191,-0.079457,0.03778,-0.067357
1192,-0.033523,0.100876,-0.009662
1193,-0.010555,0.085102,0.004761
1194,0.035379,-0.056865,0.004761
1195,-0.05649,-0.072639,0.019185
1196,-0.033523,-0.041091,0.033609
1197,0.035379,-0.088413,0.004761
1198,0.035379,0.006231,0.004761
1199,0.081313,0.03778,-0.009662
1200,0.035379,0.006231,0.004761
1201,-0.010555,-0.025317,-0.009662
1202,-0.010555,-0.025317,-0.009662
1203,-0.010555,-0.009543,-0.009662
1204,-0.010555,0.006231,0.004761
1205,-0.033523,-0.041091,-0.009662
1206,-0.010555,-0.041091,0.004761
1207,-0.033523,-0.025317,0.004761
1208,-0.010555,-0.025317,0.019185
1209,0.012412,-0.009543,0.004761
1210,0.012412,-0.025317,-0.024086
1211,-0.05649,-0.009543,-0.009662
1212,-0.010555,-0.009543,0.019185
1213,-0.033523,0.006231,0.033609
1214,-0.033523,0.006231,0.019185
1215,-0.010555,0.006231,-0.009662
1216,-0.033523,-0.025317,-0.024086
1217,-0.033523,-0.009543,0.004761
1218,-0.05649,-0.025317,-0.009662
1219,-0.033523,-0.025317,-0.009662
1220,-0.033523,-0.025317,-0.009662
1221,0.035379,-0.025317,-0.024086
1222,0.012412,-0.025317,-0.024086
1223,-0.010555,-0.025317,-0.009662
1224,0.012412,-0.009543,0.004761
1225,0.058346,-0.009543,0.019185
1226,0.012412,0.006231,0.019185
1227,0.012412,0.022005,0.004761
1228,0.012412,-0.009543,0.004761
1229,-0.010555,-0.025317,-0.009662
1230,-0.033523,-0.025317,0.004761
1231,0.012412,-0.009543,-0.009662
1232,0.012412,0.006231,0.004761
1233,-0.010555,-0.009543,-0.009662
1234,-0.010555,-0.041091,-0.009662
1235,0.012412,0.006231,0.004761
1236,0.035379,0.006231,0.033609
1237,-0.010555,-0.009543,0.004761
1238,-0.05649,-0.009543,-0.024086
1239,-0.010555,-0.009543,-0.024086
1240,-0.033523,-0.025317,-0.024086
1241,-0.033523,-0.009543,0.004761
1242,-0.033523,0.006231,0.019185
1243,0.012412,-0.009543,-0.009662
1244,0.012412,-0.009543,-0.009662
1245,-0.102424,-0.041091,0.004761
1246,-0.033523,-0.009543,-0.009662
1247,-0.079457,-0.009543,-0.009662
1248,-0.05649,0.006231,-0.009662
1249,-0.05649,-0.025317,-0.009662
1250,0.012412,-0.025317,-0.009662
1251,0.012412,-0.009543,-0.009662
1252,0.012412,0.006231,-0.024086
1253,-0.033523,-0.009543,-0.009662
1254,-0.010555,0.006231,0.019185
1255,0.035379,0.006231,0.004761
1256,0.012412,-0.041091,-0.009662
1257,-0.05649,-0.072639,-0.009662
1258,0.012412,0.022005,-0.009662
1259,0.058346,0.085102,0.019185
1260,-0.010555,0.069328,0.004761
1261,-0.033523,0.022005,0.033609
1262,0.035379,-0.072639,-0.009662
1263,0.012412,-0.072639,-0.03851
1264,-0.010555,0.006231,-0.03851
1265,-0.010555,0.03778,0.004761
1266,0.081313,0.069328,0.019185
1267,0.10428,0.069328,0.033609
1268,-0.010555,0.006231,-0.009662
1269,-0.079457,-0.104187,-0.024086
1270,-0.010555,-0.072639,-0.009662
1271,-0.033523,-0.119962,-0.009662
1272,-0.010555,-0.119962,0.004761
1273,-0.05649,-0.025317,-0.009662
1274,-0.05649,-0.009543,0.004761
1275,-0.033523,-0.009543,-0.009662
1276,-0.05649,0.006231,0.004761
1277,-0.033523,-0.025317,-0.024086
1278,-0.010555,0.006231,-0.009662
1279,-0.010555,0.006231,0.019185
1280,-0.05649,-0.025317,0.004761
1281,-0.033523,-0.009543,-0.009662
1282,0.012412,0.006231,0.048033
1283,0.058346,-0.041091,-0.009662
1284,-0.033523,-0.041091,-0.009662
1285,0.035379,-0.025317,-0.024086
1286,0.012412,0.11665,-0.024086
1287,0.058346,0.227069,-0.009662
1288,0.035379,0.290165,-0.009662
1289,0.035379,0.195521,0.004761
1290,-0.05649,-0.104187,0.019185
1291,-0.05649,-0.214606,0.033609
1292,-0.033523,-0.135736,0.004761
1293,0.058346,-0.072639,0.004761
1294,0.012412,-0.009543,0.004761
1295,0.058346,0.006231,0.019185
1296,-0.010555,-0.072639,0.004761
1297,-0.033523,-0.167284,0.004761
1298,-0.079457,-0.135736,-0.009662
1299,-0.05649,-0.088413,-0.009662
1300,-0.102424,-0.041091,-0.009662
1301,-0.033523,-0.041091,0.004761
1302,0.035379,-0.009543,0.004761
1303,-0.033523,0.006231,0.033609
1304,-0.033523,0.006231,0.004761
1305,0.012412,0.006231,0.004761
1306,-0.033523,0.006231,-0.009662
1307,-0.05649,0.022005,-0.009662
1308,-0.010555,-0.025317,-0.009662
1309,-0.010555,0.022005,-0.009662
1310,-0.079457,-0.025317,-0.024086
1311,-0.079457,-0.009543,-0.024086
1312,0.012412,0.006231,-0.009662
1313,0.058346,-0.009543,0.004761
1314,0.035379,-0.009543,0.019185
1315,0.035379,-0.025317,0.019185
1316,0.012412,-0.009543,0.004761
1317,0.058346,-0.009543,0.004761
1318,0.035379,0.006231,0.019185
1319,0.012412,-0.025317,-0.009662
1320,-0.033523,-0.041091,-0.024086
1321,-0.010555,-0.041091,-0.052934
1322,0.012412,-0.009543,-0.009662
1323,0.012412,0.006231,0.033609
1324,-0.010555,0.006231,0.048033
1325,-0.010555,0.006231,-0.009662
1326,-0.010555,0.022005,-0.009662
1327,-0.033523,-0.025317,-0.009662
1328,0.012412,-0.009543,0.004761
1329,-0.010555,0.006231,0.004761
1330,0.012412,-0.009543,-0.009662
1331,0.012412,-0.041091,0.004761
1332,-0.010555,-0.025317,-0.009662
1333,-0.033523,0.006231,0.004761
1334,-0.033523,-0.009543,-0.009662
1335,-0.033523,-0.025317,0.004761
1336,-0.033523,-0.025317,0.048033
1337,-0.033523,-0.009543,0.004761
1338,-0.010555,-0.009543,-0.009662
1339,-0.010555,-0.009543,-0.009662
1340,0.081313,0.006231,-0.009662
1341,-0.010555,-0.009543,-0.009662
1342,-0.010555,-0.009543,0.019185
1343,0.035379,0.006231,0.033609
1344,0.012412,0.006231,0.004761
1345,0.012412,-0.009543,0.019185
1346,-0.010555,-0.025317,0.004761
1347,0.012412,0.006231,0.033609
1348,0.012412,-0.025317,0.004761
1349,-0.010555,-0.009543,0.004761
1350,0.035379,-0.025317,-0.009662
1351,-0.033523,0.006231,-0.024086
1352,-0.010555,-0.009543,-0.009662
1353,0.012412,-0.009543,-0.009662
1354,-0.033523,-0.009543,-0.009662
1355,0.012412,-0.025317,-0.009662
1356,0.012412,-0.009543,-0.024086
1357,0.012412,-0.025317,-0.024086
1358,-0.05649,-0.025317,-0.009662
1359,0.012412,-0.009543,-0.009662
1360,-0.033523,0.006231,0.004761
1361,-0.033523,-0.025317,0.019185
1362,-0.010555,-0.009543,0.004761
1363,-0.010555,-0.009543,0.004761
1364,-0.05649,0.006231,0.033609
1365,-0.102424,0.006231,-0.009662
1366,-0.010555,-0.009543,0.019185
1367,0.012412,0.006231,0.019185
1368,-0.033523,-0.041091,0.004761
1369,-0.010555,-0.025317,-0.009662
1370,0.012412,-0.009543,-0.009662
1371,0.012412,-0.025317,-0.009662
1372,-0.05649,-0.025317,0.004761
1373,0.012412,-0.009543,0.004761
1374,0.035379,-0.009543,0.004761
1375,0.058346,-0.025317,-0.03851
1376,0.012412,-0.009543,-0.009662
1377,0.035379,-0.009543,0.019185
1378,0.012412,-0.025317,0.004761
1379,-0.010555,-0.009543,-0.009662
1380,-0.05649,-0.025317,0.004761
1381,-0.033523,-0.025317,-0.009662
1382,-0.010555,-0.025317,-0.009662
1383,-0.010555,-0.009543,0.004761
1384,-0.033523,-0.009543,-0.009662
1385,-0.05649,-0.009543,0.004761
1386,0.012412,-0.009543,0.004761
1387,-0.033523,-0.009543,0.004761
1388,-0.010555,0.006231,0.019185
1389,-0.010555,-0.009543,0.019185
1390,-0.010555,-0.025317,0.004761
1391,-0.033523,-0.009543,-0.009662
1392,-0.033523,0.006231,-0.009662
1393,-0.010555,-0.009543,0.004761
1394,-0.05649,-0.009543,0.004761
1395,-0.079457,-0.009543,-0.009662
1396,0.012412,-0.009543,-0.009662
1397,0.012412,0.006231,-0.009662
1398,0.035379,-0.009543,-0.009662
1399,0.012412,-0.025317,0.019185
1400,-0.010555,-0.072639,-0.024086
1401,-0.033523,-0.041091,-0.009662
1402,0.012412,-0.009543,0.004761
1403,0.012412,-0.009543,0.019185
1404,0.012412,0.022005,0.004761
1405,0.012412,-0.009543,-0.009662
1406,-0.033523,0.022005,-0.009662
1407,-0.010555,-0.025317,0.004761
1408,0.012412,-0.009543,0.004761
1409,-0.010555,-0.009543,-0.024086
1410,-0.010555,-0.025317,-0.009662
1411,0.012412,0.006231,-0.009662
1412,0.035379,-0.025317,0.004761
1413,0.035379,-0.025317,-0.009662
1414,-0.010555,-0.025317,-0.009662
1415,-0.033523,-0.009543,0.004761
1416,-0.033523,-0.025317,-0.009662
1417,-0.05649,-0.009543,-0.009662
1418,-0.033523,0.006231,0.004761
1419,-0.033523,-0.009543,0.004761
1420,0.012412,-0.025317,-0.024086
1421,-0.010555,0.006231,-0.009662
1422,0.035379,0.006231,0.019185
1423,0.012412,-0.025317,0.033609
1424,-0.010555,0.006231,0.033609
1425,-0.010555,-0.009543,0.004761
1426,-0.05649,-0.009543,-0.024086
1427,-0.102424,-0.025317,-0.024086
1428,-0.010555,-0.025317,-0.024086
1429,0.012412,-0.025317,0.004761
1430,-0.010555,-0.041091,-0.009662
1431,-0.010555,-0.009543,0.033609
1432,0.012412,-0.025317,0.004761
1433,0.035379,0.006231,-0.009662
1434,-0.010555,-0.009543,-0.009662
1435,0.058346,-0.009543,0.019185
1436,0.058346,-0.009543,0.004761
1437,-0.010555,-0.056865,-0.009662
1438,0.035379,-0.009543,0.004761
1439,0.012412,0.006231,0.019185
1440,0.035379,0.006231,-0.009662
1441,-0.033523,-0.009543,0.004761
1442,-0.033523,0.006231,0.004761
1443,0.012412,0.006231,-0.009662
1444,0.012412,-0.009543,0.004761
1445,-0.05649,-0.009543,0.004761
1446,-0.033523,-0.009543,0.004761
1447,-0.010555,-0.009543,-0.009662
1448,0.012412,-0.009543,0.004761
1449,0.035379,0.006231,0.004761
1450,0.012412,-0.009543,-0.009662
1451,0.012412,-0.025317,0.004761
1452,-0.05649,-0.009543,0.004761
1453,-0.102424,-0.009543,0.004761
1454,0.012412,0.006231,0.019185
1455,0.012412,-0.025317,0.004761
1456,-0.079457,-0.009543,0.004761
1457,0.012412,-0.009543,-0.024086
1458,-0.033523,-0.009543,0.004761
1459,-0.010555,-0.025317,0.019185
1460,0.012412,-0.025317,0.004761
1461,0.012412,0.006231,-0.009662
1462,0.035379,-0.009543,0.019185
1463,0.012412,-0.009543,-0.009662
1464,0.058346,-0.025317,-0.024086
1465,0.012412,-0.025317,-0.009662
1466,0.012412,-0.009543,0.004761
1467,0.081313,0.022005,0.004761
1468,0.012412,-0.009543,0.004761
1469,-0.05649,-0.025317,-0.009662
1470,0.012412,-0.009543,-0.009662
1471,-0.010555,0.006231,-0.009662
1472,-0.033523,-0.025317,-0.009662
1473,-0.010555,-0.009543,0.004761
1474,0.035379,-0.025317,0.004761
1475,-0.033523,-0.009543,-0.024086
1476,-0.05649,0.006231,0.004761
1477,-0.033523,-0.009543,-0.009662
1478,-0.05649,0.006231,0.004761
1479,0.012412,-0.009543,0.004761
1480,-0.033523,-0.025317,-0.009662
1481,-0.033523,-0.025317,-0.009662
1482,-0.033523,-0.025317,-0.024086
1483,-0.033523,-0.025317,-0.009662
1484,-0.05649,0.006231,0.019185
1485,0.012412,-0.009543,0.004761
1486,-0.010555,-0.009543,0.004761
1487,-0.010555,-0.009543,-0.009662
1488,-0.033523,-0.009543,-0.009662
1489,-0.010555,-0.025317,-0.024086
1490,-0.033523,-0.025317,0.019185
1491,0.035379,-0.025317,0.004761
1492,-0.010555,0.006231,-0.009662
1493,-0.033523,-0.025317,0.019185
1494,-0.033523,-0.009543,0.004761
1495,0.058346,-0.009543,0.004761
1496,0.012412,-0.009543,0.019185
1497,-0.033523,-0.009543,0.004761
1498,0.012412,0.006231,0.004761
1499,0.012412,0.006231,0.004761
1500,0.012412,-0.009543,0.004761
1501,-0.010555,0.006231,0.004761
1502,0.012412,-0.025317,0.004761
1503,-0.010555,-0.009543,0.004761
1504,0.012412,-0.009543,-0.009662
1505,0.012412,-0.025317,-0.009662
1506,-0.010555,-0.056865,-0.024086
1507,-0.010555,-0.009543,-0.009662
1508,-0.033523,-0.009543,-0.024086
1509,-0.010555,-0.025317,-0.024086
1510,0.035379,0.006231,-0.009662
1511,-0.010555,-0.009543,0.004761
1512,-0.033523,-0.009543,0.004761
1513,-0.05649,-0.025317,0.004761
1514,-0.010555,-0.009543,-0.009662
1515,0.012412,0.006231,0.004761
1516,-0.05649,-0.009543,0.004761
1517,-0.010555,-0.025317,0.019185
1518,-0.05649,-0.088413,0.004761
1519,-0.010555,-0.025317,-0.009662
1520,-0.010555,-0.009543,-0.009662
1521,0.012412,0.006231,-0.009662
1522,0.058346,0.006231,0.004761
1523,0.012412,-0.009543,-0.009662
1524,0.012412,-0.025317,-0.009662
1525,-0.010555,-0.009543,-0.009662
1526,-0.010555,-0.025317,0.004761
1527,0.035379,-0.025317,0.004761
1528,-0.010555,-0.025317,0.004761
1529,0.035379,-0.009543,0.004761
1530,-0.033523,-0.025317,0.019185
1531,0.012412,0.006231,0.004761
1532,0.012412,-0.009543,-0.009662
1533,0.035379,-0.025317,0.004761
1534,-0.010555,0.022005,-0.024086
1535,-0.033523,-0.025317,-0.009662
1536,0.035379,-0.009543,0.004761
1537,0.012412,0.022005,0.019185
1538,-0.010555,-0.009543,0.004761
1539,-0.010555,-0.009543,0.019185
1540,-0.033523,-0.025317,0.004761
1541,-0.010555,-0.025317,0.004761
1542,-0.033523,-0.009543,-0.009662
1543,-0.010555,-0.009543,-0.009662
1544,-0.010555,-0.009543,0.019185
1545,-0.033523,-0.009543,-0.009662
1546,-0.010555,-0.025317,-0.009662
1547,-0.033523,-0.009543,-0.009662
1548,0.012412,-0.009543,0.004761
1549,-0.010555,-0.025317,-0.009662
1550,-0.010555,-0.009543,0.004761
1551,-0.010555,0.006231,-0.009662
1552,-0.010555,-0.025317,-0.024086
1553,0.035379,-0.041091,-0.009662
1554,0.012412,-0.009543,-0.009662
1555,-0.010555,-0.025317,-0.009662
1556,0.012412,-0.009543,0.004761
1557,0.035379,0.006231,0.004761
1558,0.035379,-0.025317,0.004761
1559,0.035379,-0.009543,0.033609
1560,0.035379,-0.009543,-0.009662
1561,0.035379,-0.025317,0.019185
1562,0.012412,-0.009543,0.019185
1563,-0.010555,-0.009543,0.019185
1564,0.012412,-0.009543,0.004761
1565,-0.010555,-0.025317,0.004761
1566,-0.05649,-0.025317,-0.009662
1567,0.012412,-0.025317,-0.024086
1568,0.012412,-0.009543,-0.024086
1569,0.012412,0.006231,0.004761
1570,-0.010555,-0.009543,-0.009662
1571,-0.010555,-0.025317,0.004761
1572,0.012412,-0.009543,0.004761
1573,-0.033523,-0.041091,-0.009662
1574,0.012412,-0.025317,0.004761
1575,-0.010555,0.006231,-0.009662
1576,0.035379,-0.009543,0.004761
1577,-0.05649,-0.009543,0.019185
1578,-0.033523,-0.009543,-0.009662
1579,-0.010555,-0.009543,-0.024086
1580,-0.05649,-0.009543,-0.009662
1581,-0.033523,0.022005,0.004761
1582,-0.010555,-0.025317,-0.009662
1583,-0.033523,-0.009543,0.033609
1584,0.035379,-0.025317,0.004761
1585,0.012412,0.006231,0.004761
1586,0.012412,0.006231,0.004761
1587,0.012412,0.006231,0.019185
1588,0.012412,-0.025317,0.004761
1589,-0.010555,-0.009543,-0.009662
1590,-0.033523,-0.041091,-0.03851
1591,0.012412,-0.025317,-0.024086
1592,0.012412,-0.009543,-0.03851
1593,-0.033523,-0.025317,-0.03851
1594,-0.010555,-0.025317,-0.024086
1595,0.081313,0.006231,0.004761
1596,0.058346,0.006231,0.004761
1597,0.012412,-0.025317,0.019185
1598,0.058346,0.006231,0.019185
1599,0.035379,0.006231,0.033609
1600,-0.010555,0.006231,0.033609
1601,-0.033523,0.006231,0.048033
1602,-0.010555,-0.025317,0.019185
1603,0.012412,-0.009543,0.019185
1604,-0.033523,-0.025317,0.004761
1605,-0.079457,-0.009543,-0.009662
1606,0.012412,-0.009543,0.004761
1607,0.012412,-0.009543,-0.009662
1608,-0.033523,0.006231,-0.024086
1609,-0.010555,-0.009543,0.004761
1610,-0.05649,-0.025317,-0.009662
1611,-0.05649,-0.009543,0.004761
1612,-0.033523,0.006231,-0.009662
1613,-0.033523,0.022005,-0.009662
1614,-0.010555,-0.025317,-0.009662
1615,0.035379,-0.009543,-0.024086
1616,-0.010555,-0.009543,0.004761
1617,-0.010555,-0.009543,0.004761
1618,-0.033523,-0.009543,0.004761
1619,0.035379,-0.025317,-0.024086
1620,-0.033523,-0.009543,-0.024086
1621,-0.033523,-0.009543,-0.024086
1622,0.127248,-0.041091,-0.009662
1623,0.012412,-0.025317,-0.009662
1624,0.012412,0.006231,0.004761
1625,0.012412,-0.009543,0.019185
1626,0.012412,-0.009543,0.033609
1627,-0.010555,-0.009543,0.019185
1628,-0.010555,-0.009543,0.019185
1629,0.035379,0.006231,0.019185
1630,0.058346,-0.009543,0.019185
1631,0.035379,0.006231,0.019185
1632,-0.010555,-0.041091,-0.009662
1633,-0.033523,-0.009543,0.004761
1634,0.012412,-0.009543,0.048033
1635,-0.033523,0.006231,-0.009662
1636,-0.033523,-0.025317,-0.009662
1637,-0.079457,-0.025317,-0.009662
1638,-0.010555,-0.009543,0.004761
1639,-0.010555,-0.009543,0.004761
1640,-0.033523,0.006231,0.004761
1641,-0.010555,-0.025317,-0.009662
1642,0.012412,-0.009543,-0.009662
1643,-0.010555,-0.009543,-0.009662
1644,0.012412,-0.025317,-0.009662
1645,0.012412,-0.025317,0.004761
1646,0.012412,-0.025317,-0.009662
1647,-0.079457,-0.009543,-0.009662
1648,0.035379,-0.009543,-0.009662
1649,-0.010555,-0.009543,-0.009662
1650,0.058346,-0.025317,0.004761
1651,-0.010555,-0.009543,-0.009662
1652,0.035379,-0.009543,-0.009662
1653,0.012412,-0.009543,0.004761
1654,0.058346,-0.009543,-0.009662
1655,0.012412,-0.009543,-0.009662
1656,0.012412,-0.009543,0.004761
1657,0.035379,-0.041091,0.004761
1658,0.012412,-0.025317,0.019185
1659,0.012412,0.006231,0.004761
1660,0.035379,0.022005,0.004761
1661,-0.010555,-0.025317,0.004761
1662,-0.010555,-0.009543,0.019185
1663,-0.05649,-0.009543,0.004761
1664,-0.079457,-0.009543,0.004761
1665,0.058346,-0.025317,0.004761
1666,0.012412,-0.009543,-0.009662
1667,-0.010555,-0.009543,-0.009662
1668,-0.05649,-0.009543,0.019185
1669,-0.010555,-0.025317,-0.024086
1670,-0.010555,-0.025317,-0.009662
1671,-0.033523,-0.009543,-0.009662
1672,0.012412,-0.009543,0.004761
1673,-0.033523,-0.009543,0.004761
1674,-0.010555,-0.009543,0.004761
1675,0.035379,-0.009543,-0.009662
1676,-0.033523,-0.009543,-0.009662
1677,-0.033523,-0.025317,0.004761
1678,-0.033523,-0.009543,0.004761
1679,-0.010555,-0.009543,0.004761
1680,0.035379,-0.009543,0.004761
1681,0.035379,-0.009543,0.004761
1682,-0.010555,0.006231,0.004761
1683,0.012412,0.006231,0.004761
1684,0.035379,-0.025317,-0.009662
1685,0.012412,-0.025317,-0.009662
1686,-0.033523,-0.025317,0.004761
1687,0.035379,0.006231,0.004761
1688,0.058346,-0.009543,0.019185
1689,0.058346,-0.009543,0.004761
1690,0.012412,-0.009543,0.004761
1691,0.058346,-0.009543,0.004761
1692,0.012412,-0.025317,-0.024086
1693,-0.033523,-0.041091,-0.009662
1694,-0.010555,-0.009543,0.004761
1695,-0.033523,-0.025317,-0.009662
1696,-0.05649,-0.025317,0.004761
1697,-0.033523,0.006231,0.004761
1698,-0.033523,0.006231,0.019185
1699,-0.033523,-0.009543,0.004761
1700,-0.033523,-0.009543,0.004761
1701,-0.010555,-0.009543,0.004761
1702,-0.033523,-0.009543,0.004761
1703,0.035379,-0.009543,-0.009662
1704,-0.033523,-0.025317,-0.009662
1705,-0.05649,-0.009543,-0.009662
1706,-0.033523,-0.009543,-0.024086
1707,-0.010555,-0.025317,-0.024086
1708,0.058346,-0.025317,-0.009662
1709,-0.010555,-0.009543,-0.009662
1710,0.012412,-0.025317,0.019185
1711,0.012412,0.006231,0.004761
1712,0.012412,0.006231,0.004761
1713,-0.033523,-0.009543,0.004761
1714,-0.05649,-0.025317,0.004761
1715,0.058346,-0.009543,0.004761
1716,-0.033523,-0.025317,0.004761
1717,0.058346,-0.025317,-0.009662
1718,0.035379,0.006231,-0.009662
1719,0.058346,-0.009543,-0.009662
1720,0.058346,-0.009543,-0.009662
1721,-0.010555,0.006231,0.019185
1722,0.035379,0.006231,0.004761
1723,0.012412,0.022005,0.019185
1724,-0.010555,-0.009543,0.019185
1725,-0.033523,-0.009543,0.033609
1726,-0.033523,-0.009543,0.019185
1727,-0.010555,-0.009543,0.004761
1728,0.012412,-0.025317,0.004761
1729,-0.05649,-0.009543,0.004761
1730,-0.010555,-0.009543,-0.009662
1731,0.012412,-0.025317,0.019185
1732,-0.079457,-0.009543,-0.009662
1733,-0.010555,0.006231,0.004761
1734,-0.033523,0.006231,0.004761
1735,0.012412,-0.009543,0.019185
1736,-0.010555,-0.009543,-0.009662
1737,0.035379,-0.025317,-0.009662
1738,0.012412,-0.009543,-0.009662
1739,0.012412,-0.041091,0.004761
1740,-0.033523,0.006231,-0.009662
1741,0.012412,-0.009543,-0.009662
1742,0.012412,-0.025317,-0.009662
1743,0.012412,-0.025317,-0.024086
1744,-0.010555,-0.025317,-0.009662
1745,0.012412,-0.009543,-0.009662
1746,0.012412,-0.009543,0.004761
1747,0.035379,0.006231,0.004761
1748,-0.010555,-0.025317,-0.009662
1749,0.012412,-0.009543,-0.024086
1750,0.012412,-0.009543,0.019185
1751,-0.010555,0.006231,0.004761
1752,-0.010555,0.006231,-0.009662
1753,0.035379,-0.025317,-0.009662
1754,0.035379,0.006231,0.004761
1755,0.127248,-0.009543,0.004761
1756,-0.033523,-0.009543,0.004761
1757,0.012412,-0.009543,0.004761
1758,-0.010555,-0.009543,0.004761
1759,0.012412,-0.009543,0.004761
1760,-0.033523,-0.009543,-0.024086
1761,-0.033523,-0.009543,-0.024086
1762,-0.079457,-0.009543,-0.009662
1763,-0.05649,-0.025317,-0.009662
1764,-0.010555,-0.009543,-0.024086
1765,0.012412,-0.009543,0.004761
1766,-0.010555,-0.009543,-0.009662
1767,0.012412,-0.009543,0.004761
1768,0.012412,-0.009543,-0.009662
1769,0.012412,-0.025317,0.019185
1770,0.012412,-0.009543,-0.009662
1771,-0.010555,-0.009543,0.019185
1772,0.012412,-0.009543,0.019185
1773,0.035379,0.006231,0.033609
1774,0.035379,-0.009543,-0.009662
1775,-0.010555,-0.025317,-0.024086
1776,0.012412,-0.025317,-0.024086
1777,0.058346,-0.009543,0.004761
1778,-0.033523,-0.025317,-0.009662
1779,0.035379,0.006231,0.004761
1780,0.058346,0.006231,-0.009662
1781,0.058346,-0.009543,0.004761
1782,-0.010555,0.022005,-0.009662
1783,-0.010555,0.006231,-0.009662
1784,-0.033523,-0.009543,-0.009662
1785,0.012412,-0.009543,0.004761
1786,0.012412,-0.009543,0.033609
1787,-0.010555,-0.025317,0.004761
1788,-0.05649,-0.025317,0.004761
1789,-0.010555,-0.009543,0.004761
1790,-0.010555,-0.009543,0.004761
1791,-0.033523,0.006231,-0.009662
1792,-0.010555,-0.009543,-0.009662
1793,0.012412,-0.009543,0.004761
1794,-0.033523,0.006231,0.019185
1795,-0.010555,-0.025317,-0.009662
1796,0.012412,-0.009543,-0.009662
1797,-0.033523,-0.025317,0.004761
1798,0.035379,-0.009543,-0.009662
1799,-0.033523,-0.009543,-0.009662
1800,0.012412,-0.009543,-0.024086
1801,0.058346,-0.025317,-0.009662
1802,0.012412,-0.025317,-0.009662
1803,0.012412,-0.041091,-0.009662
1804,0.035379,0.006231,-0.009662
1805,0.012412,-0.009543,0.004761
1806,0.012412,-0.025317,0.004761
1807,0.081313,0.006231,0.019185
1808,0.012412,-0.009543,0.019185
1809,-0.033523,-0.009543,0.019185
1810,-0.010555,0.006231,0.004761
1811,0.012412,0.006231,0.004761
1812,0.012412,-0.025317,0.019185
1813,-0.05649,0.006231,-0.009662
1814,0.012412,-0.009543,0.019185
1815,0.012412,0.006231,0.004761
1816,-0.05649,-0.009543,0.004761
1817,0.012412,0.022005,0.004761
1818,0.012412,-0.009543,0.019185
1819,0.012412,0.022005,-0.009662
1820,-0.010555,-0.025317,-0.024086
1821,-0.010555,-0.025317,-0.024086
1822,-0.033523,-0.025317,-0.009662
1823,-0.010555,-0.009543,-0.009662
1824,-0.05649,-0.025317,0.004761
1825,0.012412,-0.009543,0.004761
1826,0.012412,-0.009543,0.004761
1827,0.012412,-0.009543,0.004761
1828,0.012412,-0.009543,0.004761
1829,0.035379,-0.009543,0.004761
1830,-0.010555,0.006231,-0.009662
1831,0.035379,-0.009543,-0.009662
1832,-0.010555,-0.009543,0.019185
1833,-0.033523,-0.009543,0.019185
1834,0.035379,-0.025317,0.004761
1835,0.035379,-0.009543,0.004761
1836,0.058346,-0.009543,-0.009662
1837,0.035379,-0.009543,0.004761
1838,0.012412,0.006231,0.004761
1839,0.035379,-0.025317,-0.024086
1840,-0.033523,0.006231,-0.024086
1841,-0.010555,-0.009543,-0.024086
1842,0.012412,-0.025317,-0.009662
1843,0.012412,-0.025317,-0.009662
1844,-0.010555,-0.009543,-0.009662
1845,-0.05649,-0.009543,0.004761
1846,-0.010555,-0.009543,0.004761
1847,0.012412,-0.025317,0.019185
1848,0.012412,-0.009543,0.004761
1849,-0.033523,-0.009543,0.019185
1850,-0.010555,-0.025317,-0.009662
1851,-0.033523,0.006231,0.019185
1852,-0.010555,0.006231,0.004761
1853,-0.010555,-0.009543,0.004761
1854,-0.033523,-0.041091,-0.009662
1855,-0.010555,-0.009543,-0.009662
1856,0.035379,-0.009543,-0.009662
1857,0.012412,0.006231,0.004761
1858,0.012412,0.006231,0.019185
1859,0.012412,-0.025317,0.004761
1860,0.012412,-0.025317,0.004761
1861,0.058346,-0.009543,-0.009662
1862,0.058346,-0.009543,0.004761
1863,0.012412,0.006231,-0.009662
1864,0.012412,-0.009543,-0.024086
1865,0.012412,-0.009543,-0.024086
1866,0.012412,-0.009543,0.019185
1867,0.012412,-0.025317,0.004761
1868,0.081313,0.006231,0.004761
1869,0.012412,0.006231,0.004761
1870,0.012412,-0.025317,0.019185
1871,-0.05649,-0.009543,-0.009662
1872,-0.033523,-0.009543,-0.009662
1873,0.035379,-0.009543,0.004761
1874,-0.033523,-0.025317,0.019185
1875,-0.05649,-0.009543,0.004761
1876,-0.033523,-0.009543,0.004761
1877,0.035379,-0.009543,-0.009662
1878,-0.033523,-0.009543,0.004761
1879,-0.079457,-0.009543,0.004761
1880,0.035379,0.006231,-0.009662
1881,-0.033523,-0.009543,0.004761
1882,-0.010555,-0.009543,0.004761
1883,0.012412,-0.025317,-0.009662
1884,-0.010555,0.006231,-0.009662
1885,-0.010555,-0.025317,0.004761
1886,-0.033523,-0.009543,0.004761
1887,-0.033523,-0.009543,0.004761
1888,0.012412,-0.009543,0.019185
1889,-0.010555,-0.025317,0.004761
1890,-0.010555,0.006231,0.004761
1891,0.035379,-0.009543,-0.009662
1892,0.012412,-0.025317,-0.024086
1893,0.058346,-0.009543,-0.009662
1894,0.012412,-0.009543,-0.009662
1895,0.012412,-0.009543,-0.009662
1896,0.081313,-0.009543,0.004761
1897,-0.010555,-0.009543,0.004761
1898,-0.010555,-0.009543,0.019185
1899,0.012412,-0.009543,0.019185
1900,-0.033523,-0.009543,-0.009662
1901,0.012412,-0.009543,0.019185
1902,-0.033523,-0.009543,0.019185
1903,-0.033523,-0.009543,-0.009662
1904,-0.033523,-0.025317,0.004761
1905,-0.033523,-0.009543,0.004761
1906,-0.033523,0.006231,-0.009662
1907,-0.033523,-0.009543,0.004761
1908,-0.010555,0.006231,0.033609
1909,-0.010555,0.006231,0.019185
1910,-0.033523,0.006231,0.004761
1911,-0.010555,-0.009543,-0.024086
1912,-0.010555,-0.009543,-0.009662
1913,-0.05649,-0.041091,-0.009662
1914,-0.010555,-0.025317,-0.024086
1915,-0.010555,-0.009543,-0.024086
1916,0.012412,-0.025317,-0.024086
1917,-0.033523,-0.009543,-0.024086
1918,-0.033523,-0.009543,-0.024086
1919,-0.033523,-0.025317,0.004761
1920,0.058346,0.006231,-0.009662
1921,-0.010555,0.006231,-0.009662
1922,0.081313,-0.025317,0.004761
1923,0.035379,-0.025317,0.004761
1924,0.035379,-0.009543,0.004761
1925,0.012412,0.006231,-0.009662
1926,0.012412,-0.009543,0.004761
1927,-0.010555,-0.009543,0.004761
1928,-0.033523,-0.009543,-0.009662
1929,-0.010555,0.006231,-0.009662
1930,-0.010555,-0.009543,-0.009662
1931,-0.010555,-0.009543,0.019185
1932,-0.033523,0.006231,0.004761
1933,0.012412,-0.009543,0.004761
1934,-0.033523,0.006231,-0.009662
1935,0.012412,-0.009543,0.019185
1936,0.012412,-0.009543,-0.009662
1937,-0.033523,0.006231,0.004761
1938,-0.033523,-0.009543,0.019185
1939,-0.010555,-0.009543,0.004761
1940,-0.05649,0.006231,0.019185
1941,0.012412,-0.009543,0.004761
1942,0.058346,0.006231,0.019185
1943,0.012412,0.006231,0.019185
1944,-0.079457,-0.009543,-0.009662
1945,0.012412,-0.025317,-0.024086
1946,-0.010555,-0.009543,-0.009662
1947,-0.010555,-0.025317,-0.009662
1948,-0.010555,-0.025317,-0.024086
1949,0.012412,-0.009543,-0.024086
1950,0.012412,-0.009543,0.019185
1951,0.012412,-0.025317,0.004761
1952,0.012412,-0.025317,-0.009662
1953,0.035379,-0.025317,-0.024086
1954,0.035379,-0.025317,-0.009662
1955,0.012412,0.006231,0.004761
1956,-0.033523,-0.009543,0.004761
1957,0.058346,-0.009543,-0.009662
1958,-0.033523,-0.009543,0.004761
1959,0.012412,-0.009543,0.004761
1960,-0.010555,-0.009543,-0.009662
1961,0.012412,-0.025317,-0.009662
1962,-0.033523,-0.009543,0.004761
1963,-0.033523,-0.009543,-0.009662
1964,-0.079457,-0.009543,-0.009662
1965,-0.010555,-0.009543,0.004761
1966,0.012412,-0.009543,-0.009662
1967,-0.010555,-0.009543,-0.009662
1968,-0.010555,0.006231,0.019185
1969,-0.010555,0.006231,0.019185
1970,-0.033523,-0.009543,-0.009662
1971,-0.010555,-0.009543,-0.009662
1972,-0.010555,-0.009543,-0.009662
1973,0.035379,0.006231,0.004761
1974,-0.010555,-0.009543,0.019185
1975,0.012412,-0.009543,0.019185
1976,-0.033523,-0.009543,0.004761
1977,0.035379,-0.025317,-0.009662
1978,0.058346,-0.009543,0.004761
1979,0.012412,-0.025317,-0.024086
1980,-0.010555,-0.009543,-0.009662
1981,0.035379,-0.009543,-0.009662
1982,-0.033523,-0.009543,0.004761
1983,-0.010555,-0.009543,0.004761
1984,0.058346,-0.009543,0.004761
1985,0.012412,-0.009543,0.004761
1986,-0.010555,-0.009543,0.004761
1987,-0.033523,-0.009543,-0.009662
1988,-0.010555,-0.009543,0.019185
1989,0.035379,-0.009543,0.004761
1990,-0.033523,-0.009543,0.004761
1991,-0.010555,-0.009543,0.004761
1992,0.035379,-0.025317,0.004761
1993,0.012412,-0.009543,0.004761
1994,-0.010555,0.022005,0.004761
1995,0.035379,-0.009543,0.019185
1996,-0.010555,-0.025317,-0.009662
1997,-0.010555,-0.009543,-0.009662
1998,-0.05649,-0.009543,-0.009662
1999,-0.010555,-0.009543,-0.009662
2000,0.035379,-0.009543,-0.009662
2001,-0.033523,-0.009543,-0.009662
2002,-0.05649,-0.009543,0.004761
2003,0.035379,-0.009543,0.004761
2004,0.058346,-0.009543,-0.009662
2005,0.035379,0.006231,-0.009662
2006,-0.010555,-0.025317,0.004761
2007,-0.010555,-0.009543,0.019185
2008,0.012412,-0.009543,-0.024086
2009,0.012412,-0.025317,-0.024086
2010,0.012412,-0.009543,-0.009662
2011,0.012412,-0.009543,-0.009662
2012,0.012412,-0.025317,-0.009662
2013,0.035379,-0.009543,-0.009662
2014,-0.010555,0.006231,-0.009662
2015,0.058346,0.006231,-0.009662
2016,-0.033523,-0.025317,-0.009662
2017,-0.010555,0.006231,0.019185
2018,-0.033523,-0.009543,0.019185
2019,0.081313,-0.041091,0.019185
2020,0.012412,-0.025317,0.004761
2021,-0.033523,0.006231,-0.024086
2022,-0.05649,-0.025317,0.004761
2023,0.012412,0.006231,0.004761
2024,-0.05649,-0.025317,0.004761
2025,-0.033523,-0.009543,0.004761
2026,-0.010555,-0.025317,0.019185
2027,0.035379,-0.025317,-0.009662
2028,0.012412,-0.025317,0.004761
2029,-0.010555,-0.009543,-0.009662
2030,-0.010555,0.006231,0.004761
2031,-0.010555,-0.025317,-0.009662
2032,-0.033523,0.006231,0.004761
2033,0.012412,-0.009543,-0.009662
2034,0.058346,-0.009543,-0.024086
2035,0.012412,-0.009543,-0.009662
2036,0.058346,0.006231,-0.009662
2037,0.012412,-0.025317,-0.009662
2038,0.035379,-0.009543,0.004761
2039,0.012412,0.006231,0.033609
2040,-0.010555,0.006231,0.004761
2041,0.012412,0.006231,-0.009662
2042,0.058346,-0.009543,0.004761
2043,0.012412,-0.009543,0.004761
2044,-0.033523,0.006231,0.004761
2045,0.10428,-0.009543,0.004761
2046,-0.010555,-0.009543,0.004761
2047,-0.010555,-0.009543,-0.009662
2048,0.012412,-0.025317,-0.024086
2049,-0.010555,-0.025317,0.004761
2050,-0.010555,0.006231,0.019185
2051,-0.033523,-0.025317,-0.024086
2052,-0.05649,-0.025317,-0.009662
2053,0.012412,0.006231,-0.009662
2054,0.012412,0.006231,-0.024086
2055,-0.033523,-0.025317,0.004761
2056,-0.05649,-0.025317,0.004761
2057,-0.05649,-0.025317,0.004761
2058,0.012412,-0.025317,-0.009662
2059,0.035379,-0.025317,0.004761
2060,0.012412,0.006231,0.004761
2061,-0.033523,-0.009543,-0.009662
2062,0.035379,0.006231,-0.009662
2063,0.012412,-0.009543,0.004761
2064,-0.010555,-0.025317,-0.009662
2065,0.035379,-0.009543,-0.009662
2066,-0.010555,-0.009543,-0.009662
2067,0.012412,-0.009543,-0.009662
2068,0.058346,0.006231,-0.009662
2069,0.035379,-0.025317,-0.009662
2070,-0.010555,-0.025317,0.004761
2071,-0.05649,-0.025317,0.004761
2072,0.012412,-0.009543,0.004761
2073,0.012412,0.006231,0.004761
2074,-0.010555,-0.025317,0.019185
2075,0.012412,-0.009543,0.004761
2076,0.035379,-0.009543,0.019185
2077,-0.033523,-0.009543,-0.009662
2078,-0.010555,0.006231,-0.009662
2079,-0.079457,-0.009543,0.019185
2080,0.012412,0.022005,0.019185
2081,0.012412,-0.025317,0.004761
2082,-0.033523,-0.009543,0.004761
2083,-0.033523,-0.009543,0.004761
2084,-0.010555,-0.009543,0.019185
2085,-0.033523,-0.009543,0.019185
2086,-0.010555,-0.009543,0.004761
2087,0.035379,-0.009543,0.004761
2088,0.012412,-0.009543,0.048033
2089,0.035379,0.006231,0.004761
2090,-0.033523,-0.009543,-0.009662
2091,-0.010555,-0.009543,0.019185
2092,-0.033523,-0.025317,-0.009662
2093,0.035379,-0.009543,-0.009662
2094,0.012412,-0.009543,-0.009662
2095,-0.010555,-0.009543,-0.009662
2096,-0.010555,-0.009543,-0.009662
2097,0.012412,-0.009543,0.004761
2098,0.012412,0.006231,-0.024086
2099,0.058346,0.006231,-0.009662
2100,0.012412,-0.009543,0.004761
2101,-0.033523,-0.025317,0.004761
2102,0.012412,0.006231,0.004761
2103,-0.010555,0.006231,0.004761
2104,0.012412,0.006231,0.004761
2105,-0.033523,-0.009543,-0.024086
2106,-0.033523,-0.025317,0.004761
2107,-0.010555,-0.009543,-0.009662
2108,0.012412,-0.025317,-0.024086
2109,-0.05649,-0.009543,-0.024086
2110,-0.010555,-0.009543,-0.009662
2111,0.035379,-0.009543,0.004761
2112,-0.010555,-0.025317,-0.009662
2113,-0.010555,-0.025317,-0.009662
2114,-0.05649,-0.009543,0.019185
2115,0.012412,-0.009543,0.019185
2116,-0.033523,0.006231,0.019185
2117,-0.033523,0.022005,0.019185
2118,-0.010555,-0.009543,0.019185
2119,-0.010555,-0.009543,0.004761
2120,0.012412,0.006231,-0.009662
2121,-0.010555,0.022005,-0.009662
2122,0.012412,-0.009543,0.004761
2123,0.035379,-0.009543,0.004761
2124,0.058346,-0.009543,-0.024086
2125,0.035379,-0.025317,-0.009662
2126,-0.010555,-0.025317,-0.009662
2127,0.058346,-0.009543,-0.009662
2128,0.012412,-0.025317,0.004761
2129,-0.010555,-0.009543,-0.009662
2130,0.012412,0.006231,-0.024086
2131,-0.010555,0.006231,0.004761
2132,0.127248,0.006231,0.004761
2133,-0.010555,-0.009543,0.004761
2134,0.012412,0.022005,-0.009662
2135,0.012412,0.006231,-0.009662
2136,-0.010555,-0.009543,-0.009662
2137,-0.033523,-0.025317,0.019185
2138,-0.033523,-0.009543,-0.009662
2139,-0.033523,-0.041091,-0.009662
2140,-0.05649,-0.009543,-0.009662
2141,0.012412,-0.009543,-0.009662
2142,-0.010555,-0.025317,-0.009662
2143,0.012412,-0.025317,-0.024086
2144,-0.033523,-0.009543,0.004761
2145,-0.010555,-0.009543,-0.009662
2146,0.058346,-0.009543,0.004761
2147,-0.033523,-0.009543,0.004761
2148,-0.010555,-0.041091,0.004761
2149,0.035379,-0.009543,-0.009662
2150,0.035379,-0.009543,0.019185
2151,0.012412,-0.009543,0.004761
2152,0.012412,-0.009543,0.004761
2153,0.012412,-0.009543,0.004761
2154,0.058346,-0.009543,0.004761
2155,0.012412,-0.009543,0.004761
2156,-0.010555,-0.009543,0.004761
2157,0.035379,-0.009543,0.004761
2158,-0.033523,-0.009543,0.004761
2159,-0.05649,-0.009543,-0.009662
2160,-0.033523,-0.009543,-0.009662
2161,0.058346,0.006231,-0.009662
2162,-0.010555,-0.009543,0.004761
2163,0.012412,-0.009543,0.004761
2164,0.012412,-0.009543,-0.009662
2165,0.012412,0.006231,0.004761
2166,-0.033523,-0.009543,0.004761
2167,-0.033523,-0.009543,0.004761
2168,-0.05649,0.006231,-0.009662
2169,0.012412,-0.009543,0.004761
2170,-0.010555,-0.025317,0.004761
2171,-0.05649,-0.025317,0.004761
2172,-0.010555,-0.009543,0.004761
2173,0.035379,0.006231,-0.024086
2174,-0.033523,-0.025317,-0.009662
2175,0.012412,-0.009543,0.004761
2176,-0.05649,-0.025317,0.004761
2177,0.012412,-0.009543,0.004761
2178,-0.033523,0.006231,0.019185
2179,0.058346,0.006231,-0.009662
2180,0.058346,-0.009543,-0.009662
2181,0.035379,0.006231,-0.009662
2182,0.012412,-0.025317,-0.009662
2183,-0.010555,-0.041091,-0.03851
2184,0.012412,-0.009543,-0.024086
2185,0.035379,-0.025317,0.004761
2186,-0.010555,-0.009543,-0.009662
2187,0.012412,-0.009543,-0.009662
2188,0.058346,-0.009543,-0.009662
2189,0.058346,-0.025317,0.004761
2190,0.035379,0.006231,0.004761
2191,-0.033523,-0.009543,-0.009662
2192,-0.033523,-0.025317,-0.009662
2193,0.035379,0.006231,-0.009662
2194,-0.010555,-0.009543,-0.009662
2195,-0.033523,-0.009543,-0.009662
2196,-0.010555,-0.025317,0.019185
2197,-0.033523,-0.009543,0.004761
2198,0.035379,0.006231,0.019185
2199,-0.033523,-0.009543,0.019185
2200,-0.033523,-0.009543,-0.024086
2201,-0.010555,-0.025317,-0.009662
2202,-0.033523,-0.025317,-0.009662
2203,-0.033523,-0.009543,-0.009662
2204,0.012412,-0.025317,-0.009662
2205,-0.033523,-0.025317,-0.009662
2206,-0.010555,-0.009543,-0.009662
2207,0.012412,-0.009543,-0.009662
2208,0.012412,-0.009543,-0.009662
2209,-0.033523,-0.009543,0.004761
2210,0.035379,-0.009543,0.019185
2211,0.058346,-0.009543,0.004761
2212,0.035379,-0.009543,-0.009662
2213,-0.010555,0.006231,0.019185
2214,0.012412,0.022005,0.004761
2215,0.035379,-0.009543,-0.009662
2216,0.012412,-0.009543,0.004761
2217,0.012412,-0.025317,0.004761
2218,-0.033523,-0.025317,-0.024086
2219,0.035379,-0.009543,-0.009662
2220,0.127248,-0.025317,-0.009662
2221,-0.033523,0.006231,-0.009662
2222,0.012412,-0.025317,-0.009662
2223,0.035379,0.006231,-0.009662
2224,-0.010555,-0.009543,0.004761
2225,-0.033523,0.022005,0.033609
2226,-0.010555,0.006231,0.019185
2227,0.012412,-0.009543,0.019185
2228,-0.033523,0.006231,-0.009662
2229,-0.010555,-0.009543,-0.009662
2230,-0.033523,0.006231,-0.009662
2231,-0.010555,-0.025317,-0.009662
2232,0.012412,-0.009543,-0.009662
2233,-0.010555,-0.009543,-0.009662
2234,-0.010555,0.006231,0.004761
2235,-0.033523,-0.009543,0.004761
2236,-0.033523,-0.025317,0.048033
2237,0.012412,-0.025317,-0.024086
2238,0.012412,-0.025317,-0.009662
2239,0.035379,-0.009543,0.004761
2240,0.035379,-0.025317,-0.009662
2241,0.012412,-0.009543,0.004761
2242,0.035379,-0.009543,0.004761
2243,0.058346,-0.009543,0.004761
2244,-0.010555,-0.009543,-0.024086
2245,0.012412,-0.009543,-0.009662
2246,0.058346,-0.025317,0.004761
2247,-0.05649,0.006231,0.004761
2248,-0.010555,-0.025317,-0.009662
2249,-0.033523,-0.009543,0.019185
2250,0.035379,-0.009543,0.004761
2251,0.035379,-0.009543,0.004761
2252,0.012412,-0.009543,0.019185
2253,-0.033523,-0.009543,0.004761
2254,0.012412,-0.009543,-0.009662
2255,-0.010555,0.022005,-0.009662
2256,-0.05649,-0.009543,0.019185
2257,-0.033523,0.006231,-0.009662
2258,-0.010555,0.006231,-0.009662
2259,-0.010555,-0.025317,-0.009662
2260,-0.05649,-0.025317,0.004761
2261,-0.010555,-0.009543,-0.024086
2262,0.012412,-0.025317,-0.009662
2263,-0.010555,-0.025317,-0.009662
2264,-0.010555,-0.025317,-0.009662
2265,0.035379,-0.025317,0.004761
2266,0.035379,0.006231,-0.009662
2267,-0.033523,-0.009543,0.004761
2268,0.012412,-0.025317,-0.009662
2269,0.035379,-0.009543,-0.009662
2270,0.058346,-0.009543,0.004761
2271,-0.010555,-0.009543,-0.009662
2272,0.012412,-0.025317,0.004761
2273,0.012412,0.006231,0.004761
2274,0.012412,0.006231,0.004761
2275,0.058346,0.006231,0.004761
2276,0.081313,0.006231,0.033609
2277,0.035379,-0.025317,-0.009662
2278,0.035379,-0.009543,-0.009662
2279,-0.033523,-0.025317,-0.024086
2280,0.012412,-0.009543,-0.009662
2281,0.012412,0.006231,0.019185
2282,0.035379,0.006231,-0.009662
2283,-0.010555,-0.025317,-0.024086
2284,-0.033523,-0.041091,-0.024086
2285,0.035379,-0.009543,-0.009662
2286,-0.033523,-0.025317,0.004761
2287,-0.05649,-0.009543,0.004761
2288,-0.033523,-0.025317,-0.009662
2289,-0.079457,-0.009543,0.004761
2290,-0.033523,-0.009543,-0.024086
2291,-0.010555,-0.025317,-0.009662
2292,0.035379,-0.009543,0.004761
2293,0.012412,-0.009543,0.004761
2294,-0.033523,-0.009543,-0.009662
2295,0.035379,0.006231,0.004761
2296,0.058346,0.006231,-0.009662
2297,0.012412,-0.009543,-0.009662
2298,-0.033523,0.006231,-0.009662
2299,-0.05649,-0.009543,0.033609
2300,0.012412,-0.009543,-0.009662
2301,0.012412,0.006231,-0.009662
2302,0.012412,-0.009543,-0.009662
2303,0.035379,0.006231,0.004761
2304,0.035379,0.006231,0.004761
2305,0.012412,-0.009543,-0.009662
2306,-0.010555,-0.009543,0.004761
2307,0.035379,-0.025317,-0.009662
2308,0.012412,-0.009543,-0.009662
2309,0.035379,0.006231,-0.009662
2310,0.012412,-0.009543,0.004761
2311,-0.010555,-0.025317,0.019185
2312,0.035379,-0.025317,0.004761
2313,0.012412,-0.009543,-0.024086
2314,-0.033523,-0.009543,0.004761
2315,-0.033523,-0.009543,0.004761
2316,0.035379,0.006231,0.004761
2317,-0.010555,0.069328,-0.024086
2318,-0.033523,-0.009543,-0.024086
2319,-0.010555,-0.009543,0.004761
2320,-0.033523,-0.009543,-0.009662
2321,-0.010555,-0.009543,0.004761
2322,-0.010555,0.006231,0.019185
2323,0.012412,-0.009543,0.004761
2324,0.012412,-0.025317,0.004761
2325,-0.05649,-0.009543,0.004761
2326,0.012412,-0.009543,-0.009662
2327,0.012412,-0.009543,0.004761
2328,0.035379,-0.009543,-0.009662
2329,-0.010555,-0.025317,0.004761
2330,0.058346,-0.009543,-0.024086
2331,0.035379,-0.025317,-0.009662
2332,0.035379,-0.009543,-0.009662
2333,-0.010555,-0.009543,-0.009662
2334,-0.010555,0.006231,-0.009662
2335,0.012412,-0.009543,-0.009662
2336,0.012412,0.006231,0.004761
2337,-0.010555,0.006231,0.004761
2338,0.012412,-0.025317,-0.009662
2339,0.035379,-0.009543,0.004761
2340,0.012412,0.006231,-0.009662
2341,-0.033523,-0.009543,-0.009662
2342,0.035379,0.006231,0.004761
2343,-0.010555,-0.009543,-0.024086
2344,0.012412,-0.009543,0.004761
2345,-0.010555,-0.009543,0.004761
2346,-0.033523,-0.025317,0.004761
2347,-0.010555,-0.009543,0.004761
2348,-0.033523,-0.009543,-0.009662
2349,-0.05649,-0.009543,0.004761
2350,-0.033523,0.006231,-0.009662
2351,-0.033523,0.006231,-0.009662
2352,0.012412,-0.009543,-0.009662
2353,0.012412,-0.009543,-0.009662
2354,0.012412,0.006231,-0.009662
2355,0.012412,-0.009543,0.019185
2356,-0.033523,-0.009543,0.019185
2357,0.012412,-0.009543,0.048033
2358,0.012412,-0.009543,0.004761
2359,0.035379,-0.009543,0.004761
2360,-0.033523,-0.009543,0.019185
2361,0.012412,-0.009543,-0.009662
2362,0.012412,-0.009543,-0.024086
2363,0.035379,-0.009543,-0.009662
2364,0.012412,-0.025317,-0.024086
2365,-0.010555,-0.025317,-0.009662
2366,0.012412,-0.009543,-0.009662
2367,0.035379,-0.025317,-0.024086
2368,-0.05649,-0.009543,-0.009662
2369,0.035379,0.006231,0.004761
2370,0.012412,-0.009543,0.004761
2371,0.012412,-0.009543,0.019185
2372,0.012412,-0.025317,0.019185
2373,0.035379,0.006231,0.019185
2374,-0.010555,-0.025317,0.004761
2375,0.012412,-0.009543,0.019185
2376,-0.010555,0.006231,0.004761
2377,-0.010555,-0.009543,-0.009662
2378,0.035379,0.006231,-0.024086
2379,-0.05649,-0.025317,-0.009662
2380,-0.079457,-0.009543,0.004761
2381,-0.05649,-0.025317,-0.024086
2382,-0.05649,-0.009543,0.004761
2383,-0.033523,-0.009543,0.004761
2384,-0.033523,-0.009543,0.019185
2385,0.012412,-0.025317,0.004761
2386,0.035379,0.006231,-0.009662
2387,-0.079457,-0.025317,-0.009662
2388,0.012412,-0.025317,-0.009662
2389,0.012412,-0.009543,-0.009662
2390,0.058346,-0.025317,0.004761
2391,0.012412,-0.025317,0.004761
2392,0.012412,-0.009543,-0.009662
2393,0.012412,-0.009543,0.004761
2394,-0.010555,0.006231,-0.009662
2395,0.012412,-0.009543,-0.009662
2396,0.035379,-0.009543,0.004761
2397,0.012412,-0.009543,-0.009662
2398,0.012412,0.006231,-0.024086
2399,-0.033523,-0.009543,0.004761
2400,-0.010555,0.006231,-0.009662
2401,-0.010555,0.006231,0.004761
2402,0.035379,0.006231,-0.009662
2403,-0.033523,-0.009543,0.004761
2404,0.058346,-0.009543,0.004761
2405,0.035379,-0.009543,0.019185
2406,0.012412,-0.009543,0.004761
2407,-0.010555,-0.009543,-0.009662
2408,-0.010555,-0.009543,-0.024086
2409,0.012412,-0.025317,-0.009662
2410,-0.010555,-0.009543,-0.009662
2411,-0.010555,-0.009543,-0.009662
2412,-0.010555,-0.009543,-0.009662
2413,-0.010555,0.006231,0.004761
2414,-0.010555,-0.025317,-0.024086
2415,-0.05649,-0.009543,-0.024086
2416,-0.033523,-0.025317,-0.024086
2417,0.035379,-0.009543,-0.009662
2418,-0.079457,0.006231,-0.009662
2419,-0.033523,-0.009543,-0.009662
2420,0.012412,-0.025317,-0.024086
2421,0.035379,-0.009543,-0.009662
2422,-0.010555,-0.025317,-0.009662
2423,0.035379,-0.009543,0.019185
2424,0.012412,-0.009543,0.019185
2425,0.035379,-0.009543,0.019185
2426,0.012412,-0.009543,0.004761
2427,-0.033523,-0.009543,-0.009662
2428,0.012412,0.006231,-0.009662
2429,-0.010555,-0.009543,0.004761
2430,-0.05649,-0.009543,0.019185
2431,0.035379,0.006231,0.004761
2432,-0.010555,-0.025317,0.004761
2433,-0.010555,0.006231,0.004761
2434,-0.010555,-0.041091,-0.009662
2435,0.035379,-0.009543,-0.009662
2436,-0.010555,-0.009543,-0.024086
2437,0.127248,0.006231,0.004761
2438,-0.010555,0.006231,0.019185
2439,-0.010555,0.022005,0.019185
2440,0.035379,0.006231,0.019185
2441,-0.033523,-0.009543,-0.009662
2442,-0.05649,-0.025317,-0.009662
2443,-0.033523,-0.041091,0.004761
2444,-0.033523,-0.009543,-0.009662
2445,-0.010555,-0.009543,0.004761
2446,-0.033523,-0.025317,-0.009662
2447,-0.010555,-0.025317,0.004761
2448,0.012412,-0.025317,-0.009662
2449,-0.033523,-0.009543,-0.024086
2450,0.012412,-0.009543,-0.009662
2451,-0.010555,-0.009543,0.004761
2452,0.081313,-0.009543,0.004761
2453,0.012412,0.006231,0.004761
2454,0.058346,-0.009543,-0.009662
2455,0.035379,-0.009543,-0.009662
2456,0.035379,-0.009543,-0.009662
2457,0.012412,-0.009543,-0.009662
2458,0.035379,-0.009543,-0.009662
2459,0.012412,-0.009543,-0.009662
2460,0.035379,-0.025317,-0.024086
2461,-0.010555,-0.009543,-0.024086
2462,0.012412,-0.025317,0.004761
2463,-0.010555,-0.009543,0.004761
2464,0.012412,0.006231,0.004761
2465,0.012412,0.022005,0.004761
2466,-0.010555,-0.009543,-0.009662
2467,0.012412,-0.009543,-0.024086
2468,0.058346,-0.009543,0.004761
2469,-0.05649,-0.009543,-0.009662
2470,-0.010555,-0.041091,-0.009662
2471,-0.010555,-0.009543,-0.009662
2472,-0.010555,-0.009543,0.004761
2473,-0.033523,-0.009543,-0.024086
2474,-0.033523,-0.009543,0.019185
2475,0.012412,0.022005,-0.009662
2476,-0.079457,-0.009543,0.004761
2477,-0.033523,-0.025317,0.004761
2478,-0.010555,-0.009543,0.004761
2479,0.058346,-0.025317,0.019185
2480,0.012412,-0.009543,0.004761
2481,0.012412,-0.009543,0.004761
2482,0.012412,-0.041091,-0.024086
2483,0.058346,-0.009543,-0.009662
2484,0.012412,-0.009543,-0.024086
2485,0.012412,-0.009543,-0.024086
2486,-0.010555,-0.009543,-0.024086
2487,0.012412,-0.025317,-0.009662
2488,-0.010555,-0.009543,-0.009662
2489,0.035379,-0.009543,0.004761
2490,0.012412,0.006231,-0.009662
2491,0.012412,-0.009543,-0.024086
2492,-0.010555,-0.009543,-0.009662
2493,-0.033523,-0.009543,-0.009662
2494,0.012412,0.006231,-0.009662
2495,-0.010555,-0.009543,-0.009662
2496,-0.010555,-0.009543,-0.009662
2497,-0.010555,-0.009543,-0.009662
2498,-0.033523,-0.025317,0.004761
2499,-0.010555,-0.009543,-0.009662
2500,-0.033523,-0.009543,-0.009662
2501,-0.010555,0.006231,-0.009662
2502,0.012412,0.006231,0.004761
2503,-0.033523,0.006231,0.019185
2504,-0.033523,-0.009543,0.019185
2505,-0.010555,0.006231,0.004761
2506,-0.010555,-0.009543,0.019185
2507,-0.010555,0.006231,0.004761
2508,0.012412,-0.009543,0.004761
2509,0.012412,0.006231,-0.009662
2510,0.012412,-0.009543,0.004761
2511,-0.033523,-0.041091,-0.024086
2512,0.035379,0.006231,-0.009662
2513,0.012412,-0.009543,-0.009662
2514,0.058346,0.006231,-0.009662
2515,-0.033523,-0.041091,-0.009662
2516,-0.010555,0.006231,-0.009662
2517,0.058346,-0.025317,-0.009662
2518,0.035379,0.006231,-0.009662
2519,0.012412,0.03778,-0.009662
2520,0.035379,-0.009543,-0.009662
2521,0.012412,-0.025317,-0.009662
2522,0.012412,-0.025317,-0.009662
2523,-0.010555,-0.009543,-0.009662
2524,0.012412,-0.009543,0.004761
2525,-0.010555,0.006231,-0.009662
2526,-0.033523,0.006231,-0.009662
2527,-0.033523,-0.009543,0.004761
2528,-0.010555,-0.009543,0.019185
2529,-0.010555,-0.009543,0.004761
2530,0.012412,-0.009543,0.004761
2531,-0.033523,-0.009543,0.004761
2532,0.035379,-0.025317,-0.009662
2533,-0.010555,0.006231,-0.024086
2534,-0.010555,0.006231,-0.009662
2535,0.012412,0.006231,0.004761
2536,-0.010555,0.006231,0.019185
2537,-0.05649,0.006231,-0.009662
2538,-0.010555,-0.009543,-0.009662
2539,-0.010555,-0.009543,-0.024086
2540,0.012412,-0.009543,-0.009662
2541,0.035379,-0.009543,0.004761
2542,-0.010555,-0.009543,-0.009662
2543,-0.010555,-0.009543,0.048033
2544,0.035379,-0.009543,-0.009662
2545,0.035379,-0.025317,-0.009662
2546,0.012412,-0.009543,-0.009662
2547,0.035379,-0.009543,-0.024086
2548,0.035379,-0.009543,0.004761
2549,0.035379,-0.025317,0.004761
2550,0.035379,0.006231,0.004761
2551,-0.010555,-0.009543,-0.009662
2552,0.012412,-0.009543,-0.009662
2553,-0.033523,-0.009543,0.004761
2554,-0.010555,-0.009543,-0.009662
2555,0.081313,-0.009543,-0.009662
2556,0.012412,0.006231,0.019185
2557,-0.010555,0.006231,0.004761
2558,-0.079457,-0.009543,-0.009662
2559,0.012412,0.006231,-0.009662
2560,-0.033523,-0.009543,0.004761
2561,-0.033523,-0.025317,-0.009662
2562,-0.010555,0.006231,-0.009662
2563,0.012412,-0.025317,-0.009662
2564,-0.010555,-0.009543,-0.024086
2565,-0.033523,0.006231,0.004761
2566,-0.033523,-0.009543,-0.024086
2567,-0.033523,-0.025317,-0.009662
2568,-0.05649,-0.025317,-0.009662
2569,0.012412,0.006231,0.004761
2570,-0.010555,-0.009543,0.004761
2571,0.058346,-0.009543,-0.009662
2572,0.035379,-0.009543,0.019185
2573,-0.010555,-0.009543,0.048033
2574,0.035379,-0.025317,-0.009662
2575,0.035379,-0.025317,-0.009662
2576,0.081313,-0.025317,-0.009662
2577,-0.010555,-0.009543,0.004761
2578,0.012412,-0.009543,0.033609
2579,-0.010555,-0.009543,-0.009662
2580,-0.010555,-0.009543,0.004761
2581,0.035379,0.006231,-0.009662
2582,0.035379,-0.009543,-0.009662
2583,-0.010555,-0.009543,-0.009662
2584,-0.010555,-0.009543,-0.009662
2585,-0.010555,-0.009543,0.004761
2586,0.035379,-0.009543,0.004761
2587,-0.010555,-0.009543,-0.009662
2588,-0.033523,-0.025317,-0.009662
2589,0.012412,-0.009543,0.004761
2590,0.012412,0.022005,0.004761
2591,-0.05649,-0.025317,-0.024086
2592,-0.05649,-0.025317,-0.009662
2593,-0.033523,-0.041091,0.004761
2594,0.035379,-0.009543,-0.024086
2595,-0.010555,-0.009543,0.004761
2596,0.012412,0.006231,0.004761
2597,-0.033523,-0.009543,0.019185
2598,-0.033523,-0.009543,0.019185
2599,0.012412,0.006231,0.004761
2600,-0.010555,-0.025317,0.004761
2601,-0.033523,-0.009543,0.004761
2602,0.012412,-0.009543,-0.024086
2603,0.035379,-0.009543,0.004761
2604,0.012412,-0.009543,-0.009662
2605,0.058346,0.006231,-0.009662
2606,-0.010555,0.006231,-0.009662
2607,-0.010555,-0.041091,-0.009662
2608,-0.010555,-0.025317,-0.009662
2609,-0.010555,-0.009543,-0.009662
2610,0.035379,-0.025317,-0.009662
2611,-0.010555,-0.009543,-0.009662
2612,0.035379,-0.009543,-0.009662
2613,-0.033523,-0.025317,0.004761
2614,-0.010555,-0.009543,0.004761
2615,-0.010555,-0.009543,-0.009662
2616,0.035379,0.006231,-0.009662
2617,0.012412,0.022005,-0.009662
2618,-0.010555,-0.025317,0.004761
2619,0.012412,0.006231,-0.009662
2620,-0.05649,-0.025317,-0.009662
2621,-0.010555,0.006231,0.004761
2622,0.012412,0.006231,0.004761
2623,-0.033523,-0.025317,-0.009662
2624,0.012412,-0.009543,-0.009662
2625,0.012412,0.006231,0.004761
2626,-0.05649,-0.009543,0.019185
2627,-0.033523,-0.025317,-0.009662
2628,-0.05649,-0.025317,0.019185
2629,-0.033523,-0.009543,-0.024086
2630,-0.010555,-0.025317,-0.03851
2631,-0.079457,-0.009543,-0.024086
2632,-0.010555,-0.025317,-0.024086
2633,-0.010555,0.006231,-0.009662
2634,0.012412,-0.009543,-0.009662
2635,-0.010555,-0.009543,-0.009662
2636,0.012412,-0.009543,-0.009662
2637,0.012412,-0.025317,0.004761
2638,0.058346,-0.009543,-0.009662
2639,-0.05649,-0.025317,0.004761
2640,0.012412,-0.009543,0.019185
2641,0.012412,0.006231,-0.009662
2642,0.012412,-0.009543,0.004761
2643,-0.010555,-0.009543,0.004761
2644,0.012412,0.006231,-0.009662
2645,0.058346,-0.025317,-0.009662
2646,0.012412,-0.009543,-0.009662
2647,0.012412,-0.009543,0.004761
2648,0.012412,0.006231,-0.009662
2649,0.012412,-0.009543,-0.024086
2650,-0.05649,-0.009543,-0.024086
2651,-0.079457,-0.025317,-0.024086
2652,0.058346,-0.009543,-0.009662
2653,0.035379,-0.025317,0.004761
2654,-0.010555,-0.025317,-0.024086
2655,-0.010555,0.006231,-0.024086
2656,-0.033523,-0.025317,0.004761
2657,-0.05649,0.006231,0.019185
2658,0.012412,0.006231,0.004761
2659,0.012412,-0.025317,-0.009662
2660,-0.033523,-0.041091,-0.009662
2661,-0.010555,-0.009543,0.004761
2662,-0.033523,-0.009543,-0.009662
2663,-0.05649,-0.009543,-0.009662
2664,-0.010555,-0.009543,-0.024086
2665,-0.05649,-0.025317,-0.024086
2666,-0.033523,0.006231,0.019185
2667,-0.033523,0.006231,0.004761
2668,0.035379,0.006231,0.004761
2669,0.058346,-0.025317,0.004761
2670,0.012412,-0.009543,0.004761
2671,-0.033523,-0.025317,-0.009662
2672,-0.010555,-0.025317,0.004761
2673,0.035379,-0.009543,0.019185
2674,0.058346,-0.009543,0.004761
2675,0.035379,-0.009543,0.004761
2676,0.035379,0.006231,-0.009662
2677,0.035379,-0.025317,-0.009662
2678,0.012412,-0.025317,-0.009662
2679,0.035379,-0.025317,-0.024086
2680,0.035379,-0.009543,-0.009662
2681,-0.010555,-0.009543,-0.009662
2682,0.058346,-0.025317,0.004761
2683,0.035379,-0.025317,-0.009662
2684,0.012412,-0.009543,-0.03851
2685,0.012412,-0.009543,-0.03851
2686,-0.05649,-0.009543,-0.009662
2687,-0.010555,-0.009543,0.004761
2688,0.058346,0.006231,0.004761
2689,-0.010555,-0.009543,0.019185
2690,-0.05649,-0.009543,0.019185
2691,-0.033523,-0.025317,0.004761
2692,-0.010555,-0.009543,-0.009662
2693,-0.010555,-0.009543,0.004761
2694,-0.033523,-0.009543,0.004761
2695,-0.010555,-0.025317,-0.009662
2696,0.012412,-0.009543,-0.009662
2697,-0.033523,-0.025317,0.004761
2698,0.012412,0.006231,-0.009662
2699,0.035379,-0.009543,-0.009662
2700,0.012412,-0.025317,0.004761
2701,-0.033523,-0.041091,-0.009662
2702,-0.033523,-0.025317,0.004761
2703,0.012412,-0.009543,-0.024086
2704,0.012412,-0.009543,0.004761
2705,-0.033523,-0.009543,0.004761
2706,0.012412,-0.009543,-0.009662
2707,0.035379,-0.025317,-0.009662
2708,0.035379,-0.009543,-0.009662
2709,-0.010555,-0.009543,-0.009662
2710,0.012412,-0.025317,-0.009662
2711,-0.033523,0.006231,-0.009662
2712,0.035379,-0.009543,0.004761
2713,-0.05649,-0.009543,-0.009662
2714,0.012412,-0.009543,0.004761
2715,-0.010555,-0.009543,-0.009662
2716,-0.033523,-0.025317,-0.009662
2717,-0.033523,-0.009543,-0.024086
2718,-0.010555,0.006231,-0.009662
2719,0.035379,-0.009543,0.004761
2720,-0.033523,-0.009543,-0.009662
2721,-0.010555,-0.009543,-0.009662
2722,-0.033523,-0.009543,-0.009662
2723,0.012412,-0.009543,0.004761
2724,-0.010555,-0.025317,-0.009662
2725,0.127248,-0.009543,-0.009662
2726,-0.010555,0.006231,0.004761
2727,0.035379,-0.009543,-0.024086
2728,-0.033523,0.006231,-0.024086
2729,-0.033523,-0.025317,-0.009662
2730,-0.033523,-0.009543,-0.009662
2731,-0.010555,-0.025317,0.004761
2732,0.012412,-0.009543,0.019185
2733,0.012412,0.006231,0.019185
2734,0.035379,0.006231,0.004761
2735,0.035379,-0.009543,-0.009662
2736,-0.033523,0.006231,-0.009662
2737,-0.010555,-0.009543,-0.009662
2738,0.035379,-0.041091,0.004761
2739,0.035379,-0.025317,0.004761
2740,0.012412,0.006231,0.004761
2741,-0.010555,-0.009543,0.004761
2742,0.035379,-0.009543,-0.009662
2743,0.058346,-0.009543,-0.009662
2744,-0.010555,0.006231,0.004761
2745,-0.010555,0.006231,-0.024086
2746,0.012412,0.006231,0.004761
2747,0.012412,-0.009543,-0.009662
2748,0.012412,-0.009543,-0.024086
2749,-0.033523,-0.009543,0.004761
2750,-0.010555,-0.009543,-0.009662
2751,-0.010555,-0.009543,-0.009662
2752,-0.010555,-0.009543,0.004761
2753,-0.010555,-0.009543,-0.009662
2754,0.012412,-0.009543,-0.009662
2755,-0.010555,0.006231,-0.009662
2756,-0.033523,-0.025317,0.004761
2757,-0.010555,-0.025317,-0.009662
2758,0.012412,-0.025317,0.019185
2759,-0.010555,-0.009543,-0.009662
2760,-0.033523,-0.009543,-0.009662
2761,0.012412,-0.009543,0.004761
2762,-0.010555,-0.009543,-0.009662
2763,-0.010555,0.006231,0.019185
2764,0.012412,0.006231,0.004761
2765,0.012412,-0.009543,0.019185
2766,0.058346,-0.009543,0.004761
2767,0.058346,-0.025317,-0.009662
2768,0.058346,0.006231,-0.024086
2769,0.012412,-0.009543,-0.009662
2770,0.035379,-0.009543,0.004761
2771,0.012412,-0.009543,0.004761
2772,0.012412,-0.009543,0.004761
2773,0.035379,0.006231,-0.009662
2774,-0.010555,-0.009543,-0.009662
2775,-0.010555,-0.009543,-0.024086
2776,0.012412,-0.025317,-0.024086
2777,-0.010555,-0.041091,-0.009662
2778,0.012412,0.006231,-0.024086
2779,0.012412,0.006231,-0.009662
2780,-0.010555,0.006231,0.004761
2781,0.012412,0.006231,0.019185
2782,-0.010555,-0.025317,-0.009662
2783,0.012412,-0.009543,-0.009662
2784,-0.010555,-0.025317,-0.024086
2785,0.012412,-0.025317,-0.024086
2786,-0.010555,-0.009543,-0.009662
2787,-0.010555,0.006231,-0.024086
2788,-0.033523,-0.009543,-0.009662
2789,-0.010555,-0.009543,-0.024086
2790,0.012412,-0.009543,0.019185
2791,-0.05649,-0.009543,0.004761
2792,-0.010555,0.006231,-0.009662
2793,-0.010555,-0.009543,-0.009662
2794,-0.010555,-0.009543,0.004761
2795,-0.010555,-0.009543,0.004761
2796,-0.033523,-0.009543,-0.009662
2797,0.058346,0.006231,-0.009662
2798,-0.033523,-0.009543,0.004761
2799,0.012412,-0.009543,0.004761
2800,0.035379,0.006231,-0.009662
2801,0.012412,-0.009543,-0.009662
2802,0.012412,-0.009543,-0.009662
2803,0.012412,-0.009543,-0.009662
2804,0.081313,-0.041091,-0.009662
2805,0.012412,-0.009543,-0.009662
2806,0.012412,-0.009543,0.004761
2807,0.035379,-0.009543,0.033609
2808,0.012412,0.022005,0.033609
2809,0.035379,0.006231,0.033609
2810,0.035379,0.006231,0.004761
2811,-0.033523,0.006231,0.004761
2812,0.012412,-0.009543,0.004761
2813,0.012412,0.006231,0.019185
2814,-0.010555,-0.009543,0.019185
2815,-0.010555,-0.025317,-0.024086
2816,0.012412,-0.025317,-0.024086
2817,-0.05649,-0.009543,-0.009662
2818,-0.05649,-0.009543,-0.009662
2819,0.012412,-0.025317,-0.009662
2820,-0.033523,-0.025317,-0.009662
2821,-0.033523,-0.025317,-0.024086
2822,-0.033523,-0.025317,0.004761
2823,-0.079457,-0.009543,-0.009662
2824,0.012412,-0.009543,-0.009662
2825,-0.033523,-0.009543,-0.024086
2826,0.012412,-0.009543,0.004761
2827,-0.010555,-0.009543,-0.009662
2828,0.012412,-0.025317,0.004761
2829,-0.05649,-0.009543,0.004761
2830,0.012412,-0.009543,-0.024086
2831,0.012412,-0.009543,0.004761
2832,0.035379,0.006231,-0.009662
2833,-0.010555,-0.025317,0.004761
2834,0.012412,-0.009543,0.019185
2835,0.035379,0.006231,0.004761
2836,0.012412,-0.009543,0.004761
2837,0.012412,-0.009543,0.019185
2838,0.012412,-0.009543,0.004761
2839,0.058346,-0.009543,0.019185
2840,0.012412,-0.025317,-0.009662
2841,0.035379,-0.025317,-0.024086
2842,0.012412,0.006231,-0.024086
2843,0.012412,-0.009543,0.004761
2844,-0.010555,0.006231,0.004761
2845,0.035379,0.006231,-0.009662
2846,-0.05649,-0.009543,-0.009662
2847,0.012412,-0.009543,-0.009662
2848,-0.033523,-0.025317,-0.024086
2849,-0.05649,-0.025317,-0.009662
2850,-0.05649,-0.009543,0.004761
2851,0.012412,-0.009543,-0.024086
2852,-0.033523,-0.025317,0.019185
2853,-0.010555,-0.009543,-0.009662
2854,0.035379,-0.009543,-0.009662
2855,0.058346,-0.009543,-0.009662
2856,-0.010555,-0.009543,0.004761
2857,-0.010555,-0.025317,-0.009662
2858,-0.010555,-0.009543,-0.009662
2859,0.012412,-0.009543,0.004761
2860,0.012412,0.006231,0.004761
2861,0.012412,-0.025317,0.004761
2862,0.035379,-0.009543,0.004761
2863,0.012412,0.006231,-0.009662
2864,0.035379,-0.025317,-0.009662
2865,0.012412,0.006231,0.004761
2866,0.012412,0.006231,-0.009662
2867,0.012412,-0.009543,-0.009662
2868,0.012412,-0.009543,-0.024086
2869,0.012412,-0.009543,-0.009662
2870,0.012412,-0.025317,-0.009662
2871,0.012412,-0.025317,-0.024086
2872,-0.010555,-0.009543,-0.009662
2873,-0.010555,-0.009543,0.004761
2874,0.035379,0.006231,-0.009662
2875,-0.033523,0.006231,0.004761
2876,-0.033523,0.006231,-0.024086
2877,-0.033523,-0.025317,-0.009662
2878,-0.033523,-0.025317,-0.009662
2879,0.012412,-0.025317,0.004761
2880,-0.010555,-0.009543,-0.009662
2881,0.012412,-0.025317,-0.009662
2882,0.035379,-0.009543,-0.009662
2883,-0.033523,-0.009543,-0.009662
2884,-0.010555,0.006231,-0.024086
2885,-0.010555,-0.009543,-0.009662
2886,0.012412,0.006231,0.004761
2887,-0.033523,-0.009543,0.004761
2888,0.012412,-0.009543,0.019185
2889,0.012412,-0.009543,0.019185
2890,0.035379,0.006231,0.019185
2891,0.035379,-0.009543,0.004761
2892,0.081313,0.006231,0.004761
2893,0.058346,0.006231,-0.024086
2894,0.058346,-0.025317,-0.009662
2895,-0.010555,-0.009543,-0.009662
2896,0.012412,-0.025317,-0.009662
2897,-0.010555,0.006231,-0.009662
2898,-0.010555,-0.025317,-0.009662
2899,-0.010555,-0.025317,-0.009662
2900,0.035379,-0.009543,-0.009662
2901,0.035379,-0.009543,-0.024086
2902,0.012412,-0.009543,-0.009662
2903,-0.033523,-0.009543,-0.009662
2904,-0.05649,-0.009543,0.004761
2905,0.012412,-0.009543,-0.009662
2906,-0.010555,-0.009543,-0.009662
2907,-0.010555,-0.025317,-0.024086
2908,-0.033523,-0.025317,0.019185
2909,0.012412,-0.009543,-0.009662
2910,-0.033523,-0.025317,-0.009662
2911,-0.05649,0.006231,-0.009662
2912,-0.033523,-0.025317,0.004761
2913,-0.010555,-0.009543,0.019185
2914,-0.010555,0.006231,0.019185
2915,-0.010555,-0.009543,0.019185
2916,0.058346,-0.009543,0.004761
2917,0.012412,0.006231,-0.009662
2918,-0.033523,-0.009543,0.048033
2919,0.035379,-0.009543,0.004761
2920,0.012412,-0.009543,-0.03851
2921,0.058346,-0.009543,-0.03851
2922,0.012412,-0.009543,-0.024086
2923,0.012412,-0.025317,-0.009662
2924,-0.010555,-0.025317,0.004761
2925,0.012412,0.006231,0.004761
2926,0.035379,0.006231,0.019185
2927,0.012412,-0.009543,0.004761
2928,0.058346,-0.009543,-0.024086
2929,-0.010555,-0.009543,0.004761
2930,-0.010555,-0.041091,-0.009662
2931,0.012412,-0.009543,-0.009662
2932,0.058346,-0.009543,0.004761
2933,0.035379,0.006231,0.004761
2934,0.012412,0.006231,0.004761
2935,-0.010555,-0.009543,-0.009662
2936,-0.033523,0.006231,0.004761
2937,-0.033523,-0.009543,-0.024086
2938,-0.010555,-0.025317,0.004761
2939,-0.05649,-0.041091,0.004761
2940,0.012412,-0.025317,-0.024086
2941,-0.010555,-0.025317,-0.009662
2942,-0.010555,-0.009543,0.033609
2943,-0.033523,-0.009543,0.004761
2944,-0.010555,-0.025317,-0.009662
2945,-0.05649,-0.009543,-0.009662
2946,-0.05649,-0.009543,-0.009662
2947,-0.010555,0.006231,-0.009662
2948,0.035379,0.006231,0.004761
2949,-0.010555,0.006231,0.004761
2950,-0.033523,-0.009543,-0.009662
2951,0.012412,0.006231,0.004761
2952,0.035379,-0.009543,-0.009662
2953,-0.010555,-0.025317,-0.024086
2954,0.035379,-0.009543,-0.009662
2955,0.058346,-0.025317,-0.024086
2956,-0.010555,-0.025317,-0.009662
2957,0.012412,-0.009543,0.004761
2958,0.035379,-0.009543,0.004761
2959,0.035379,0.006231,0.033609
2960,0.058346,-0.009543,-0.009662
2961,0.035379,-0.025317,0.004761
2962,0.035379,0.006231,-0.024086
2963,0.012412,-0.041091,-0.024086
2964,-0.010555,-0.009543,-0.024086
2965,-0.05649,-0.025317,-0.024086
2966,-0.033523,-0.025317,-0.024086
2967,0.035379,-0.009543,-0.009662
2968,0.012412,0.006231,-0.009662
2969,-0.010555,-0.009543,-0.009662
2970,0.012412,-0.025317,-0.024086
2971,0.012412,-0.009543,-0.024086
2972,-0.010555,-0.025317,-0.024086
2973,0.058346,-0.009543,0.004761
2974,-0.033523,0.006231,0.033609
2975,-0.033523,-0.009543,0.019185
2976,-0.010555,-0.009543,0.004761
2977,-0.010555,-0.025317,0.004761
2978,-0.033523,-0.009543,0.004761
2979,-0.010555,-0.009543,0.004761
2980,0.012412,0.006231,-0.009662
2981,-0.033523,-0.009543,-0.024086
2982,0.012412,-0.009543,0.004761
2983,-0.010555,-0.009543,-0.009662
2984,-0.010555,-0.009543,-0.03851
2985,0.012412,-0.025317,-0.024086
2986,0.012412,-0.009543,-0.009662
2987,0.012412,0.006231,0.004761
2988,0.035379,-0.009543,-0.009662
2989,-0.010555,0.006231,0.033609
2990,0.035379,0.022005,0.019185
2991,0.012412,0.006231,0.004761
2992,0.012412,-0.025317,0.004761
2993,-0.010555,-0.009543,0.004761
2994,-0.010555,0.006231,-0.024086
2995,0.012412,-0.025317,-0.024086
2996,0.058346,-0.009543,-0.009662
2997,0.012412,-0.025317,-0.024086
2998,0.012412,-0.009543,0.004761
2999,-0.010555,-0.009543,-0.009662
3000,0.012412,-0.009543,0.004761
3001,0.012412,-0.009543,0.019185
3002,0.035379,-0.025317,0.019185
3003,-0.010555,0.006231,0.004761
3004,0.012412,-0.025317,0.004761
3005,-0.010555,-0.009543,-0.009662
3006,0.012412,-0.009543,0.004761
3007,-0.010555,0.006231,0.004761
3008,-0.033523,-0.009543,0.004761
3009,-0.033523,-0.025317,0.004761
3010,-0.033523,-0.009543,-0.009662
3011,0.012412,-0.009543,0.004761
3012,-0.010555,-0.009543,0.004761
3013,-0.05649,-0.009543,0.004761
3014,0.012412,0.006231,-0.009662
3015,0.035379,0.006231,-0.009662
3016,0.035379,0.006231,0.019185
3017,0.012412,-0.009543,0.004761
3018,0.012412,-0.009543,-0.009662
3019,0.012412,-0.009543,-0.009662
3020,-0.033523,-0.025317,0.004761
3021,-0.010555,-0.025317,0.004761
3022,0.012412,-0.009543,-0.009662
3023,-0.010555,-0.025317,-0.009662
3024,-0.033523,-0.009543,-0.009662
3025,0.012412,-0.009543,-0.009662
3026,0.127248,-0.009543,-0.009662
3027,0.012412,-0.009543,0.004761
3028,0.012412,-0.025317,-0.009662
3029,-0.010555,-0.025317,-0.009662
3030,0.012412,-0.009543,-0.009662
3031,0.012412,-0.025317,0.004761
3032,0.035379,-0.009543,-0.009662
3033,-0.010555,-0.025317,0.004761
3034,-0.010555,-0.009543,-0.024086
3035,0.012412,-0.025317,-0.009662
3036,-0.033523,-0.009543,-0.009662
3037,-0.010555,-0.009543,0.004761
3038,0.012412,-0.009543,0.004761
3039,0.012412,-0.009543,0.004761
3040,-0.010555,0.006231,0.004761
3041,-0.010555,0.006231,-0.009662
3042,0.012412,0.022005,-0.009662
3043,-0.010555,0.006231,0.004761
3044,0.012412,-0.041091,-0.009662
3045,-0.033523,-0.009543,0.004761
3046,-0.010555,-0.009543,0.004761
3047,-0.033523,-0.009543,-0.009662
3048,-0.033523,-0.009543,-0.009662
3049,0.012412,-0.009543,-0.009662
3050,0.012412,0.006231,-0.009662
3051,0.012412,0.006231,-0.009662
3052,0.035379,-0.009543,0.004761
3053,-0.010555,-0.009543,-0.009662
3054,0.012412,-0.009543,0.004761
3055,-0.033523,0.006231,0.004761
3056,-0.05649,-0.025317,0.004761
3057,0.012412,-0.025317,-0.009662
3058,0.058346,-0.025317,0.004761
3059,0.012412,-0.009543,-0.009662
3060,-0.010555,0.006231,0.004761
3061,-0.033523,0.022005,-0.009662
3062,0.012412,-0.009543,-0.009662
3063,0.035379,-0.009543,-0.009662
3064,-0.010555,-0.025317,0.004761
3065,0.035379,-0.025317,-0.024086
3066,0.127248,-0.025317,-0.009662
3067,0.012412,-0.009543,-0.009662
3068,0.012412,0.006231,-0.009662
3069,0.058346,-0.009543,-0.009662
3070,0.012412,-0.025317,-0.009662
3071,0.035379,-0.009543,0.004761
3072,-0.033523,-0.009543,-0.009662
3073,0.012412,-0.056865,-0.009662
3074,0.012412,-0.009543,-0.009662
3075,-0.010555,0.006231,0.004761
3076,-0.033523,-0.009543,-0.024086
3077,0.012412,-0.025317,-0.024086
3078,-0.010555,-0.025317,-0.009662
3079,-0.033523,0.006231,0.004761
3080,-0.05649,-0.009543,0.033609
3081,-0.033523,-0.025317,-0.009662
3082,0.012412,0.022005,0.004761
3083,-0.010555,-0.009543,0.004761
3084,-0.010555,-0.009543,0.019185
3085,0.081313,-0.025317,-0.009662
3086,-0.05649,-0.009543,-0.009662
3087,0.012412,-0.009543,0.004761
3088,0.035379,-0.025317,-0.024086
3089,0.035379,-0.025317,-0.009662
3090,0.035379,-0.009543,-0.009662
3091,0.012412,-0.025317,-0.009662
3092,-0.010555,-0.041091,-0.009662
3093,0.012412,0.006231,-0.009662
3094,0.012412,-0.009543,0.004761
3095,0.012412,0.006231,-0.009662
3096,-0.033523,-0.025317,0.004761
3097,-0.033523,0.006231,0.004761
3098,-0.010555,0.006231,0.004761
3099,0.035379,-0.009543,-0.009662
3100,0.012412,0.006231,-0.009662
3101,0.012412,-0.009543,-0.009662
3102,-0.010555,-0.009543,-0.009662
3103,-0.033523,-0.009543,-0.009662
3104,0.012412,0.006231,0.004761
3105,0.012412,-0.025317,-0.009662
3106,-0.010555,-0.025317,0.019185
3107,-0.010555,-0.009543,-0.009662
3108,-0.010555,-0.041091,0.004761
3109,0.012412,-0.025317,0.004761
3110,-0.033523,-0.025317,-0.009662
3111,-0.010555,0.006231,-0.009662
3112,-0.079457,-0.009543,-0.009662
3113,-0.033523,0.006231,-0.009662
3114,-0.033523,0.006231,-0.024086
3115,-0.010555,-0.009543,-0.009662
3116,0.012412,0.006231,-0.009662
3117,-0.05649,-0.009543,-0.009662
3118,-0.033523,-0.025317,0.004761
3119,0.012412,-0.041091,0.004761
3120,-0.010555,0.006231,0.004761
3121,0.035379,-0.025317,0.004761
3122,-0.010555,-0.009543,-0.009662
3123,0.012412,-0.009543,0.004761
3124,0.012412,-0.009543,-0.024086
3125,0.035379,-0.009543,0.004761
3126,0.012412,-0.009543,0.004761
3127,0.035379,-0.009543,0.019185
3128,0.035379,0.006231,0.004761
3129,0.012412,0.006231,0.004761
3130,0.058346,0.006231,0.004761
3131,0.035379,-0.025317,-0.03851
3132,-0.010555,-0.009543,-0.024086
3133,0.012412,-0.025317,-0.009662
3134,0.012412,0.006231,-0.009662
3135,-0.010555,-0.009543,-0.009662
3136,0.081313,0.006231,0.004761
3137,0.012412,0.006231,0.004761
3138,-0.033523,-0.009543,-0.009662
3139,0.012412,-0.009543,-0.009662
3140,-0.010555,-0.025317,-0.009662
3141,0.012412,-0.009543,0.004761
3142,0.012412,0.006231,0.004761
3143,0.012412,-0.009543,-0.009662
3144,0.035379,-0.025317,0.004761
3145,0.012412,-0.009543,-0.009662
3146,-0.033523,-0.009543,-0.009662
3147,-0.010555,-0.009543,0.004761
3148,-0.010555,-0.009543,0.004761
3149,-0.033523,-0.009543,0.019185
3150,-0.05649,0.006231,-0.009662
3151,0.035379,0.006231,0.004761
3152,0.058346,-0.009543,0.004761
3153,-0.010555,0.006231,-0.009662
3154,0.012412,-0.025317,-0.024086
3155,0.012412,-0.025317,-0.024086
3156,0.012412,0.006231,-0.024086
3157,-0.010555,-0.009543,-0.024086
3158,-0.010555,-0.009543,-0.009662
3159,0.012412,-0.009543,0.004761
3160,0.012412,-0.009543,0.004761
3161,0.012412,0.006231,0.019185
3162,-0.010555,0.006231,0.048033
3163,0.012412,-0.009543,0.019185
3164,0.058346,0.006231,0.019185
3165,0.058346,0.006231,0.004761
3166,0.012412,-0.009543,0.004761
3167,0.035379,-0.009543,-0.009662
3168,0.058346,-0.025317,0.004761
3169,0.012412,-0.041091,0.004761
3170,0.012412,-0.009543,-0.009662
3171,0.012412,0.006231,-0.009662
3172,-0.010555,0.006231,-0.009662
3173,-0.033523,-0.009543,0.004761
3174,-0.033523,-0.025317,-0.009662
3175,0.012412,0.006231,-0.009662
3176,-0.033523,-0.009543,-0.009662
3177,-0.079457,-0.009543,-0.009662
3178,-0.033523,-0.025317,-0.009662
3179,-0.033523,0.006231,-0.009662
3180,-0.033523,0.006231,0.019185
3181,-0.010555,-0.009543,0.004761
3182,-0.010555,-0.009543,-0.009662
3183,0.035379,-0.009543,-0.009662
3184,-0.010555,-0.009543,0.004761
3185,-0.010555,-0.009543,0.004761
3186,0.058346,-0.009543,-0.024086
3187,-0.010555,-0.009543,-0.009662
3188,-0.033523,-0.009543,-0.009662
3189,-0.010555,0.006231,0.004761
3190,0.035379,0.006231,0.004761
3191,0.035379,-0.009543,-0.009662
3192,0.058346,-0.025317,-0.009662
3193,0.012412,-0.009543,-0.009662
3194,0.012412,-0.009543,-0.009662
3195,0.058346,-0.025317,-0.009662
3196,0.012412,0.006231,-0.024086
3197,0.035379,0.006231,0.004761
3198,0.012412,0.022005,0.004761
3199,0.012412,-0.009543,0.019185
3200,0.012412,-0.041091,0.004761
3201,0.035379,-0.009543,0.004761
3202,0.012412,-0.009543,0.004761
3203,0.012412,0.022005,-0.009662
3204,-0.033523,-0.009543,-0.009662
3205,-0.033523,0.022005,-0.009662
3206,0.012412,-0.025317,0.004761
3207,-0.010555,-0.009543,-0.009662
3208,-0.033523,-0.025317,0.004761
3209,-0.033523,-0.009543,0.004761
3210,-0.033523,0.006231,0.019185
3211,-0.010555,0.006231,0.004761
3212,-0.010555,-0.009543,-0.009662
3213,0.012412,-0.009543,-0.024086
3214,-0.010555,-0.009543,-0.024086
3215,-0.010555,0.006231,-0.009662
3216,-0.033523,-0.025317,0.004761
3217,0.012412,0.006231,-0.009662
3218,-0.010555,0.006231,-0.009662
3219,-0.05649,-0.025317,-0.024086
3220,-0.010555,0.006231,-0.009662
3221,-0.033523,-0.025317,0.019185
3222,-0.010555,-0.025317,-0.009662
3223,0.012412,-0.009543,0.004761
3224,-0.033523,-0.009543,0.004761
3225,-0.010555,-0.025317,0.004761
3226,0.035379,0.006231,-0.009662
3227,0.058346,0.006231,0.004761
3228,0.058346,-0.009543,0.004761
3229,0.012412,0.006231,-0.009662
3230,0.035379,0.006231,-0.009662
3231,0.012412,-0.009543,-0.009662
3232,0.035379,0.006231,-0.009662
3233,0.081313,-0.025317,-0.009662
3234,0.035379,-0.025317,-0.024086
3235,-0.010555,-0.009543,-0.009662
3236,-0.010555,-0.009543,0.004761
3237,0.035379,0.006231,0.004761
3238,0.035379,0.006231,-0.009662
3239,0.035379,0.006231,-0.009662
3240,-0.033523,0.006231,0.004761
3241,-0.033523,0.022005,0.004761
3242,-0.05649,-0.009543,-0.009662
3243,-0.010555,-0.009543,0.004761
3244,0.012412,-0.009543,0.004761
3245,0.035379,0.006231,0.004761
3246,-0.033523,0.022005,0.019185
3247,0.012412,0.006231,0.019185
3248,-0.010555,0.006231,0.033609
3249,0.035379,-0.009543,0.004761
3250,-0.033523,-0.041091,-0.024086
3251,-0.033523,-0.041091,-0.03851
3252,-0.033523,-0.025317,-0.024086
3253,0.012412,0.006231,-0.024086
3254,-0.010555,-0.025317,-0.03851
3255,-0.010555,-0.025317,-0.03851
3256,-0.010555,-0.009543,0.004761
3257,0.035379,-0.009543,0.019185
3258,0.012412,-0.009543,0.048033
3259,0.035379,-0.009543,0.019185
3260,0.035379,-0.009543,0.019185
3261,0.012412,-0.009543,-0.009662
3262,-0.010555,-0.025317,-0.009662
3263,0.012412,0.006231,-0.009662
3264,0.012412,-0.025317,0.004761
3265,-0.010555,0.006231,-0.009662
3266,-0.010555,-0.009543,-0.009662
3267,-0.010555,-0.025317,-0.009662
3268,0.058346,-0.025317,-0.009662
3269,0.035379,-0.009543,0.004761
3270,0.012412,-0.009543,0.004761
3271,-0.033523,0.006231,0.004761
3272,0.058346,-0.009543,0.004761
3273,-0.010555,-0.009543,0.004761
3274,0.012412,-0.009543,0.004761
3275,-0.033523,-0.009543,0.004761
3276,-0.033523,-0.025317,0.033609
3277,0.012412,0.022005,0.004761
3278,-0.010555,-0.009543,0.004761
3279,-0.05649,-0.025317,0.004761
3280,-0.033523,0.006231,0.004761
3281,-0.010555,0.006231,0.004761
3282,-0.033523,-0.025317,0.019185
3283,-0.010555,-0.009543,-0.009662
3284,0.035379,-0.041091,-0.009662
3285,0.035379,-0.009543,0.004761
3286,0.012412,0.006231,-0.009662
3287,-0.033523,0.006231,-0.009662
3288,-0.05649,-0.041091,-0.009662
3289,0.035379,-0.025317,-0.024086
3290,-0.033523,-0.025317,-0.009662
3291,0.012412,-0.009543,0.004761
3292,0.035379,-0.025317,-0.009662
3293,0.081313,-0.025317,-0.009662
3294,0.012412,-0.009543,-0.009662
3295,-0.010555,0.006231,-0.009662
3296,0.081313,-0.009543,0.004761
3297,-0.033523,0.022005,0.004761
3298,-0.05649,-0.025317,-0.009662
3299,0.035379,-0.009543,-0.024086
3300,0.012412,-0.009543,-0.024086
3301,-0.033523,-0.009543,0.004761
3302,-0.010555,0.006231,0.004761
3303,0.058346,-0.009543,0.004761
3304,0.058346,-0.009543,-0.009662
3305,-0.05649,-0.025317,0.004761
3306,0.012412,-0.009543,-0.009662
3307,-0.033523,-0.009543,0.019185
3308,0.012412,-0.009543,0.019185
3309,-0.033523,0.006231,0.019185
3310,-0.05649,0.022005,0.004761
3311,0.012412,0.006231,-0.009662
3312,-0.010555,-0.009543,-0.009662
3313,-0.010555,-0.025317,-0.009662
3314,-0.033523,-0.041091,-0.03851
3315,0.012412,-0.025317,0.004761
3316,0.035379,0.022005,0.004761
3317,-0.033523,-0.025317,-0.009662
3318,-0.010555,0.006231,0.004761
3319,-0.010555,-0.009543,-0.009662
3320,0.058346,-0.009543,-0.009662
3321,-0.033523,0.022005,0.004761
3322,0.035379,-0.009543,-0.009662
3323,-0.010555,-0.009543,-0.009662
3324,0.058346,-0.009543,-0.009662
3325,-0.010555,-0.025317,-0.024086
3326,0.012412,-0.009543,0.004761
3327,0.058346,-0.009543,0.004761
3328,0.035379,-0.009543,-0.009662
3329,-0.010555,-0.009543,0.048033
3330,0.058346,-0.025317,-0.009662
3331,-0.010555,-0.009543,-0.009662
3332,0.012412,-0.009543,0.004761
3333,0.012412,0.006231,0.004761
3334,0.035379,0.006231,0.004761
3335,0.035379,-0.009543,0.004761
3336,-0.010555,0.006231,0.004761
3337,-0.033523,-0.009543,-0.009662
3338,-0.010555,-0.009543,-0.009662
3339,-0.010555,0.006231,0.019185
3340,-0.033523,-0.009543,0.004761
3341,-0.010555,-0.009543,0.004761
3342,-0.033523,0.006231,-0.009662
3343,-0.033523,-0.009543,0.019185
3344,0.035379,-0.009543,0.004761
3345,-0.033523,-0.009543,0.019185
3346,0.012412,-0.009543,-0.009662
3347,0.035379,-0.025317,0.019185
3348,-0.05649,-0.009543,-0.009662
3349,-0.010555,-0.009543,0.004761
3350,0.012412,-0.009543,-0.009662
3351,0.035379,0.006231,-0.009662
3352,-0.033523,-0.009543,-0.009662
3353,0.012412,-0.025317,-0.024086
3354,0.035379,-0.009543,-0.024086
3355,0.035379,-0.009543,-0.009662
3356,-0.010555,-0.009543,0.004761
3357,0.081313,-0.009543,0.004761
3358,0.035379,0.006231,-0.009662
3359,0.035379,0.006231,0.033609
3360,0.035379,-0.009543,0.004761
3361,0.012412,-0.009543,0.019185
3362,0.058346,-0.025317,0.004761
3363,0.035379,-0.009543,-0.024086
3364,-0.05649,-0.009543,-0.009662
3365,0.012412,0.006231,-0.009662
3366,0.012412,0.006231,-0.009662
3367,-0.05649,-0.009543,-0.009662
3368,0.035379,0.006231,-0.009662
3369,-0.05649,-0.025317,0.004761
3370,0.012412,-0.009543,0.004761
3371,0.012412,-0.025317,0.004761
3372,-0.010555,-0.025317,0.004761
3373,0.012412,-0.009543,0.004761
3374,-0.033523,-0.041091,0.004761
3375,-0.010555,-0.025317,0.004761
3376,0.012412,-0.025317,0.019185
3377,0.012412,-0.009543,0.033609
3378,0.035379,-0.009543,0.004761
3379,-0.010555,-0.009543,-0.024086
3380,0.012412,-0.009543,-0.024086
3381,0.012412,0.006231,0.019185
3382,0.035379,0.006231,0.019185
3383,-0.033523,-0.009543,-0.009662
3384,-0.033523,-0.025317,-0.024086
3385,0.035379,-0.009543,0.004761
3386,0.035379,-0.009543,-0.009662
3387,0.012412,-0.009543,-0.009662
3388,0.035379,-0.025317,-0.03851
3389,0.035379,-0.025317,-0.024086
3390,0.035379,-0.041091,-0.024086
3391,0.012412,-0.025317,-0.024086
3392,0.035379,-0.009543,-0.03851
3393,0.035379,-0.025317,-0.009662
3394,-0.010555,-0.009543,-0.024086
3395,0.012412,-0.009543,-0.009662
3396,0.035379,-0.025317,-0.009662
3397,0.012412,-0.025317,-0.009662
3398,-0.010555,-0.009543,-0.009662
3399,-0.033523,-0.025317,-0.009662
3400,-0.079457,0.006231,-0.009662
3401,0.012412,-0.025317,-0.009662
3402,0.012412,-0.009543,0.004761
3403,-0.010555,0.006231,0.019185
3404,-0.010555,0.022005,0.004761
3405,-0.033523,-0.009543,0.004761
3406,0.012412,0.006231,-0.009662
3407,-0.033523,-0.009543,-0.009662
3408,-0.010555,-0.009543,0.004761
3409,0.012412,-0.025317,-0.009662
3410,0.012412,-0.025317,0.019185
3411,-0.010555,-0.025317,-0.009662
3412,-0.033523,-0.025317,0.004761
3413,0.058346,0.006231,0.004761
3414,-0.033523,-0.009543,-0.009662
3415,-0.010555,-0.009543,-0.009662
3416,-0.010555,0.006231,0.019185
3417,0.058346,-0.025317,0.004761
3418,0.035379,0.006231,-0.009662
3419,-0.010555,-0.009543,-0.009662
3420,0.012412,0.006231,0.019185
3421,0.058346,-0.009543,0.004761
3422,-0.010555,-0.009543,0.004761
3423,0.058346,-0.009543,-0.009662
3424,0.035379,-0.009543,0.019185
3425,0.035379,-0.009543,-0.009662
3426,-0.010555,-0.009543,-0.009662
3427,0.012412,-0.009543,0.004761
3428,0.035379,-0.009543,-0.009662
3429,0.035379,-0.009543,0.004761
3430,0.012412,-0.009543,-0.009662
3431,-0.033523,-0.025317,-0.009662
3432,-0.010555,-0.009543,0.004761
3433,-0.033523,-0.025317,0.004761
3434,-0.010555,-0.009543,-0.009662
3435,0.058346,-0.009543,-0.024086
3436,-0.010555,-0.009543,0.004761
3437,-0.033523,-0.009543,0.004761
3438,-0.010555,-0.025317,0.004761
3439,0.012412,-0.009543,-0.009662
3440,0.058346,-0.009543,-0.009662
3441,-0.010555,-0.041091,-0.009662
3442,-0.033523,-0.009543,0.004761
3443,0.035379,0.03778,0.004761
3444,0.012412,-0.009543,-0.009662
3445,-0.033523,-0.009543,0.004761
3446,0.035379,-0.041091,-0.024086
3447,0.012412,-0.009543,-0.009662
3448,0.058346,-0.009543,0.004761
3449,-0.033523,-0.009543,0.004761
3450,-0.010555,-0.009543,0.004761
3451,0.012412,-0.025317,0.004761
3452,0.012412,0.006231,-0.009662
3453,0.035379,-0.009543,-0.009662
3454,0.058346,0.022005,0.004761
3455,0.058346,-0.025317,-0.03851
3456,-0.010555,-0.041091,-0.009662
3457,-0.033523,-0.009543,0.004761
3458,0.058346,-0.009543,0.019185
3459,0.035379,0.006231,-0.009662
3460,0.012412,-0.025317,-0.024086
3461,-0.033523,-0.025317,-0.024086
3462,-0.079457,-0.009543,-0.009662
3463,-0.010555,-0.009543,-0.009662
3464,-0.010555,-0.009543,0.004761
3465,-0.033523,-0.009543,0.004761
3466,-0.010555,-0.009543,-0.009662
3467,-0.010555,-0.025317,-0.024086
3468,-0.010555,0.006231,0.004761
3469,0.012412,0.006231,0.004761
3470,0.012412,-0.009543,0.004761
3471,0.035379,-0.009543,0.004761
3472,-0.010555,-0.009543,-0.03851
3473,-0.010555,-0.025317,-0.009662
3474,-0.010555,-0.009543,-0.009662
3475,0.058346,-0.009543,0.004761
3476,-0.033523,-0.009543,-0.009662
3477,-0.010555,-0.009543,-0.024086
3478,0.035379,-0.009543,-0.009662
3479,0.012412,0.006231,0.019185
3480,0.035379,-0.009543,0.004761
3481,-0.033523,-0.009543,-0.009662
3482,0.058346,-0.009543,-0.024086
3483,0.058346,-0.009543,-0.009662
3484,-0.033523,0.006231,-0.009662
3485,0.012412,-0.009543,0.004761
3486,0.035379,-0.009543,0.004761
3487,0.058346,-0.009543,0.019185
3488,0.012412,-0.009543,0.004761
3489,0.035379,-0.009543,0.004761
3490,0.012412,-0.009543,-0.009662
3491,0.058346,-0.009543,-0.009662
3492,-0.033523,0.006231,0.004761
3493,-0.033523,-0.025317,0.004761
3494,0.035379,-0.025317,0.004761
3495,-0.010555,0.022005,-0.009662
3496,-0.010555,-0.009543,0.004761
3497,-0.033523,0.006231,0.004761
3498,-0.010555,0.006231,-0.009662
3499,0.012412,0.006231,0.004761
3500,-0.010555,-0.009543,0.004761
3501,-0.010555,-0.009543,-0.009662
3502,-0.033523,-0.009543,-0.009662
3503,-0.05649,-0.009543,-0.03851
3504,-0.05649,0.006231,-0.009662
3505,0.035379,-0.009543,0.019185
3506,-0.010555,-0.009543,0.004761
3507,-0.033523,-0.025317,0.048033
3508,-0.05649,-0.025317,0.004761
3509,-0.010555,-0.009543,0.019185
3510,0.058346,-0.041091,0.019185
3511,0.035379,0.006231,0.004761
3512,-0.033523,0.022005,0.004761
3513,-0.010555,0.006231,-0.024086
3514,0.058346,0.006231,-0.009662
3515,0.012412,-0.041091,-0.024086
3516,-0.010555,-0.041091,0.004761
3517,0.012412,0.006231,0.004761
3518,0.058346,0.006231,0.004761
3519,0.012412,-0.009543,0.004761
3520,0.012412,-0.009543,-0.009662
3521,0.035379,-0.025317,-0.009662
3522,0.058346,-0.025317,0.004761
3523,-0.010555,0.006231,-0.03851
3524,-0.010555,-0.025317,-0.024086
3525,0.012412,-0.009543,-0.009662
3526,0.035379,-0.009543,-0.009662
3527,-0.033523,-0.009543,-0.009662
3528,0.012412,0.006231,0.004761
3529,-0.033523,-0.009543,-0.024086
3530,0.012412,-0.009543,0.004761
3531,-0.010555,-0.009543,-0.024086
3532,0.012412,0.006231,0.004761
3533,-0.033523,-0.009543,-0.024086
3534,-0.010555,-0.009543,-0.009662
3535,0.012412,-0.025317,0.004761
3536,-0.010555,-0.009543,-0.009662
3537,-0.010555,-0.009543,-0.009662
3538,-0.010555,-0.009543,0.004761
3539,0.012412,0.006231,-0.009662
3540,-0.010555,-0.009543,0.004761
3541,0.035379,-0.009543,0.004761
3542,-0.010555,-0.041091,0.004761
3543,-0.05649,-0.009543,0.019185
3544,-0.010555,-0.009543,0.004761
3545,0.035379,-0.009543,-0.009662
3546,0.035379,-0.009543,-0.009662
3547,-0.033523,0.006231,-0.009662
3548,-0.033523,0.006231,0.004761
3549,-0.010555,0.022005,-0.009662
3550,0.058346,-0.009543,-0.009662
3551,0.035379,-0.009543,0.004761
3552,0.035379,-0.009543,-0.009662
3553,0.035379,-0.025317,-0.009662
3554,-0.010555,0.006231,-0.03851
3555,0.012412,-0.025317,-0.009662
3556,0.035379,-0.009543,-0.009662
3557,0.035379,-0.009543,0.019185
3558,0.012412,-0.009543,0.019185
3559,-0.010555,-0.009543,0.033609
3560,0.035379,-0.009543,-0.024086
3561,0.012412,0.006231,0.004761
3562,0.012412,-0.009543,0.019185
3563,-0.033523,-0.009543,0.019185
3564,-0.079457,-0.009543,-0.009662
3565,0.012412,-0.025317,0.004761
3566,0.012412,-0.009543,0.004761
3567,-0.010555,-0.009543,-0.009662
3568,-0.033523,-0.025317,-0.009662
3569,0.012412,0.006231,-0.009662
3570,-0.033523,-0.009543,-0.009662
3571,0.035379,-0.025317,0.004761
3572,-0.033523,-0.025317,-0.024086
3573,0.012412,-0.009543,-0.024086
3574,-0.033523,-0.025317,0.019185
3575,-0.010555,0.006231,0.019185
3576,-0.033523,0.006231,0.019185
3577,0.035379,-0.025317,0.019185
3578,-0.010555,0.006231,-0.009662
3579,-0.033523,-0.025317,-0.024086
3580,-0.033523,-0.009543,-0.009662
3581,0.012412,-0.009543,0.004761
3582,-0.033523,-0.009543,-0.009662
3583,-0.033523,-0.009543,-0.009662
3584,0.035379,-0.009543,-0.009662
3585,0.012412,-0.009543,0.004761
3586,0.012412,-0.009543,-0.024086
3587,0.012412,-0.009543,-0.024086
3588,0.058346,-0.009543,-0.009662
3589,-0.010555,0.006231,0.004761
3590,0.012412,-0.041091,-0.009662
3591,0.035379,-0.009543,0.004761
