# Requested Sampling Rate (Hz):,1000
# Actual Sampling Rate (Hz):,998.948
# Requested Duration (s):,5.0
# Actual Duration (s):,5.043
# REST Calibration:,831.4595862068991,832.6049655172403,833.6698965517227
# MAX Calibration:,875.0000,896.0000,903.0000
# Normalization: MVC-based  (x_norm = (x - REST) / (MAX - REST))
sample_idx,EMG1,EMG2,EMG3
0,-0.05649,-0.025317,0.004761
1,-0.010555,-0.009543,0.004761
2,0.012412,-0.025317,-0.009662
3,-0.010555,-0.009543,-0.009662
4,0.035379,-0.025317,-0.009662
5,0.012412,-0.056865,-0.009662
6,0.035379,-0.025317,-0.009662
7,0.035379,-0.025317,-0.009662
8,-0.033523,-0.009543,-0.009662
9,-0.010555,-0.009543,0.019185
10,-0.033523,-0.009543,0.004761
11,0.012412,0.006231,-0.009662
12,0.058346,-0.025317,-0.024086
13,-0.033523,-0.025317,-0.024086
14,-0.033523,-0.025317,-0.009662
15,0.012412,-0.009543,0.004761
16,0.035379,-0.009543,-0.009662
17,-0.010555,-0.009543,0.004761
18,0.058346,-0.025317,-0.009662
19,-0.033523,-0.025317,0.004761
20,0.058346,-0.009543,-0.009662
21,0.035379,-0.025317,-0.009662
22,0.035379,-0.009543,0.004761
23,0.012412,-0.025317,0.004761
24,0.035379,-0.009543,-0.009662
25,-0.033523,-0.009543,-0.024086
26,-0.05649,-0.009543,-0.009662
27,-0.033523,0.006231,0.004761
28,-0.010555,0.006231,-0.009662
29,0.012412,-0.009543,0.004761
30,-0.010555,0.006231,0.004761
31,-0.010555,0.006231,-0.009662
32,0.012412,-0.025317,-0.009662
33,-0.033523,-0.025317,-0.009662
34,-0.033523,-0.025317,-0.024086
35,-0.010555,-0.009543,-0.024086
36,0.012412,-0.009543,-0.009662
37,0.012412,0.006231,-0.009662
38,-0.033523,-0.025317,0.004761
39,0.012412,-0.009543,-0.009662
40,0.012412,0.006231,-0.024086
41,-0.033523,-0.009543,-0.009662
42,-0.05649,0.006231,-0.009662
43,0.012412,-0.025317,-0.009662
44,-0.010555,-0.025317,-0.009662
45,0.012412,-0.009543,0.004761
46,-0.033523,-0.025317,-0.009662
47,0.012412,-0.025317,-0.009662
48,-0.010555,-0.009543,-0.024086
49,0.012412,-0.009543,0.019185
50,-0.033523,-0.009543,0.019185
51,0.035379,-0.009543,0.004761
52,0.035379,-0.009543,0.004761
53,0.035379,-0.025317,0.019185
54,-0.010555,-0.025317,0.004761
55,0.081313,-0.009543,0.004761
56,0.058346,-0.009543,-0.009662
57,0.012412,-0.009543,-0.009662
58,-0.033523,-0.009543,0.004761
59,0.035379,-0.009543,-0.024086
60,0.058346,-0.009543,-0.009662
61,0.035379,-0.009543,-0.009662
62,-0.033523,-0.025317,0.004761
63,-0.010555,-0.025317,-0.009662
64,0.012412,-0.025317,0.004761
65,-0.010555,-0.009543,-0.009662
66,-0.010555,-0.025317,-0.009662
67,-0.033523,-0.009543,-0.024086
68,-0.010555,-0.025317,-0.009662
69,0.012412,-0.009543,-0.009662
70,-0.033523,-0.025317,0.004761
71,0.012412,-0.009543,-0.009662
72,-0.033523,0.006231,-0.009662
73,-0.010555,-0.025317,0.004761
74,-0.010555,0.006231,0.004761
75,-0.05649,-0.009543,-0.009662
76,-0.033523,0.006231,-0.009662
77,-0.05649,-0.009543,0.019185
78,0.012412,-0.009543,-0.009662
79,0.012412,-0.025317,-0.024086
80,0.035379,-0.025317,-0.024086
81,-0.05649,-0.041091,-0.024086
82,0.012412,-0.025317,-0.009662
83,-0.010555,-0.009543,-0.009662
84,0.035379,0.006231,-0.009662
85,0.035379,-0.009543,-0.009662
86,-0.010555,-0.009543,-0.009662
87,0.058346,-0.009543,-0.009662
88,0.012412,-0.009543,-0.009662
89,0.012412,0.006231,-0.009662
90,-0.010555,-0.009543,-0.009662
91,0.012412,0.006231,-0.009662
92,0.035379,-0.009543,-0.024086
93,0.035379,0.006231,0.004761
94,-0.010555,0.006231,-0.009662
95,0.012412,-0.025317,0.004761
96,0.035379,0.006231,0.004761
97,-0.033523,0.006231,0.004761
98,0.012412,-0.009543,0.004761
99,0.012412,0.006231,-0.024086
100,0.012412,-0.009543,-0.009662
101,-0.033523,-0.025317,-0.009662
102,-0.033523,-0.025317,-0.009662
103,-0.010555,-0.009543,-0.009662
104,-0.033523,-0.009543,-0.009662
105,-0.033523,-0.009543,-0.009662
106,-0.033523,-0.009543,-0.009662
107,0.012412,0.006231,-0.009662
108,-0.010555,0.006231,0.004761
109,0.012412,-0.009543,0.019185
110,-0.010555,-0.009543,0.019185
111,-0.05649,0.006231,-0.009662
112,-0.010555,-0.025317,0.004761
113,-0.033523,-0.025317,-0.009662
114,-0.05649,-0.025317,-0.009662
115,-0.05649,-0.009543,-0.009662
116,0.012412,-0.009543,-0.009662
117,0.035379,-0.025317,-0.024086
118,0.035379,-0.025317,0.004761
119,-0.010555,-0.009543,0.004761
120,0.035379,0.006231,0.019185
121,-0.010555,-0.041091,0.019185
122,-0.010555,-0.025317,0.004761
123,-0.010555,-0.056865,-0.009662
124,-0.010555,-0.009543,-0.009662
125,0.012412,-0.025317,-0.009662
126,0.012412,-0.009543,-0.009662
127,0.081313,-0.009543,-0.009662
128,0.012412,-0.009543,-0.024086
129,-0.033523,-0.009543,-0.024086
130,0.012412,-0.025317,-0.024086
131,-0.033523,-0.025317,-0.009662
132,-0.05649,-0.025317,-0.009662
133,-0.033523,-0.009543,0.004761
134,-0.033523,-0.009543,-0.009662
135,-0.010555,-0.009543,-0.009662
136,-0.05649,-0.025317,-0.024086
137,-0.05649,-0.009543,-0.009662
138,0.012412,-0.025317,0.004761
139,-0.010555,-0.025317,-0.009662
140,-0.05649,-0.025317,-0.024086
141,-0.079457,-0.009543,-0.024086
142,-0.033523,-0.025317,0.004761
143,-0.033523,-0.025317,-0.009662
144,0.012412,-0.025317,0.033609
145,0.012412,-0.009543,0.004761
146,-0.010555,-0.009543,0.004761
147,0.058346,-0.009543,0.004761
148,0.035379,-0.009543,0.019185
149,0.035379,0.022005,0.004761
150,-0.033523,-0.025317,-0.009662
151,-0.010555,-0.025317,0.004761
152,-0.010555,-0.025317,0.004761
153,-0.010555,-0.009543,-0.024086
154,0.035379,-0.025317,-0.009662
155,0.081313,-0.009543,0.004761
156,0.035379,-0.025317,0.004761
157,0.035379,-0.025317,0.004761
158,0.012412,0.006231,-0.009662
159,0.035379,-0.009543,0.004761
160,-0.033523,-0.025317,-0.024086
161,-0.010555,-0.025317,-0.024086
162,0.058346,-0.025317,-0.009662
163,-0.010555,-0.025317,-0.009662
164,-0.033523,-0.009543,-0.009662
165,-0.033523,0.006231,0.019185
166,0.035379,-0.009543,0.004761
167,-0.010555,0.006231,0.004761
168,-0.05649,-0.009543,-0.009662
169,-0.033523,-0.025317,0.004761
170,-0.010555,-0.009543,0.004761
171,0.035379,-0.009543,0.019185
172,-0.033523,-0.009543,-0.009662
173,-0.05649,-0.025317,-0.009662
174,0.035379,-0.009543,-0.03851
175,-0.010555,-0.025317,-0.024086
176,-0.05649,-0.025317,-0.03851
177,-0.033523,-0.009543,-0.024086
178,0.012412,-0.025317,-0.024086
179,0.012412,-0.025317,-0.024086
180,-0.033523,-0.009543,-0.024086
181,0.035379,-0.025317,-0.024086
182,0.035379,-0.025317,-0.024086
183,-0.010555,-0.009543,0.004761
184,-0.033523,0.006231,0.033609
185,0.012412,-0.009543,0.062456
186,0.012412,0.03778,0.019185
187,0.035379,0.006231,0.033609
188,0.035379,-0.025317,0.033609
189,0.012412,0.006231,0.019185
190,0.035379,0.006231,0.004761
191,-0.033523,-0.009543,-0.009662
192,-0.010555,-0.041091,-0.052934
193,0.012412,-0.009543,-0.03851
194,0.012412,-0.009543,-0.009662
195,-0.010555,-0.009543,-0.009662
196,-0.033523,-0.041091,-0.024086
197,0.035379,-0.025317,-0.009662
198,0.035379,0.006231,0.019185
199,0.058346,0.006231,0.019185
200,-0.010555,-0.009543,0.004761
201,0.012412,-0.009543,-0.009662
202,-0.010555,-0.009543,-0.024086
203,-0.033523,-0.009543,-0.024086
204,-0.05649,-0.009543,-0.024086
205,0.035379,-0.009543,-0.009662
206,0.012412,-0.009543,-0.009662
207,-0.033523,-0.025317,-0.052934
208,-0.010555,-0.009543,-0.052934
209,0.058346,-0.025317,-0.024086
210,-0.033523,-0.025317,-0.009662
211,-0.102424,-0.025317,0.004761
212,0.012412,0.006231,0.033609
213,-0.010555,-0.009543,0.019185
214,-0.010555,0.006231,0.033609
215,-0.010555,-0.009543,0.048033
216,-0.010555,-0.025317,0.019185
217,0.035379,-0.009543,0.019185
218,0.012412,0.006231,0.033609
219,0.035379,-0.025317,0.004761
220,0.012412,-0.009543,-0.024086
221,-0.033523,-0.041091,-0.03851
222,0.035379,-0.009543,-0.03851
223,0.012412,-0.009543,-0.03851
224,0.012412,-0.041091,-0.024086
225,0.012412,-0.025317,-0.024086
226,-0.033523,-0.009543,-0.009662
227,-0.010555,-0.009543,0.019185
228,-0.010555,-0.025317,0.004761
229,0.012412,-0.025317,-0.009662
230,0.035379,-0.025317,-0.009662
231,0.012412,-0.009543,-0.009662
232,0.012412,0.006231,-0.009662
233,0.058346,-0.025317,-0.009662
234,0.058346,-0.009543,0.004761
235,-0.033523,-0.025317,0.004761
236,0.035379,-0.009543,0.019185
237,0.012412,-0.025317,0.019185
238,0.012412,-0.009543,-0.009662
239,-0.010555,0.006231,0.033609
240,-0.05649,-0.009543,0.048033
241,0.035379,0.006231,0.019185
242,0.012412,0.006231,0.004761
243,-0.010555,0.006231,-0.009662
244,-0.033523,-0.025317,-0.052934
245,-0.05649,-0.041091,-0.03851
246,-0.033523,-0.025317,-0.052934
247,-0.05649,-0.041091,-0.03851
248,-0.010555,-0.041091,-0.009662
249,0.012412,-0.009543,0.019185
250,-0.033523,0.006231,0.019185
251,0.035379,0.006231,0.048033
252,0.081313,0.006231,0.07688
253,0.081313,0.022005,0.062456
254,0.058346,0.022005,0.048033
255,0.012412,0.006231,-0.009662
256,-0.05649,-0.041091,-0.067357
257,-0.05649,-0.072639,-0.110629
258,-0.102424,-0.041091,-0.110629
259,0.012412,-0.041091,-0.096205
260,-0.010555,-0.025317,-0.052934
261,0.012412,0.006231,-0.03851
262,0.035379,-0.009543,0.019185
263,0.058346,-0.009543,0.004761
264,0.012412,-0.009543,0.033609
265,-0.010555,-0.009543,0.033609
266,0.012412,0.006231,0.048033
267,0.035379,-0.025317,0.019185
268,0.058346,-0.009543,-0.009662
269,0.012412,-0.009543,-0.009662
270,-0.033523,-0.025317,-0.009662
271,-0.033523,-0.025317,-0.03851
272,-0.010555,-0.025317,-0.03851
273,-0.010555,-0.025317,-0.024086
274,-0.033523,-0.009543,-0.024086
275,-0.033523,-0.009543,-0.024086
276,-0.05649,-0.041091,-0.024086
277,-0.033523,-0.025317,0.004761
278,-0.05649,0.006231,0.019185
279,-0.010555,0.006231,0.033609
280,0.035379,-0.009543,0.048033
281,-0.010555,-0.025317,0.019185
282,0.012412,-0.009543,-0.009662
283,0.012412,-0.025317,-0.009662
284,-0.010555,-0.009543,-0.024086
285,-0.010555,-0.025317,-0.052934
286,0.012412,-0.009543,-0.052934
287,-0.033523,-0.025317,-0.024086
288,0.058346,-0.025317,-0.009662
289,-0.010555,0.006231,-0.009662
290,0.058346,-0.009543,0.004761
291,0.081313,-0.025317,0.004761
292,-0.010555,-0.009543,-0.009662
293,-0.079457,-0.041091,-0.009662
294,-0.05649,-0.025317,-0.03851
295,-0.010555,-0.009543,-0.024086
296,-0.033523,-0.025317,-0.024086
297,0.012412,0.006231,0.004761
298,0.012412,-0.025317,0.004761
299,0.012412,-0.009543,-0.009662
300,0.012412,-0.025317,-0.009662
301,-0.033523,-0.009543,0.004761
302,0.012412,0.006231,0.048033
303,0.035379,0.006231,0.048033
304,0.012412,0.022005,0.033609
305,0.012412,0.006231,0.048033
306,-0.033523,-0.009543,0.048033
307,-0.010555,-0.009543,0.033609
308,-0.05649,-0.025317,0.004761
309,-0.033523,-0.009543,0.004761
310,-0.010555,-0.025317,-0.03851
311,-0.05649,-0.009543,-0.009662
312,-0.033523,-0.025317,-0.009662
313,-0.05649,-0.025317,-0.052934
314,-0.010555,-0.025317,-0.024086
315,0.081313,-0.009543,-0.009662
316,-0.033523,-0.009543,-0.024086
317,0.035379,0.006231,-0.024086
318,0.012412,0.006231,-0.03851
319,0.012412,-0.009543,-0.024086
320,0.012412,-0.009543,-0.009662
321,0.081313,-0.056865,-0.024086
322,-0.010555,-0.072639,-0.009662
323,0.012412,-0.041091,-0.03851
324,-0.010555,-0.041091,-0.024086
325,0.035379,-0.009543,0.048033
326,0.012412,-0.025317,-0.03851
327,0.012412,-0.025317,-0.052934
328,-0.05649,-0.041091,-0.024086
329,0.035379,-0.009543,-0.024086
330,0.058346,-0.041091,0.019185
331,0.012412,-0.025317,0.004761
332,0.012412,0.006231,0.004761
333,0.035379,0.006231,0.033609
334,0.081313,0.006231,0.048033
335,0.012412,0.022005,0.062456
336,-0.010555,-0.025317,0.033609
337,-0.010555,0.006231,0.033609
338,0.035379,-0.025317,0.004761
339,0.012412,-0.009543,-0.024086
340,0.012412,0.006231,0.004761
341,0.012412,0.006231,0.004761
342,-0.010555,-0.025317,-0.009662
343,-0.033523,-0.041091,-0.024086
344,-0.079457,-0.041091,-0.03851
345,-0.033523,-0.041091,-0.024086
346,0.012412,-0.009543,-0.024086
347,-0.033523,-0.025317,0.004761
348,-0.033523,0.006231,0.019185
349,0.012412,-0.009543,0.033609
350,0.012412,0.006231,0.048033
351,0.012412,0.006231,0.033609
352,-0.010555,0.006231,-0.009662
353,0.012412,-0.041091,-0.052934
354,0.035379,-0.041091,-0.024086
355,0.035379,-0.041091,-0.03851
356,-0.010555,-0.041091,-0.052934
357,0.035379,-0.041091,-0.03851
358,0.012412,-0.025317,-0.024086
359,0.012412,-0.025317,0.004761
360,0.058346,-0.009543,0.019185
361,0.058346,0.006231,0.004761
362,0.035379,-0.009543,-0.009662
363,0.012412,0.006231,-0.024086
364,0.012412,-0.025317,-0.009662
365,-0.010555,-0.041091,-0.024086
366,0.035379,-0.025317,-0.024086
367,0.012412,-0.009543,-0.009662
368,-0.033523,-0.041091,-0.009662
369,0.035379,-0.025317,-0.009662
370,0.012412,-0.041091,0.004761
371,0.035379,-0.025317,0.033609
372,0.012412,-0.009543,0.004761
373,-0.033523,-0.009543,-0.009662
374,0.058346,-0.025317,-0.009662
375,0.012412,-0.025317,-0.009662
376,-0.033523,-0.009543,0.019185
377,-0.010555,0.006231,0.033609
378,0.012412,-0.009543,0.048033
379,0.012412,0.022005,0.062456
380,-0.010555,0.022005,0.07688
381,0.10428,0.006231,0.062456
382,0.10428,-0.025317,0.019185
383,-0.010555,-0.025317,-0.03851
384,-0.033523,-0.056865,-0.03851
385,-0.010555,-0.041091,-0.067357
386,-0.033523,-0.041091,-0.081781
387,-0.010555,-0.025317,-0.03851
388,-0.010555,-0.009543,-0.024086
389,0.035379,-0.041091,0.004761
390,0.012412,-0.009543,0.019185
391,-0.033523,0.006231,0.019185
392,-0.010555,-0.025317,0.019185
393,0.035379,0.006231,0.019185
394,0.012412,-0.025317,0.033609
395,0.058346,-0.041091,0.033609
396,-0.010555,-0.009543,0.019185
397,0.058346,0.006231,0.019185
398,0.058346,0.006231,0.019185
399,0.058346,0.006231,-0.009662
400,0.058346,-0.025317,-0.009662
401,0.012412,-0.009543,-0.009662
402,-0.033523,-0.025317,-0.081781
403,-0.05649,-0.041091,-0.067357
404,0.035379,-0.025317,-0.067357
405,0.035379,-0.025317,-0.03851
406,0.035379,-0.009543,-0.009662
407,0.035379,-0.009543,0.019185
408,-0.05649,-0.009543,0.019185
409,-0.033523,-0.009543,0.033609
410,0.058346,-0.025317,0.004761
411,-0.05649,-0.009543,0.019185
412,-0.010555,-0.009543,0.019185
413,-0.033523,-0.025317,0.004761
414,-0.010555,-0.025317,0.004761
415,-0.010555,-0.009543,0.019185
416,-0.010555,0.006231,0.004761
417,-0.033523,-0.025317,-0.009662
418,-0.010555,-0.041091,-0.024086
419,-0.010555,-0.041091,-0.03851
420,-0.010555,-0.025317,-0.052934
421,0.058346,-0.041091,-0.024086
422,-0.05649,-0.009543,0.004761
423,-0.033523,0.006231,0.019185
424,-0.010555,0.006231,0.004761
425,-0.033523,-0.025317,-0.03851
426,-0.010555,-0.025317,-0.024086
427,-0.010555,-0.009543,-0.009662
428,-0.033523,-0.009543,-0.009662
429,-0.010555,-0.009543,-0.024086
430,0.035379,0.006231,0.019185
431,-0.033523,-0.009543,0.019185
432,0.058346,0.006231,0.019185
433,0.10428,-0.009543,-0.024086
434,0.012412,-0.009543,0.004761
435,-0.033523,-0.009543,0.004761
436,0.012412,-0.025317,-0.009662
437,-0.010555,-0.025317,-0.03851
438,-0.010555,-0.025317,-0.024086
439,-0.010555,-0.025317,0.004761
440,0.035379,-0.009543,0.033609
441,0.058346,-0.009543,0.033609
442,0.035379,0.006231,0.033609
443,0.012412,-0.009543,0.048033
444,-0.05649,-0.025317,0.004761
445,-0.05649,-0.041091,-0.024086
446,0.012412,-0.025317,-0.03851
447,0.035379,0.006231,0.004761
448,0.035379,-0.009543,0.033609
449,0.035379,0.022005,0.091304
450,0.012412,0.03778,0.07688
451,-0.033523,0.022005,0.062456
452,-0.05649,-0.009543,0.004761
453,-0.05649,-0.041091,-0.052934
454,-0.033523,-0.025317,-0.024086
455,-0.05649,-0.025317,-0.009662
456,-0.033523,-0.009543,-0.009662
457,-0.010555,-0.056865,-0.067357
458,-0.033523,-0.041091,-0.110629
459,-0.079457,-0.072639,-0.125052
460,-0.05649,-0.025317,-0.096205
461,-0.079457,-0.025317,-0.052934
462,-0.079457,-0.025317,-0.03851
463,-0.010555,-0.009543,0.033609
464,0.035379,0.053554,0.148999
465,0.10428,0.069328,0.206694
466,0.081313,0.069328,0.19227
467,0.081313,0.053554,0.105728
468,0.035379,-0.009543,-0.009662
469,-0.033523,-0.072639,-0.110629
470,-0.05649,-0.088413,-0.168324
471,0.012412,-0.025317,-0.139476
472,0.012412,-0.025317,-0.067357
473,0.035379,-0.025317,-0.03851
474,0.012412,-0.025317,0.004761
475,0.012412,-0.009543,0.062456
476,0.058346,0.022005,0.07688
477,0.035379,0.022005,0.062456
478,0.012412,0.006231,0.033609
479,0.035379,0.006231,0.048033
480,0.081313,0.03778,0.07688
481,-0.010555,0.022005,0.033609
482,-0.05649,-0.025317,-0.009662
483,-0.125391,-0.104187,-0.096205
484,-0.033523,-0.088413,-0.1539
485,-0.010555,-0.072639,-0.096205
486,0.012412,-0.025317,-0.067357
487,0.035379,-0.009543,-0.03851
488,-0.010555,-0.009543,-0.024086
489,0.035379,-0.009543,0.048033
490,0.058346,0.006231,0.091304
491,0.058346,0.006231,0.019185
492,0.081313,0.006231,0.048033
493,0.035379,0.006231,0.07688
494,0.058346,0.053554,0.105728
495,-0.010555,-0.009543,0.019185
496,-0.05649,-0.025317,0.019185
497,-0.010555,-0.041091,-0.009662
498,-0.102424,-0.056865,-0.067357
499,-0.05649,-0.072639,-0.1539
500,-0.010555,-0.072639,-0.139476
501,0.035379,-0.041091,-0.081781
502,0.012412,-0.009543,-0.024086
503,0.058346,0.006231,0.07688
504,0.058346,0.022005,0.134575
505,0.081313,0.022005,0.062456
506,-0.033523,-0.025317,0.019185
507,0.012412,-0.025317,0.004761
508,0.10428,-0.025317,-0.03851
509,0.058346,-0.025317,-0.052934
510,0.012412,-0.009543,0.004761
511,0.035379,-0.025317,-0.024086
512,-0.05649,-0.072639,-0.110629
513,-0.033523,-0.056865,-0.009662
514,0.012412,-0.009543,-0.009662
515,0.10428,-0.009543,0.033609
516,0.035379,-0.009543,0.004761
517,-0.033523,-0.041091,-0.052934
518,-0.010555,-0.009543,-0.03851
519,-0.033523,-0.009543,-0.009662
520,0.058346,0.022005,0.033609
521,0.081313,0.022005,0.062456
522,0.012412,0.03778,0.134575
523,-0.079457,0.006231,0.062456
524,-0.033523,-0.025317,0.004761
525,0.058346,-0.009543,-0.052934
526,-0.033523,-0.041091,-0.139476
527,0.012412,-0.056865,-0.1539
528,-0.05649,-0.056865,-0.096205
529,0.035379,-0.025317,0.033609
530,0.081313,0.022005,0.062456
531,0.081313,0.03778,0.120151
532,0.127248,0.053554,0.134575
533,-0.033523,-0.041091,0.033609
534,-0.05649,-0.072639,0.004761
535,-0.079457,-0.088413,-0.139476
536,-0.125391,-0.119962,-0.211595
537,-0.102424,-0.056865,-0.081781
538,0.035379,0.03778,0.048033
539,0.10428,0.069328,0.163423
540,0.196149,0.11665,0.19227
541,0.196149,0.069328,0.148999
542,-0.010555,-0.041091,0.004761
543,-0.033523,-0.056865,-0.052934
544,0.035379,-0.041091,-0.052934
545,-0.010555,-0.041091,-0.052934
546,-0.079457,-0.088413,-0.125052
547,0.081313,-0.056865,-0.168324
548,0.012412,-0.088413,-0.1539
549,-0.033523,-0.056865,-0.067357
550,0.058346,0.006231,0.062456
551,0.035379,0.006231,0.062456
552,-0.033523,-0.025317,-0.009662
553,-0.05649,-0.009543,-0.052934
554,0.012412,-0.025317,0.004761
555,0.035379,0.006231,0.048033
556,0.058346,-0.009543,0.07688
557,0.035379,-0.009543,0.019185
558,0.012412,-0.009543,0.048033
559,0.035379,0.022005,-0.009662
560,0.081313,0.022005,0.062456
561,0.081313,0.069328,0.120151
562,0.127248,0.022005,0.019185
563,-0.010555,-0.072639,-0.110629
564,-0.102424,-0.088413,-0.139476
565,-0.05649,-0.056865,-0.096205
566,-0.033523,-0.009543,0.004761
567,0.081313,-0.009543,0.019185
568,0.035379,-0.025317,0.033609
569,0.10428,0.053554,0.120151
570,0.081313,0.03778,0.148999
571,0.035379,0.03778,0.105728
572,-0.010555,-0.009543,0.091304
573,0.081313,0.022005,0.048033
574,0.035379,0.006231,-0.03851
575,-0.102424,-0.056865,-0.096205
576,-0.194293,-0.104187,-0.240442
577,-0.148358,-0.15151,-0.355832
578,-0.125391,-0.167284,-0.254866
579,-0.079457,-0.088413,-0.110629
580,0.150215,-0.009543,0.033609
581,0.219116,0.085102,0.221118
582,0.288018,0.195521,0.42305
583,0.288018,0.211295,0.509593
584,0.10428,0.132424,0.350931
585,0.012412,-0.009543,0.048033
586,-0.148358,-0.15151,-0.298137
587,-0.263194,-0.23038,-0.456799
588,-0.240227,-0.15151,-0.355832
589,-0.102424,-0.088413,-0.197171
590,0.035379,0.006231,-0.024086
591,-0.010555,0.03778,0.120151
592,0.012412,0.085102,0.235541
593,0.127248,0.069328,0.221118
594,0.081313,-0.009543,0.033609
595,-0.033523,-0.056865,-0.110629
596,-0.033523,-0.056865,-0.139476
597,-0.033523,-0.041091,-0.110629
598,0.058346,0.022005,-0.024086
599,0.058346,0.022005,-0.024086
600,-0.010555,-0.009543,-0.024086
601,0.081313,0.006231,0.062456
602,0.150215,0.053554,0.19227
603,-0.05649,-0.009543,0.091304
604,-0.125391,-0.088413,0.004761
605,-0.05649,-0.072639,-0.125052
606,0.012412,-0.056865,-0.096205
607,0.081313,0.006231,0.019185
608,0.035379,0.006231,0.105728
609,0.127248,0.022005,0.148999
610,0.150215,0.022005,0.134575
611,0.265051,0.100876,0.19227
612,0.265051,0.100876,0.105728
613,0.127248,-0.009543,-0.182747
614,-0.033523,-0.119962,-0.355832
615,-0.21726,-0.135736,-0.312561
616,-0.263194,-0.056865,-0.197171
617,-0.286161,-0.056865,-0.125052
618,-0.263194,-0.088413,-0.052934
619,-0.010555,0.03778,0.120151
620,0.10428,0.069328,0.322084
621,0.127248,0.148198,0.42305
622,-0.079457,0.085102,0.322084
623,-0.125391,0.053554,0.120151
624,-0.148358,-0.025317,-0.081781
625,-0.125391,-0.072639,-0.168324
626,-0.148358,-0.104187,-0.168324
627,-0.079457,-0.104187,-0.1539
628,-0.033523,-0.104187,-0.139476
629,0.012412,-0.15151,-0.254866
630,0.10428,-0.135736,-0.197171
631,0.150215,-0.072639,-0.03851
632,0.150215,0.006231,0.105728
633,0.219116,0.053554,0.163423
634,0.127248,0.069328,0.235541
635,0.173182,0.069328,0.249965
636,0.173182,0.069328,0.221118
637,0.173182,0.085102,0.134575
638,-0.05649,-0.056865,-0.168324
639,-0.194293,-0.119962,-0.326985
640,-0.05649,-0.088413,-0.197171
641,-0.033523,-0.041091,-0.067357
642,-0.05649,-0.056865,-0.052934
643,-0.148358,-0.072639,-0.168324
644,-0.125391,-0.072639,-0.182747
645,0.012412,0.006231,-0.024086
646,0.081313,0.053554,0.177846
647,0.150215,0.085102,0.235541
648,0.081313,0.022005,0.148999
649,0.012412,-0.025317,-0.009662
650,0.081313,0.006231,-0.009662
651,0.127248,0.022005,0.004761
652,-0.033523,-0.025317,-0.03851
653,-0.010555,-0.041091,-0.110629
654,0.058346,0.022005,-0.009662
655,0.127248,0.085102,0.091304
656,0.150215,0.03778,0.07688
657,0.012412,0.03778,0.048033
658,-0.033523,0.006231,0.004761
659,-0.125391,-0.072639,0.004761
660,-0.079457,-0.025317,0.062456
661,-0.05649,-0.088413,-0.067357
662,-0.079457,-0.119962,-0.182747
663,0.012412,-0.056865,-0.254866
664,0.012412,-0.025317,-0.125052
665,0.058346,0.022005,0.048033
666,0.10428,0.022005,0.091304
667,0.10428,0.022005,0.148999
668,-0.010555,-0.009543,-0.024086
669,-0.079457,-0.135736,-0.240442
670,-0.05649,-0.104187,-0.226019
671,-0.010555,-0.104187,-0.182747
672,0.012412,-0.072639,-0.052934
673,0.035379,0.03778,0.148999
674,0.173182,0.100876,0.264389
675,0.242083,0.132424,0.278813
676,0.173182,0.100876,0.235541
677,0.012412,0.022005,0.048033
678,-0.102424,-0.009543,-0.110629
679,-0.033523,-0.056865,-0.1539
680,0.081313,-0.072639,-0.125052
681,0.150215,-0.072639,-0.182747
682,0.196149,-0.088413,-0.211595
683,0.173182,-0.104187,-0.139476
684,0.219116,-0.056865,-0.067357
685,0.173182,0.022005,0.062456
686,0.081313,0.069328,0.264389
687,0.035379,0.11665,0.30766
688,-0.010555,0.069328,0.19227
689,0.035379,-0.009543,-0.024086
690,-0.033523,-0.072639,-0.211595
691,-0.05649,0.022005,-0.096205
692,-0.171326,0.03778,-0.009662
693,-0.309129,0.006231,-0.052934
694,-0.171326,-0.041091,-0.067357
695,0.012412,-0.041091,0.033609
696,0.10428,-0.056865,0.105728
697,-0.148358,-0.088413,-0.009662
698,-0.263194,-0.104187,-0.139476
699,-0.171326,-0.041091,-0.096205
700,-0.079457,-0.009543,-0.03851
701,-0.010555,0.006231,-0.052934
702,0.081313,0.006231,-0.03851
703,0.035379,-0.025317,0.004761
704,-0.010555,-0.025317,0.091304
705,0.10428,0.03778,0.264389
706,0.173182,0.100876,0.264389
707,0.058346,0.053554,0.148999
708,-0.125391,-0.104187,-0.096205
709,-0.125391,-0.104187,-0.182747
710,-0.102424,-0.135736,-0.226019
711,-0.033523,-0.088413,-0.1539
712,0.058346,-0.025317,-0.067357
713,0.219116,0.03778,0.091304
714,0.196149,0.069328,0.264389
715,0.196149,0.053554,0.206694
716,0.035379,0.006231,-0.024086
717,-0.033523,-0.072639,-0.1539
718,-0.21726,-0.135736,-0.240442
719,-0.033523,-0.088413,-0.26929
720,-0.05649,-0.041091,-0.139476
721,-0.05649,-0.056865,-0.052934
722,-0.079457,-0.056865,-0.024086
723,0.012412,0.006231,0.033609
724,0.012412,0.053554,0.120151
725,0.012412,0.03778,0.091304
726,-0.010555,-0.009543,0.004761
727,-0.125391,-0.072639,-0.03851
728,-0.125391,-0.056865,-0.03851
729,0.035379,0.006231,0.004761
730,0.012412,-0.025317,-0.067357
731,-0.010555,0.006231,-0.096205
732,0.035379,0.053554,-0.009662
733,0.173182,0.069328,0.120151
734,0.058346,0.006231,0.048033
735,-0.05649,-0.104187,-0.081781
736,-0.033523,-0.072639,-0.081781
737,-0.010555,0.022005,0.004761
738,0.035379,0.053554,0.019185
739,0.196149,0.069328,0.019185
740,0.242083,0.085102,0.048033
741,0.150215,0.069328,0.091304
742,0.081313,0.006231,0.062456
743,0.035379,-0.041091,0.134575
744,0.058346,-0.041091,0.062456
745,-0.010555,-0.088413,-0.024086
746,0.012412,-0.088413,-0.067357
747,0.058346,-0.056865,-0.067357
748,0.081313,-0.056865,-0.03851
749,0.10428,-0.041091,0.033609
750,0.10428,0.069328,0.062456
751,0.10428,0.305939,0.091304
752,0.081313,0.432132,0.091304
753,0.10428,0.38481,0.062456
754,0.10428,0.242843,-0.024086
755,-0.033523,0.053554,-0.1539
756,-0.05649,-0.088413,-0.168324
757,0.10428,-0.104187,-0.125052
758,0.173182,-0.167284,-0.052934
759,0.127248,-0.23038,-0.03851
760,0.448788,-0.214606,-0.03851
761,0.494722,-0.23038,0.019185
762,0.196149,-0.214606,0.062456
763,0.10428,-0.214606,-0.009662
764,-0.05649,-0.214606,-0.081781
765,0.012412,-0.056865,0.048033
766,-0.033523,0.03778,0.048033
767,-0.286161,-0.041091,-0.03851
768,-0.653636,-0.104187,-0.110629
769,-0.722538,-0.119962,-0.182747
770,-0.423964,-0.104187,-0.197171
771,-0.21726,-0.041091,-0.125052
772,-0.05649,0.03778,0.033609
773,0.127248,0.085102,0.105728
774,0.173182,0.100876,0.177846
775,0.081313,0.03778,0.134575
776,0.081313,0.053554,0.105728
777,0.035379,0.022005,0.105728
778,-0.033523,-0.009543,0.19227
779,0.012412,-0.025317,0.062456
780,-0.010555,-0.072639,-0.168324
781,-0.033523,-0.072639,-0.168324
782,-0.05649,-0.088413,-0.125052
783,-0.010555,-0.056865,-0.110629
784,0.173182,-0.009543,-0.081781
785,0.127248,-0.009543,-0.067357
786,0.10428,-0.009543,0.033609
787,0.173182,0.006231,-0.009662
788,0.242083,0.053554,0.07688
789,0.265051,0.03778,0.091304
790,0.10428,0.022005,-0.009662
791,-0.033523,-0.025317,-0.052934
792,-0.079457,0.022005,0.105728
793,-0.033523,0.03778,0.249965
794,-0.010555,-0.009543,0.163423
795,-0.21726,-0.104187,-0.081781
796,-0.286161,-0.119962,-0.240442
797,-0.332096,-0.104187,-0.254866
798,-0.125391,-0.025317,-0.110629
799,0.012412,0.03778,0.048033
800,0.035379,0.053554,0.105728
801,0.012412,0.03778,0.120151
802,-0.033523,-0.056865,0.033609
803,-0.102424,-0.088413,-0.081781
804,-0.010555,-0.025317,0.019185
805,0.081313,0.03778,0.19227
806,0.035379,0.069328,0.048033
807,-0.033523,-0.041091,-0.168324
808,-0.079457,-0.119962,-0.211595
809,-0.05649,-0.072639,-0.081781
810,-0.010555,-0.056865,-0.110629
811,0.035379,-0.072639,-0.139476
812,0.035379,-0.056865,-0.110629
813,-0.033523,-0.025317,-0.03851
814,-0.010555,0.053554,0.091304
815,0.012412,0.085102,0.148999
816,0.081313,0.132424,0.221118
817,0.173182,0.11665,0.206694
818,0.058346,0.022005,0.07688
819,0.012412,-0.072639,-0.009662
820,-0.171326,-0.214606,-0.168324
821,-0.148358,-0.167284,-0.197171
822,-0.05649,-0.088413,0.105728
823,0.058346,0.053554,0.148999
824,0.058346,0.022005,-0.052934
825,0.10428,0.006231,-0.139476
826,0.127248,0.053554,0.004761
827,0.058346,0.03778,0.033609
828,-0.05649,-0.009543,-0.03851
829,-0.05649,-0.041091,-0.125052
830,-0.171326,-0.072639,-0.110629
831,-0.079457,-0.056865,-0.052934
832,0.012412,-0.041091,-0.009662
833,0.127248,0.022005,0.07688
834,0.058346,0.022005,0.07688
835,0.035379,0.053554,0.163423
836,0.150215,0.132424,0.30766
837,0.219116,0.163972,0.42305
838,0.058346,0.085102,0.235541
839,-0.125391,-0.104187,-0.197171
840,-0.194293,-0.198832,-0.355832
841,-0.125391,-0.15151,-0.312561
842,-0.079457,-0.088413,-0.197171
843,0.012412,-0.009543,-0.067357
844,-0.05649,-0.009543,-0.009662
845,-0.05649,0.006231,0.004761
846,-0.05649,-0.009543,0.019185
847,-0.010555,-0.025317,-0.009662
848,0.035379,-0.056865,-0.067357
849,0.035379,-0.072639,-0.067357
850,0.081313,-0.009543,0.033609
851,0.150215,0.069328,0.120151
852,0.265051,0.148198,0.249965
853,0.219116,0.132424,0.249965
854,0.150215,-0.009543,0.062456
855,-0.010555,-0.088413,-0.110629
856,0.012412,-0.056865,-0.067357
857,0.035379,-0.025317,0.004761
858,0.035379,-0.025317,0.004761
859,-0.102424,-0.009543,-0.03851
860,-0.148358,-0.072639,-0.067357
861,-0.21726,-0.104187,-0.139476
862,-0.125391,-0.072639,-0.081781
863,-0.05649,-0.072639,-0.024086
864,-0.05649,0.006231,0.004761
865,-0.05649,0.03778,0.148999
866,0.10428,0.11665,0.249965
867,0.173182,0.148198,0.30766
868,0.219116,0.132424,0.293236
869,0.10428,0.006231,0.048033
870,-0.079457,-0.119962,-0.168324
871,-0.21726,-0.23038,-0.38468
872,-0.010555,-0.183058,-0.456799
873,0.058346,-0.088413,-0.283714
874,0.012412,-0.072639,-0.1539
875,0.012412,-0.041091,-0.052934
876,0.058346,0.006231,0.019185
877,0.012412,0.022005,0.07688
878,0.012412,0.022005,0.091304
879,0.10428,0.022005,0.120151
880,0.012412,0.069328,0.19227
881,0.10428,0.100876,0.264389
882,0.173182,0.148198,0.322084
883,0.196149,0.132424,0.293236
884,0.035379,-0.009543,-0.009662
885,-0.171326,-0.167284,-0.312561
886,-0.194293,-0.183058,-0.341409
887,-0.194293,-0.183058,-0.298137
888,-0.079457,-0.119962,-0.211595
889,-0.079457,-0.056865,-0.110629
890,0.012412,-0.041091,-0.052934
891,0.012412,-0.025317,-0.009662
892,-0.05649,0.006231,0.033609
893,0.035379,0.022005,0.033609
894,0.081313,-0.009543,0.019185
895,0.058346,-0.009543,-0.024086
896,0.058346,-0.009543,-0.009662
897,0.035379,-0.009543,-0.009662
898,0.127248,-0.009543,0.048033
899,0.310985,-0.009543,0.048033
900,0.265051,0.006231,0.07688
901,0.310985,0.053554,0.177846
902,0.242083,0.163972,0.350931
903,0.150215,0.163972,0.350931
904,0.012412,0.022005,0.134575
905,-0.148358,-0.072639,-0.182747
906,-0.194293,-0.056865,-0.182747
907,-0.21726,-0.072639,-0.125052
908,-0.240227,-0.088413,-0.182747
909,-0.194293,-0.119962,-0.168324
910,-0.102424,-0.119962,-0.125052
911,-0.033523,-0.072639,-0.125052
912,-0.05649,-0.041091,-0.052934
913,-0.079457,-0.041091,-0.024086
914,0.058346,0.006231,0.004761
915,0.035379,-0.025317,0.019185
916,-0.033523,-0.025317,0.033609
917,-0.010555,0.006231,0.019185
918,0.035379,-0.025317,-0.024086
919,-0.010555,-0.009543,-0.03851
920,-0.05649,-0.009543,-0.067357
921,-0.010555,0.006231,-0.009662
922,-0.033523,0.006231,0.091304
923,-0.033523,0.022005,0.163423
924,-0.05649,-0.041091,-0.009662
925,0.035379,-0.009543,-0.024086
926,0.012412,-0.041091,-0.067357
927,-0.079457,-0.041091,-0.067357
928,-0.010555,-0.009543,-0.024086
929,0.012412,0.006231,-0.03851
930,-0.010555,0.03778,-0.024086
931,-0.010555,0.03778,0.004761
932,-0.033523,0.022005,0.019185
933,0.058346,-0.009543,-0.009662
934,-0.033523,-0.025317,0.019185
935,-0.010555,-0.041091,0.033609
936,0.012412,-0.056865,0.033609
937,-0.010555,-0.041091,0.004761
938,0.012412,-0.041091,-0.024086
939,0.081313,-0.025317,-0.009662
940,0.035379,-0.025317,-0.024086
941,0.127248,-0.025317,-0.03851
942,0.012412,-0.009543,-0.052934
943,-0.079457,-0.025317,-0.052934
944,-0.079457,-0.025317,-0.024086
945,0.012412,-0.009543,0.033609
946,-0.010555,0.006231,0.033609
947,-0.05649,0.006231,0.091304
948,-0.010555,0.03778,0.134575
949,0.081313,0.069328,0.148999
950,0.012412,0.006231,0.019185
951,-0.010555,-0.041091,-0.096205
952,-0.033523,-0.056865,-0.110629
953,-0.033523,-0.056865,-0.067357
954,-0.05649,-0.025317,-0.03851
955,-0.010555,-0.025317,0.033609
956,0.081313,0.069328,0.120151
957,0.127248,0.03778,0.091304
958,0.012412,0.006231,0.004761
959,-0.05649,-0.041091,-0.139476
960,-0.194293,-0.088413,-0.211595
961,-0.079457,-0.072639,-0.139476
962,0.012412,-0.041091,-0.067357
963,0.081313,-0.025317,-0.009662
964,0.196149,-0.009543,-0.009662
965,0.150215,-0.009543,-0.024086
966,0.035379,-0.009543,0.033609
967,0.012412,0.006231,0.048033
968,0.035379,0.006231,0.07688
969,-0.05649,0.006231,0.062456
970,-0.171326,-0.009543,-0.024086
971,-0.079457,-0.056865,-0.052934
972,0.035379,-0.041091,-0.052934
973,0.058346,-0.041091,-0.03851
974,0.10428,-0.025317,-0.024086
975,0.081313,0.006231,0.004761
976,0.081313,0.006231,0.019185
977,0.058346,0.022005,0.048033
978,0.10428,0.053554,0.091304
979,0.081313,0.053554,0.091304
980,-0.010555,-0.009543,0.033609
981,0.035379,-0.072639,-0.096205
982,-0.033523,-0.088413,-0.139476
983,-0.079457,-0.041091,-0.081781
984,-0.033523,-0.041091,-0.03851
985,-0.033523,-0.025317,-0.024086
986,-0.079457,0.006231,-0.024086
987,-0.033523,0.006231,0.033609
988,-0.010555,0.022005,0.004761
989,-0.033523,-0.025317,0.004761
990,-0.079457,-0.009543,-0.024086
991,0.012412,-0.009543,0.004761
992,0.081313,-0.009543,-0.009662
993,0.150215,-0.025317,0.048033
994,0.150215,-0.025317,-0.009662
995,0.242083,0.006231,0.033609
996,0.219116,0.022005,0.07688
997,0.150215,0.022005,0.048033
998,0.035379,-0.025317,0.004761
999,0.035379,0.006231,-0.03851
1000,0.058346,-0.009543,-0.024086
1001,-0.033523,-0.009543,-0.009662
1002,0.012412,0.022005,0.004761
1003,-0.010555,-0.009543,-0.009662
1004,-0.010555,-0.025317,0.004761
1005,-0.05649,-0.056865,-0.096205
1006,-0.125391,-0.072639,-0.096205
1007,-0.033523,-0.056865,-0.096205
1008,0.035379,-0.025317,-0.024086
1009,-0.010555,-0.009543,0.004761
1010,-0.010555,0.022005,0.033609
1011,-0.010555,0.006231,0.048033
1012,0.012412,-0.009543,0.033609
1013,0.012412,0.006231,0.033609
1014,0.012412,-0.009543,0.004761
1015,0.035379,-0.025317,-0.024086
1016,0.012412,-0.041091,-0.067357
1017,-0.033523,-0.041091,-0.067357
1018,-0.05649,-0.041091,-0.03851
1019,0.058346,-0.009543,-0.009662
1020,-0.05649,-0.041091,-0.03851
1021,-0.010555,-0.041091,-0.024086
1022,-0.010555,-0.041091,-0.024086
1023,0.081313,-0.056865,-0.03851
1024,0.127248,-0.072639,-0.024086
1025,0.058346,-0.056865,-0.009662
1026,0.10428,-0.009543,0.019185
1027,0.127248,-0.009543,0.019185
1028,0.10428,-0.025317,0.004761
1029,-0.010555,-0.025317,0.019185
1030,-0.102424,-0.009543,0.004761
1031,-0.05649,0.006231,0.004761
1032,0.081313,0.022005,0.004761
1033,0.035379,0.006231,-0.009662
1034,0.058346,0.022005,0.019185
1035,0.012412,0.006231,0.033609
1036,-0.05649,-0.009543,0.019185
1037,-0.010555,0.006231,0.019185
1038,-0.033523,0.006231,0.033609
1039,-0.079457,-0.009543,-0.009662
1040,-0.033523,-0.009543,-0.024086
1041,0.012412,-0.009543,-0.024086
1042,0.012412,-0.025317,-0.009662
1043,-0.010555,-0.009543,0.019185
1044,0.035379,-0.041091,0.004761
1045,-0.033523,-0.041091,-0.024086
1046,-0.010555,-0.025317,-0.052934
1047,0.035379,-0.025317,-0.03851
1048,-0.010555,-0.025317,0.004761
1049,-0.010555,0.006231,-0.009662
1050,-0.010555,0.006231,-0.009662
1051,-0.033523,-0.009543,-0.009662
1052,0.012412,0.006231,0.004761
1053,-0.033523,-0.025317,0.019185
1054,0.012412,-0.009543,-0.009662
1055,0.035379,-0.009543,0.004761
1056,0.012412,-0.041091,-0.009662
1057,-0.033523,-0.072639,0.004761
1058,0.035379,-0.025317,-0.009662
1059,-0.033523,-0.041091,-0.024086
1060,-0.05649,-0.009543,0.004761
1061,0.058346,-0.009543,0.033609
1062,0.012412,-0.009543,-0.009662
1063,0.012412,-0.025317,-0.03851
1064,0.081313,-0.025317,-0.052934
1065,0.012412,-0.009543,-0.03851
1066,0.035379,0.006231,-0.009662
1067,0.058346,0.022005,0.048033
1068,0.081313,0.006231,0.091304
1069,0.127248,0.022005,0.07688
1070,0.127248,-0.009543,0.033609
1071,0.150215,-0.009543,-0.03851
1072,0.058346,-0.025317,-0.110629
1073,0.012412,-0.041091,-0.096205
1074,-0.102424,-0.025317,-0.052934
1075,-0.125391,-0.041091,-0.052934
1076,-0.125391,-0.072639,-0.067357
1077,-0.102424,-0.041091,-0.067357
1078,-0.079457,-0.009543,-0.03851
1079,-0.079457,-0.009543,0.004761
1080,-0.079457,-0.009543,0.004761
1081,-0.05649,-0.009543,0.004761
1082,0.035379,-0.009543,0.004761
1083,0.081313,-0.009543,-0.009662
1084,0.058346,-0.025317,0.004761
1085,0.035379,-0.025317,-0.009662
1086,0.081313,0.006231,-0.009662
1087,0.081313,0.006231,0.004761
1088,0.012412,0.006231,-0.009662
1089,0.058346,0.006231,0.004761
1090,0.058346,0.006231,0.019185
1091,0.012412,0.006231,0.019185
1092,0.035379,0.006231,0.019185
1093,0.10428,-0.009543,0.004761
1094,0.150215,0.006231,0.004761
1095,0.058346,-0.025317,-0.024086
1096,-0.033523,-0.009543,-0.03851
1097,-0.010555,-0.009543,0.004761
1098,0.035379,-0.025317,-0.024086
1099,0.012412,0.022005,-0.009662
1100,0.012412,0.006231,-0.009662
1101,0.035379,-0.025317,0.004761
1102,0.012412,-0.025317,-0.009662
1103,0.012412,-0.025317,-0.024086
1104,0.012412,-0.025317,0.004761
1105,0.012412,-0.025317,0.004761
1106,-0.010555,-0.025317,-0.009662
1107,-0.010555,-0.009543,-0.024086
1108,0.012412,-0.009543,-0.024086
1109,-0.033523,0.022005,0.004761
1110,-0.010555,0.022005,0.048033
1111,0.012412,0.022005,0.048033
1112,0.035379,0.006231,0.062456
1113,0.012412,0.006231,0.033609
1114,0.012412,0.006231,0.07688
1115,0.012412,0.006231,0.004761
1116,-0.033523,-0.041091,-0.067357
1117,0.012412,-0.056865,-0.081781
1118,-0.102424,-0.056865,-0.096205
1119,-0.05649,-0.025317,-0.081781
1120,-0.010555,-0.025317,-0.067357
1121,0.035379,-0.025317,-0.024086
1122,-0.05649,-0.056865,-0.009662
1123,0.035379,-0.025317,-0.024086
1124,-0.05649,-0.025317,-0.009662
1125,0.012412,-0.009543,-0.009662
1126,0.058346,-0.009543,-0.024086
1127,0.012412,-0.009543,-0.009662
1128,0.012412,0.006231,-0.009662
1129,0.058346,-0.025317,-0.024086
1130,-0.05649,-0.009543,-0.024086
1131,0.035379,0.006231,0.019185
1132,0.012412,0.006231,0.019185
1133,0.081313,-0.025317,0.033609
1134,0.012412,-0.025317,0.004761
1135,0.012412,-0.009543,0.019185
1136,-0.010555,0.006231,0.004761
1137,0.012412,-0.025317,-0.009662
1138,0.012412,-0.025317,-0.009662
1139,-0.010555,-0.025317,0.004761
1140,0.081313,-0.009543,-0.024086
1141,-0.010555,0.022005,-0.024086
1142,-0.010555,0.006231,-0.009662
1143,-0.05649,-0.009543,-0.024086
1144,0.012412,0.006231,-0.009662
1145,0.035379,-0.009543,-0.009662
1146,-0.010555,-0.009543,-0.009662
1147,0.012412,-0.025317,-0.024086
1148,0.081313,-0.025317,0.004761
1149,-0.010555,-0.025317,-0.009662
1150,-0.033523,-0.025317,0.004761
1151,-0.05649,-0.025317,-0.009662
1152,-0.010555,0.006231,-0.009662
1153,-0.010555,-0.025317,0.004761
1154,0.012412,-0.009543,0.004761
1155,0.035379,0.006231,0.019185
1156,0.058346,-0.025317,0.004761
1157,0.058346,-0.025317,0.004761
1158,0.012412,-0.009543,0.004761
1159,0.012412,-0.009543,0.019185
1160,0.081313,-0.009543,0.019185
1161,0.081313,0.006231,-0.009662
1162,0.058346,-0.025317,-0.009662
1163,0.058346,-0.041091,-0.009662
1164,0.035379,-0.041091,-0.009662
1165,-0.010555,-0.025317,0.004761
1166,-0.05649,-0.009543,0.004761
1167,-0.05649,-0.009543,0.019185
1168,-0.033523,0.022005,-0.009662
1169,-0.033523,0.006231,0.033609
1170,-0.010555,-0.009543,-0.009662
1171,-0.05649,-0.041091,-0.024086
1172,-0.010555,-0.025317,-0.03851
1173,-0.033523,-0.025317,-0.024086
1174,0.012412,-0.009543,-0.024086
1175,0.10428,0.006231,-0.024086
1176,0.10428,0.022005,-0.024086
1177,-0.033523,0.006231,-0.009662
1178,-0.05649,-0.041091,0.019185
1179,0.012412,-0.009543,0.004761
1180,0.012412,-0.025317,-0.009662
1181,0.035379,-0.025317,-0.009662
1182,0.035379,-0.009543,-0.009662
1183,0.058346,-0.009543,-0.009662
1184,0.012412,-0.041091,0.004761
1185,0.081313,-0.009543,0.004761
1186,0.081313,-0.009543,-0.009662
1187,0.058346,-0.009543,-0.009662
1188,-0.010555,-0.009543,0.004761
1189,0.081313,-0.025317,-0.009662
1190,0.058346,-0.025317,0.019185
1191,0.081313,0.006231,0.019185
1192,0.10428,0.006231,0.048033
1193,0.081313,-0.009543,0.004761
1194,-0.033523,-0.025317,-0.024086
1195,-0.033523,-0.009543,-0.052934
1196,-0.010555,0.006231,-0.052934
1197,-0.010555,-0.009543,-0.03851
1198,0.012412,-0.025317,-0.024086
1199,0.012412,-0.009543,-0.009662
1200,0.012412,-0.009543,0.004761
1201,0.081313,-0.056865,0.004761
1202,0.035379,-0.041091,0.004761
1203,0.012412,-0.009543,0.048033
1204,-0.010555,-0.025317,-0.024086
1205,-0.05649,-0.041091,-0.03851
1206,-0.079457,-0.056865,-0.03851
1207,0.012412,-0.025317,-0.009662
1208,0.058346,-0.025317,-0.009662
1209,-0.010555,-0.009543,0.004761
1210,-0.033523,-0.025317,-0.03851
1211,-0.033523,-0.025317,-0.03851
1212,-0.05649,-0.041091,-0.052934
1213,0.081313,0.006231,-0.009662
1214,0.012412,0.006231,-0.009662
1215,-0.05649,-0.009543,0.004761
1216,0.012412,0.006231,0.004761
1217,0.012412,-0.009543,0.004761
1218,0.081313,-0.009543,0.004761
1219,0.127248,0.022005,0.019185
1220,0.035379,0.006231,0.033609
1221,-0.010555,-0.009543,0.033609
1222,0.081313,0.006231,0.019185
1223,0.035379,-0.009543,0.019185
1224,-0.010555,0.006231,0.033609
1225,0.058346,-0.009543,-0.009662
1226,0.10428,-0.009543,-0.024086
1227,0.012412,-0.009543,-0.03851
1228,0.012412,-0.009543,-0.024086
1229,-0.033523,-0.025317,-0.03851
1230,0.012412,-0.025317,-0.024086
1231,0.012412,-0.009543,-0.03851
1232,-0.010555,-0.041091,-0.024086
1233,-0.010555,-0.009543,-0.024086
1234,0.012412,-0.025317,-0.009662
1235,0.012412,-0.041091,0.004761
1236,0.012412,0.006231,0.019185
1237,-0.010555,-0.009543,0.019185
1238,-0.010555,0.006231,0.048033
1239,-0.033523,0.006231,0.019185
1240,-0.05649,-0.009543,0.004761
1241,0.012412,-0.009543,0.019185
1242,0.035379,-0.009543,0.004761
1243,-0.033523,-0.025317,0.004761
1244,0.012412,-0.009543,-0.03851
1245,0.058346,-0.009543,-0.024086
1246,-0.05649,-0.009543,-0.009662
1247,0.012412,0.006231,-0.009662
1248,0.012412,-0.025317,-0.009662
1249,0.035379,-0.009543,0.004761
1250,0.012412,0.006231,0.019185
1251,-0.033523,-0.025317,-0.009662
1252,0.035379,-0.009543,-0.009662
1253,0.012412,-0.009543,-0.024086
1254,0.012412,-0.009543,-0.009662
1255,-0.010555,-0.009543,-0.024086
1256,0.012412,-0.009543,-0.009662
1257,0.012412,-0.009543,-0.024086
1258,-0.010555,-0.009543,0.004761
1259,-0.033523,-0.025317,-0.009662
1260,0.035379,-0.009543,-0.009662
1261,0.012412,-0.009543,-0.009662
1262,0.012412,-0.009543,0.004761
1263,0.012412,-0.025317,0.004761
1264,0.058346,-0.009543,-0.009662
1265,0.035379,-0.009543,-0.009662
1266,-0.010555,-0.009543,-0.009662
1267,-0.010555,-0.009543,0.004761
1268,-0.010555,0.006231,0.004761
1269,0.058346,-0.009543,0.004761
1270,-0.033523,0.006231,-0.009662
1271,-0.05649,0.006231,0.004761
1272,-0.010555,-0.025317,-0.024086
1273,-0.010555,-0.025317,-0.024086
1274,-0.010555,-0.041091,-0.024086
1275,-0.033523,-0.025317,-0.009662
1276,0.012412,-0.009543,-0.024086
1277,0.058346,-0.009543,0.004761
1278,-0.033523,-0.025317,-0.024086
1279,-0.010555,-0.009543,0.004761
1280,0.012412,0.022005,0.004761
1281,0.012412,-0.025317,-0.009662
1282,0.035379,-0.041091,-0.024086
1283,0.012412,-0.025317,-0.009662
1284,-0.010555,-0.009543,-0.009662
1285,-0.010555,0.006231,-0.009662
1286,-0.033523,-0.025317,-0.024086
1287,0.035379,-0.009543,-0.024086
1288,0.012412,-0.025317,-0.009662
1289,0.035379,-0.009543,0.004761
1290,0.035379,0.006231,0.019185
1291,0.035379,-0.025317,0.004761
1292,0.035379,-0.025317,0.004761
1293,0.058346,-0.009543,0.004761
1294,-0.010555,-0.009543,0.019185
1295,0.012412,-0.009543,0.033609
1296,0.035379,0.006231,0.004761
1297,0.012412,-0.009543,-0.024086
1298,-0.010555,-0.009543,-0.009662
1299,-0.010555,0.006231,0.004761
1300,-0.033523,-0.009543,-0.009662
1301,0.035379,-0.041091,-0.03851
1302,0.035379,-0.025317,-0.024086
1303,-0.010555,-0.009543,-0.009662
1304,-0.010555,-0.009543,-0.009662
1305,0.012412,-0.025317,-0.009662
1306,0.035379,-0.025317,0.004761
1307,0.012412,-0.009543,0.004761
1308,-0.033523,-0.025317,-0.009662
1309,-0.033523,-0.025317,-0.024086
1310,-0.033523,-0.025317,-0.024086
1311,0.035379,-0.009543,-0.024086
1312,0.035379,-0.009543,-0.024086
1313,-0.010555,-0.009543,-0.009662
1314,0.012412,0.006231,-0.024086
1315,0.035379,-0.025317,-0.024086
1316,0.035379,-0.025317,-0.024086
1317,0.058346,0.006231,0.004761
1318,0.081313,-0.009543,-0.009662
1319,0.058346,-0.009543,-0.009662
1320,0.035379,0.006231,-0.009662
1321,-0.010555,-0.009543,0.004761
1322,0.012412,-0.009543,-0.024086
1323,0.058346,-0.009543,0.019185
1324,0.035379,-0.009543,0.004761
1325,0.012412,-0.009543,0.004761
1326,0.081313,-0.009543,-0.009662
1327,0.058346,-0.025317,-0.009662
1328,-0.010555,0.006231,0.004761
1329,0.012412,0.006231,-0.009662
1330,-0.033523,0.006231,0.004761
1331,0.012412,-0.009543,-0.024086
1332,0.012412,-0.041091,-0.009662
1333,-0.033523,-0.041091,-0.024086
1334,0.035379,-0.025317,-0.009662
1335,0.058346,-0.009543,-0.009662
1336,0.012412,-0.009543,0.004761
1337,-0.079457,-0.009543,-0.009662
1338,-0.079457,-0.009543,0.004761
1339,-0.05649,-0.025317,-0.009662
1340,-0.033523,-0.025317,0.004761
1341,-0.05649,-0.009543,-0.009662
1342,0.035379,-0.009543,-0.009662
1343,0.058346,0.022005,-0.024086
1344,0.012412,-0.009543,-0.009662
1345,0.058346,-0.009543,-0.009662
1346,0.058346,-0.025317,-0.009662
1347,0.012412,0.006231,0.004761
1348,-0.033523,-0.009543,0.004761
1349,0.012412,0.006231,0.004761
1350,0.035379,-0.009543,0.004761
1351,0.012412,0.006231,0.004761
1352,-0.033523,-0.009543,-0.009662
1353,-0.010555,-0.025317,0.004761
1354,-0.033523,-0.009543,-0.009662
1355,0.012412,-0.025317,0.004761
1356,-0.033523,-0.009543,0.004761
1357,-0.010555,-0.025317,-0.009662
1358,0.012412,-0.009543,-0.024086
1359,-0.010555,-0.025317,0.004761
1360,0.012412,-0.009543,-0.009662
1361,0.012412,-0.025317,0.004761
1362,0.035379,0.006231,0.004761
1363,0.012412,-0.025317,-0.009662
1364,0.058346,0.006231,-0.009662
1365,-0.010555,-0.025317,-0.024086
1366,-0.033523,-0.025317,-0.009662
1367,-0.010555,-0.009543,-0.024086
1368,-0.033523,-0.025317,-0.009662
1369,-0.079457,-0.025317,-0.009662
1370,0.035379,-0.025317,-0.009662
1371,-0.033523,-0.025317,-0.024086
1372,-0.05649,-0.009543,-0.009662
1373,0.012412,-0.009543,-0.009662
1374,-0.010555,-0.009543,-0.009662
1375,0.035379,-0.009543,-0.009662
1376,-0.033523,-0.009543,0.004761
1377,-0.033523,0.006231,-0.03851
1378,0.012412,-0.009543,-0.024086
1379,-0.033523,-0.041091,-0.024086
1380,-0.010555,-0.009543,-0.009662
1381,-0.010555,-0.025317,0.004761
1382,0.012412,-0.041091,-0.009662
1383,0.058346,0.006231,0.004761
1384,0.012412,0.006231,-0.024086
1385,0.012412,-0.009543,0.004761
1386,0.012412,-0.009543,-0.009662
1387,0.012412,-0.025317,-0.009662
1388,0.012412,-0.025317,-0.009662
1389,0.035379,0.006231,-0.024086
1390,0.035379,-0.009543,-0.024086
1391,0.012412,0.022005,-0.009662
1392,0.035379,-0.025317,-0.024086
1393,0.058346,-0.009543,-0.009662
1394,-0.010555,-0.009543,-0.009662
1395,0.035379,-0.025317,0.004761
1396,-0.010555,-0.025317,0.004761
1397,0.058346,-0.025317,-0.009662
1398,0.058346,-0.025317,-0.024086
1399,0.012412,-0.025317,0.004761
1400,0.012412,-0.025317,0.004761
1401,0.058346,-0.025317,0.004761
1402,-0.010555,-0.009543,-0.009662
1403,0.012412,-0.009543,-0.024086
1404,-0.079457,-0.009543,-0.009662
1405,-0.010555,0.006231,-0.009662
1406,0.012412,-0.009543,0.004761
1407,-0.033523,-0.009543,-0.009662
1408,0.035379,0.006231,0.004761
1409,-0.010555,-0.025317,-0.009662
1410,0.012412,-0.009543,0.004761
1411,-0.033523,-0.025317,-0.009662
1412,0.035379,-0.009543,0.019185
1413,0.081313,-0.009543,0.004761
1414,0.081313,-0.025317,-0.009662
1415,0.012412,-0.009543,-0.009662
1416,0.058346,-0.009543,-0.009662
1417,0.081313,-0.009543,-0.009662
1418,0.012412,-0.009543,-0.009662
1419,0.035379,-0.009543,0.004761
1420,-0.010555,-0.009543,0.019185
1421,-0.010555,-0.025317,0.033609
1422,0.012412,0.006231,0.004761
1423,0.012412,-0.025317,0.019185
1424,0.058346,-0.009543,-0.009662
1425,0.035379,-0.025317,-0.024086
1426,0.058346,-0.041091,-0.024086
1427,-0.010555,-0.025317,-0.03851
1428,0.035379,-0.025317,-0.009662
1429,0.012412,-0.009543,-0.009662
1430,0.012412,0.006231,-0.024086
1431,0.012412,-0.009543,-0.009662
1432,0.012412,-0.025317,-0.024086
1433,0.035379,-0.025317,-0.009662
1434,0.081313,-0.041091,0.004761
1435,0.012412,0.006231,0.019185
1436,-0.010555,0.022005,0.048033
1437,0.012412,-0.009543,-0.009662
1438,0.012412,-0.009543,-0.009662
1439,-0.125391,0.006231,-0.009662
1440,0.035379,-0.025317,-0.024086
1441,0.012412,-0.041091,-0.024086
1442,0.012412,-0.025317,-0.024086
1443,0.012412,0.006231,-0.024086
1444,0.035379,-0.009543,-0.009662
1445,-0.010555,-0.009543,-0.024086
1446,-0.033523,-0.025317,-0.009662
1447,-0.010555,-0.009543,-0.024086
1448,0.035379,0.006231,0.004761
1449,0.058346,-0.025317,-0.009662
1450,0.035379,-0.009543,0.004761
1451,0.012412,0.006231,-0.009662
1452,0.035379,0.006231,0.004761
1453,0.035379,-0.009543,0.004761
1454,0.035379,-0.025317,-0.024086
1455,0.058346,-0.041091,-0.009662
1456,0.012412,-0.025317,0.004761
1457,-0.010555,-0.009543,-0.009662
1458,-0.010555,-0.009543,-0.024086
1459,-0.033523,-0.041091,-0.03851
1460,0.012412,-0.009543,-0.009662
1461,-0.033523,-0.009543,0.004761
1462,-0.05649,-0.009543,-0.009662
1463,0.035379,-0.009543,0.004761
1464,0.012412,-0.009543,0.004761
1465,-0.010555,-0.025317,0.004761
1466,-0.010555,-0.025317,-0.009662
1467,0.012412,-0.009543,0.019185
1468,-0.010555,0.006231,0.004761
1469,-0.010555,-0.009543,0.004761
1470,-0.05649,-0.009543,-0.024086
1471,0.012412,-0.009543,-0.009662
1472,-0.010555,-0.009543,-0.009662
1473,-0.033523,-0.009543,-0.009662
1474,-0.033523,-0.025317,-0.009662
1475,0.058346,-0.009543,0.048033
1476,0.012412,-0.009543,-0.009662
1477,-0.010555,0.006231,-0.009662
1478,-0.033523,0.022005,0.004761
1479,0.035379,0.006231,0.019185
1480,0.035379,0.006231,0.004761
1481,0.012412,-0.009543,-0.009662
1482,0.058346,-0.025317,-0.009662
1483,0.081313,-0.009543,-0.009662
1484,0.012412,-0.025317,-0.03851
1485,-0.033523,-0.025317,-0.009662
1486,0.035379,-0.025317,-0.009662
1487,-0.010555,-0.041091,-0.009662
1488,0.035379,0.022005,0.004761
1489,0.035379,-0.009543,-0.024086
1490,0.058346,-0.009543,-0.009662
1491,-0.033523,-0.009543,-0.009662
1492,-0.010555,-0.009543,0.004761
1493,-0.010555,-0.009543,-0.024086
1494,-0.033523,0.006231,0.019185
1495,-0.033523,-0.025317,0.004761
1496,-0.05649,0.006231,-0.009662
1497,-0.033523,-0.009543,0.004761
1498,0.035379,-0.025317,-0.024086
1499,-0.010555,-0.025317,-0.009662
1500,0.035379,-0.025317,-0.009662
1501,-0.033523,-0.009543,0.019185
1502,0.012412,-0.025317,0.004761
1503,-0.033523,-0.025317,0.004761
1504,-0.010555,-0.025317,-0.024086
1505,-0.033523,-0.009543,-0.024086
1506,-0.010555,-0.025317,-0.024086
1507,0.035379,0.006231,-0.009662
1508,-0.010555,-0.009543,0.004761
1509,0.012412,-0.009543,0.004761
1510,0.012412,-0.009543,-0.009662
1511,0.058346,-0.009543,-0.009662
1512,0.012412,0.006231,-0.009662
1513,0.012412,0.006231,-0.009662
1514,0.035379,-0.009543,-0.024086
1515,0.058346,-0.025317,0.004761
1516,0.035379,-0.025317,0.004761
1517,0.012412,-0.025317,-0.009662
1518,0.058346,-0.025317,0.004761
1519,0.012412,-0.009543,-0.009662
1520,0.035379,-0.009543,0.004761
1521,0.081313,-0.025317,0.048033
1522,0.081313,0.022005,0.004761
1523,-0.010555,-0.025317,0.004761
1524,0.012412,-0.009543,-0.009662
1525,0.035379,-0.025317,-0.024086
1526,0.012412,-0.009543,-0.009662
1527,0.012412,-0.009543,-0.009662
1528,0.035379,-0.025317,-0.009662
1529,0.012412,-0.025317,0.019185
1530,0.012412,-0.009543,-0.009662
1531,-0.033523,0.006231,0.004761
1532,0.012412,-0.009543,-0.009662
1533,0.012412,-0.009543,-0.009662
1534,0.035379,-0.041091,0.004761
1535,0.035379,-0.009543,0.004761
1536,0.012412,-0.025317,-0.009662
1537,0.035379,-0.009543,-0.024086
1538,0.035379,-0.009543,-0.009662
1539,-0.033523,-0.009543,0.004761
1540,-0.079457,-0.009543,-0.009662
1541,-0.010555,-0.009543,-0.009662
1542,0.081313,0.006231,0.019185
1543,0.035379,-0.009543,-0.009662
1544,0.012412,-0.025317,-0.024086
1545,0.012412,-0.025317,-0.024086
1546,0.081313,-0.009543,-0.024086
1547,0.058346,-0.025317,-0.009662
1548,0.035379,-0.025317,0.004761
1549,0.058346,-0.009543,0.004761
1550,0.081313,-0.009543,0.004761
1551,0.035379,-0.025317,-0.009662
1552,0.058346,-0.009543,-0.009662
1553,-0.010555,0.006231,-0.009662
1554,0.035379,-0.009543,-0.009662
1555,0.012412,-0.025317,-0.009662
1556,0.035379,-0.009543,0.004761
1557,0.035379,-0.009543,0.004761
1558,0.012412,-0.025317,-0.009662
1559,-0.010555,-0.009543,-0.024086
1560,0.035379,-0.025317,-0.009662
1561,0.035379,-0.025317,-0.009662
1562,0.035379,0.006231,0.004761
1563,-0.010555,-0.009543,0.004761
1564,-0.010555,0.006231,-0.009662
1565,0.035379,-0.009543,-0.009662
1566,-0.010555,-0.025317,-0.009662
1567,-0.033523,-0.009543,-0.009662
1568,-0.010555,-0.009543,0.004761
1569,-0.010555,-0.025317,0.004761
1570,-0.033523,-0.009543,-0.009662
1571,0.058346,-0.009543,-0.009662
1572,0.012412,-0.009543,-0.009662
1573,-0.010555,-0.009543,-0.009662
1574,-0.05649,-0.025317,-0.009662
1575,0.035379,0.006231,-0.009662
1576,-0.010555,-0.025317,-0.009662
1577,0.012412,-0.009543,0.004761
1578,0.081313,0.006231,0.019185
1579,0.012412,-0.025317,0.019185
1580,0.035379,-0.009543,0.019185
1581,0.012412,-0.009543,-0.009662
1582,-0.010555,-0.025317,-0.009662
1583,0.012412,0.006231,0.004761
1584,0.035379,-0.009543,-0.009662
1585,0.012412,0.006231,-0.009662
1586,0.058346,-0.009543,0.004761
1587,0.035379,-0.041091,-0.009662
1588,0.058346,-0.025317,-0.009662
1589,-0.010555,-0.025317,-0.024086
1590,-0.05649,-0.009543,-0.009662
1591,-0.033523,-0.025317,-0.009662
1592,0.035379,-0.009543,0.004761
1593,0.012412,-0.009543,-0.009662
1594,-0.033523,-0.009543,-0.009662
1595,-0.05649,-0.025317,-0.009662
1596,0.012412,-0.009543,-0.009662
1597,0.035379,-0.025317,0.004761
1598,0.012412,-0.025317,0.004761
1599,0.012412,-0.009543,0.004761
1600,0.012412,-0.009543,0.004761
1601,0.012412,0.006231,-0.009662
1602,-0.05649,-0.009543,0.004761
1603,-0.033523,-0.009543,0.019185
1604,0.035379,0.006231,-0.024086
1605,0.012412,-0.025317,-0.009662
1606,-0.010555,-0.009543,-0.009662
1607,-0.010555,-0.009543,-0.009662
1608,0.035379,-0.009543,-0.009662
1609,0.058346,-0.009543,-0.009662
1610,0.012412,-0.009543,0.004761
1611,0.035379,0.006231,-0.009662
1612,0.012412,-0.025317,0.004761
1613,0.035379,-0.009543,0.004761
1614,0.035379,-0.009543,-0.009662
1615,-0.010555,-0.009543,0.004761
1616,0.058346,-0.009543,-0.009662
1617,-0.010555,-0.009543,-0.009662
1618,-0.010555,-0.009543,0.004761
1619,0.035379,-0.025317,0.004761
1620,0.035379,-0.025317,-0.009662
1621,0.012412,-0.009543,0.004761
1622,0.012412,-0.009543,-0.009662
1623,0.012412,-0.009543,-0.009662
1624,-0.033523,-0.025317,0.019185
1625,-0.010555,-0.025317,0.004761
1626,-0.05649,-0.025317,0.004761
1627,-0.010555,-0.009543,0.004761
1628,0.012412,-0.009543,0.019185
1629,0.035379,0.006231,0.004761
1630,-0.010555,-0.025317,-0.009662
1631,0.012412,-0.009543,-0.024086
1632,-0.033523,-0.025317,-0.024086
1633,-0.010555,-0.025317,-0.009662
1634,-0.010555,-0.025317,-0.009662
1635,-0.033523,-0.009543,-0.009662
1636,-0.05649,-0.009543,-0.009662
1637,-0.010555,-0.025317,-0.009662
1638,-0.010555,-0.009543,-0.009662
1639,-0.010555,-0.009543,-0.024086
1640,0.058346,-0.009543,-0.024086
1641,0.012412,-0.009543,-0.024086
1642,-0.010555,-0.025317,-0.009662
1643,0.012412,0.006231,0.004761
1644,0.035379,0.006231,0.004761
1645,0.012412,0.006231,0.004761
1646,0.035379,-0.009543,0.004761
1647,-0.010555,-0.025317,0.004761
1648,0.035379,-0.009543,-0.009662
1649,0.058346,-0.009543,-0.009662
1650,0.035379,-0.025317,-0.009662
1651,0.058346,-0.009543,-0.009662
1652,0.012412,-0.009543,-0.009662
1653,-0.033523,-0.025317,-0.009662
1654,0.012412,-0.025317,0.004761
1655,0.058346,-0.025317,-0.009662
1656,0.058346,-0.009543,-0.009662
1657,-0.010555,-0.009543,-0.009662
1658,-0.033523,-0.025317,-0.009662
1659,-0.033523,-0.009543,-0.009662
1660,-0.033523,-0.009543,-0.009662
1661,0.035379,-0.009543,0.004761
1662,-0.033523,-0.009543,-0.009662
1663,0.012412,-0.041091,-0.024086
1664,-0.010555,-0.041091,-0.024086
1665,-0.010555,-0.009543,-0.024086
1666,0.012412,0.006231,-0.009662
1667,-0.05649,-0.025317,-0.009662
1668,0.012412,0.006231,0.004761
1669,-0.010555,0.006231,-0.009662
1670,0.035379,-0.025317,-0.024086
1671,0.012412,-0.009543,-0.009662
1672,-0.010555,0.006231,0.019185
1673,-0.05649,-0.009543,-0.009662
1674,0.127248,-0.009543,0.004761
1675,0.035379,0.006231,0.048033
1676,0.012412,-0.009543,-0.009662
1677,0.012412,-0.041091,-0.024086
1678,-0.033523,-0.009543,-0.009662
1679,0.035379,-0.025317,0.004761
1680,0.012412,-0.025317,-0.009662
1681,-0.033523,-0.025317,0.004761
1682,0.081313,-0.025317,-0.024086
1683,0.012412,-0.009543,-0.009662
1684,-0.010555,-0.009543,0.004761
1685,0.058346,0.006231,-0.009662
1686,-0.010555,0.006231,-0.024086
1687,0.058346,-0.025317,-0.009662
1688,-0.010555,-0.025317,0.004761
1689,0.058346,-0.009543,-0.009662
1690,0.012412,-0.009543,-0.009662
1691,-0.010555,-0.009543,0.004761
1692,-0.079457,-0.009543,0.019185
1693,-0.010555,-0.009543,0.033609
1694,-0.010555,-0.009543,-0.009662
1695,-0.010555,-0.009543,0.004761
1696,-0.05649,-0.009543,-0.009662
1697,-0.033523,-0.009543,-0.009662
1698,0.012412,-0.025317,-0.009662
1699,-0.033523,-0.025317,-0.009662
1700,-0.05649,-0.009543,-0.009662
1701,-0.033523,-0.025317,-0.009662
1702,-0.010555,-0.009543,-0.009662
1703,-0.033523,-0.025317,-0.009662
1704,-0.05649,-0.009543,-0.009662
1705,0.035379,-0.009543,-0.024086
1706,0.012412,-0.025317,0.004761
1707,0.035379,-0.009543,-0.009662
1708,-0.010555,-0.009543,-0.009662
1709,0.012412,-0.009543,0.004761
1710,0.035379,-0.009543,-0.009662
1711,0.012412,-0.009543,-0.009662
1712,0.058346,-0.025317,-0.024086
1713,0.035379,-0.025317,0.004761
1714,0.012412,-0.041091,0.004761
1715,-0.010555,-0.009543,-0.009662
1716,0.012412,-0.025317,0.019185
1717,0.035379,0.006231,0.048033
1718,0.012412,-0.009543,0.004761
1719,-0.010555,0.006231,0.004761
1720,0.012412,-0.009543,-0.024086
1721,-0.010555,-0.041091,-0.009662
1722,0.012412,-0.025317,-0.024086
1723,0.035379,-0.009543,-0.024086
1724,-0.05649,-0.009543,-0.024086
1725,-0.010555,-0.025317,0.004761
1726,-0.033523,-0.025317,-0.024086
1727,-0.033523,-0.009543,0.004761
1728,0.012412,-0.025317,0.004761
1729,-0.010555,0.006231,-0.009662
1730,0.012412,-0.025317,-0.024086
1731,-0.05649,-0.025317,-0.009662
1732,0.012412,-0.009543,-0.009662
1733,-0.010555,0.006231,0.004761
1734,-0.05649,-0.009543,0.019185
1735,0.058346,-0.009543,-0.009662
1736,0.035379,-0.025317,0.004761
1737,0.035379,-0.009543,0.004761
1738,-0.079457,-0.009543,0.004761
1739,-0.033523,-0.009543,-0.009662
1740,-0.010555,-0.009543,-0.024086
1741,-0.033523,-0.025317,-0.009662
1742,0.012412,-0.009543,-0.009662
1743,0.035379,0.006231,-0.009662
1744,0.035379,-0.009543,-0.009662
1745,-0.033523,-0.025317,-0.009662
1746,0.035379,-0.025317,-0.009662
1747,0.012412,-0.025317,-0.009662
1748,0.058346,-0.025317,-0.009662
1749,0.058346,0.006231,0.019185
1750,-0.010555,0.006231,-0.024086
1751,0.035379,0.006231,0.004761
1752,-0.010555,-0.009543,0.019185
1753,-0.010555,-0.009543,-0.009662
1754,-0.010555,-0.041091,-0.009662
1755,-0.033523,-0.009543,-0.009662
1756,0.012412,-0.009543,-0.009662
1757,0.012412,0.006231,-0.009662
1758,-0.010555,-0.025317,0.004761
1759,-0.079457,-0.009543,0.004761
1760,0.035379,-0.025317,-0.009662
1761,-0.05649,-0.009543,0.004761
1762,-0.079457,-0.041091,-0.024086
1763,-0.033523,-0.025317,-0.024086
1764,0.058346,-0.025317,-0.024086
1765,-0.05649,-0.009543,0.004761
1766,-0.010555,-0.025317,0.004761
1767,-0.033523,-0.009543,0.004761
1768,0.035379,-0.025317,-0.009662
1769,-0.033523,-0.025317,-0.009662
1770,0.012412,-0.025317,-0.009662
1771,0.035379,-0.041091,-0.009662
1772,0.058346,0.006231,0.004761
1773,0.012412,-0.009543,0.004761
1774,0.035379,-0.009543,0.048033
1775,-0.010555,-0.025317,-0.009662
1776,0.012412,-0.009543,-0.009662
1777,-0.010555,-0.009543,0.004761
1778,0.058346,-0.009543,0.004761
1779,0.012412,-0.009543,-0.009662
1780,0.035379,-0.009543,0.004761
1781,-0.010555,0.006231,0.004761
1782,0.012412,-0.025317,0.004761
1783,0.012412,0.006231,-0.009662
1784,0.012412,-0.025317,-0.009662
1785,-0.010555,-0.025317,-0.024086
1786,-0.010555,-0.025317,-0.009662
1787,0.012412,-0.025317,-0.009662
1788,-0.033523,-0.009543,0.004761
1789,-0.033523,0.006231,0.004761
1790,0.012412,-0.025317,-0.009662
1791,-0.05649,-0.009543,0.004761
1792,0.012412,-0.041091,-0.009662
1793,-0.033523,-0.009543,0.004761
1794,0.035379,-0.009543,-0.024086
1795,-0.05649,-0.009543,0.004761
1796,-0.033523,-0.009543,0.004761
1797,-0.010555,-0.025317,0.004761
1798,0.035379,-0.009543,0.004761
1799,0.012412,-0.009543,0.004761
1800,-0.05649,-0.009543,-0.03851
1801,-0.010555,-0.009543,-0.024086
1802,0.012412,-0.009543,0.004761
1803,0.035379,-0.025317,-0.009662
1804,0.058346,-0.009543,-0.009662
1805,0.012412,-0.009543,-0.009662
1806,0.035379,-0.025317,0.004761
1807,0.012412,-0.009543,-0.009662
1808,0.012412,-0.009543,0.004761
1809,0.035379,-0.025317,-0.024086
1810,0.012412,-0.009543,-0.009662
1811,0.012412,-0.009543,0.019185
1812,0.012412,-0.009543,0.019185
1813,-0.010555,-0.009543,0.004761
1814,0.058346,-0.009543,0.004761
1815,-0.010555,-0.025317,0.019185
1816,-0.010555,-0.025317,0.004761
1817,-0.033523,-0.009543,-0.009662
1818,0.012412,-0.025317,0.004761
1819,-0.010555,-0.009543,-0.009662
1820,-0.010555,0.006231,0.004761
1821,0.035379,-0.009543,-0.009662
1822,0.012412,-0.009543,0.004761
1823,0.058346,-0.009543,-0.009662
1824,-0.05649,-0.025317,-0.009662
1825,-0.079457,-0.025317,0.004761
1826,-0.033523,-0.009543,-0.009662
1827,-0.05649,0.006231,0.004761
1828,0.012412,0.069328,0.004761
1829,-0.010555,-0.025317,0.004761
1830,-0.010555,-0.025317,0.004761
1831,-0.05649,-0.025317,0.004761
1832,0.012412,-0.009543,-0.009662
1833,0.012412,-0.025317,0.004761
1834,-0.033523,-0.009543,-0.009662
1835,0.035379,0.006231,-0.009662
1836,0.012412,-0.009543,-0.009662
1837,0.012412,-0.009543,-0.024086
1838,0.035379,0.006231,-0.009662
1839,0.012412,-0.009543,-0.009662
1840,0.035379,-0.009543,-0.009662
1841,0.035379,0.006231,-0.024086
1842,0.012412,-0.025317,-0.024086
1843,-0.010555,-0.009543,-0.024086
1844,0.035379,-0.009543,0.004761
1845,0.035379,-0.041091,-0.009662
1846,0.012412,-0.041091,0.004761
1847,-0.010555,-0.009543,-0.009662
1848,-0.033523,-0.009543,0.004761
1849,0.058346,-0.025317,0.004761
1850,0.058346,-0.025317,0.004761
1851,-0.010555,-0.009543,0.004761
1852,-0.010555,-0.025317,-0.009662
1853,-0.010555,-0.041091,-0.009662
1854,0.058346,0.006231,0.019185
1855,-0.010555,-0.009543,0.004761
1856,-0.05649,-0.009543,-0.009662
1857,-0.05649,-0.009543,0.004761
1858,-0.033523,-0.009543,-0.009662
1859,-0.010555,-0.009543,-0.009662
1860,-0.010555,-0.025317,-0.024086
1861,0.012412,-0.025317,0.004761
1862,-0.010555,0.006231,-0.009662
1863,-0.010555,-0.009543,0.004761
1864,0.058346,-0.009543,-0.009662
1865,0.012412,-0.009543,0.004761
1866,0.035379,-0.025317,0.019185
1867,-0.010555,0.006231,0.004761
1868,0.012412,-0.025317,-0.009662
1869,-0.010555,-0.009543,-0.009662
1870,0.035379,-0.009543,0.019185
1871,0.012412,-0.041091,0.004761
1872,0.035379,-0.009543,0.004761
1873,0.035379,-0.009543,-0.009662
1874,0.012412,-0.025317,0.004761
1875,0.035379,-0.009543,0.004761
1876,0.035379,-0.009543,0.019185
1877,0.035379,-0.009543,0.004761
1878,0.012412,-0.009543,0.004761
1879,-0.010555,0.006231,-0.009662
1880,0.012412,0.022005,0.004761
1881,0.012412,-0.025317,-0.009662
1882,-0.010555,0.006231,-0.009662
1883,-0.033523,-0.009543,-0.009662
1884,0.035379,-0.009543,-0.009662
1885,-0.033523,-0.025317,-0.024086
1886,-0.033523,-0.009543,-0.009662
1887,-0.010555,0.006231,-0.024086
1888,0.012412,-0.025317,-0.009662
1889,-0.010555,-0.025317,-0.009662
1890,-0.05649,-0.009543,-0.024086
1891,-0.033523,-0.025317,-0.009662
1892,0.012412,-0.056865,-0.024086
1893,-0.010555,-0.009543,0.004761
1894,-0.010555,-0.009543,0.004761
1895,-0.010555,0.006231,0.004761
1896,0.012412,-0.025317,0.004761
1897,0.035379,0.022005,0.004761
1898,-0.010555,-0.009543,-0.009662
1899,0.012412,-0.009543,0.004761
1900,0.035379,-0.009543,0.004761
1901,0.035379,-0.009543,-0.009662
1902,0.012412,0.006231,0.019185
1903,0.035379,-0.009543,0.019185
1904,0.150215,-0.009543,0.004761
1905,-0.010555,-0.009543,-0.024086
1906,-0.033523,-0.009543,-0.024086
1907,0.012412,-0.009543,-0.009662
1908,0.012412,-0.025317,-0.009662
1909,0.012412,-0.025317,-0.009662
1910,-0.010555,-0.025317,-0.009662
1911,-0.033523,-0.009543,-0.009662
1912,0.012412,-0.009543,0.004761
1913,0.035379,-0.025317,0.004761
1914,-0.05649,-0.025317,0.019185
1915,-0.033523,0.006231,0.004761
1916,0.012412,-0.009543,-0.009662
1917,0.058346,0.006231,0.004761
1918,0.012412,-0.009543,-0.009662
1919,-0.05649,-0.009543,-0.009662
1920,-0.033523,-0.009543,0.004761
1921,-0.010555,-0.025317,-0.024086
1922,-0.05649,-0.025317,-0.009662
1923,-0.010555,-0.009543,-0.009662
1924,-0.033523,-0.009543,0.004761
1925,-0.010555,-0.025317,-0.009662
1926,0.012412,0.006231,-0.009662
1927,0.012412,-0.009543,0.004761
1928,-0.010555,-0.009543,-0.024086
1929,0.012412,-0.009543,-0.009662
1930,0.012412,0.006231,-0.009662
1931,0.012412,-0.009543,-0.009662
1932,0.012412,0.006231,0.004761
1933,0.058346,-0.009543,0.004761
1934,0.012412,-0.009543,0.004761
1935,0.012412,-0.009543,0.004761
1936,0.012412,-0.009543,-0.009662
1937,0.012412,-0.009543,0.004761
1938,0.012412,-0.009543,-0.009662
1939,0.035379,-0.009543,0.004761
1940,-0.010555,0.006231,0.004761
1941,0.081313,0.006231,-0.009662
1942,0.081313,-0.009543,-0.024086
1943,0.012412,0.006231,0.004761
1944,-0.010555,-0.009543,0.004761
1945,-0.079457,-0.009543,-0.009662
1946,0.035379,-0.009543,-0.009662
1947,-0.010555,-0.041091,0.004761
1948,-0.033523,-0.025317,0.019185
1949,-0.033523,-0.009543,-0.024086
1950,-0.033523,-0.025317,-0.009662
1951,0.012412,-0.009543,-0.009662
1952,0.035379,-0.009543,-0.009662
1953,0.012412,-0.025317,-0.009662
1954,0.012412,-0.025317,0.004761
1955,-0.033523,-0.009543,-0.009662
1956,-0.05649,-0.009543,0.004761
1957,-0.05649,-0.009543,0.004761
1958,0.012412,-0.025317,0.019185
1959,0.012412,-0.009543,0.004761
1960,-0.05649,0.006231,-0.009662
1961,0.012412,-0.025317,-0.009662
1962,-0.033523,-0.009543,-0.024086
1963,0.012412,-0.009543,-0.009662
1964,-0.010555,-0.009543,-0.009662
1965,-0.010555,-0.009543,-0.009662
1966,-0.010555,0.006231,-0.009662
1967,0.058346,-0.009543,0.004761
1968,0.012412,-0.025317,-0.009662
1969,0.012412,-0.009543,-0.009662
1970,0.035379,-0.025317,-0.009662
1971,-0.010555,-0.009543,-0.024086
1972,-0.010555,-0.009543,-0.009662
1973,-0.079457,0.006231,-0.009662
1974,0.058346,-0.009543,-0.009662
1975,-0.010555,-0.009543,0.004761
1976,0.058346,-0.009543,0.019185
1977,0.012412,0.006231,0.033609
1978,0.058346,-0.041091,-0.009662
1979,-0.010555,-0.025317,-0.009662
1980,0.012412,0.022005,-0.009662
1981,0.035379,-0.025317,0.004761
1982,0.012412,-0.041091,-0.009662
1983,-0.033523,-0.025317,-0.024086
1984,-0.033523,-0.041091,-0.009662
1985,-0.033523,-0.009543,-0.009662
1986,-0.010555,-0.009543,0.019185
1987,-0.010555,-0.009543,-0.009662
1988,-0.033523,-0.025317,-0.009662
1989,-0.010555,-0.009543,-0.009662
1990,-0.010555,-0.009543,0.004761
1991,0.012412,-0.009543,-0.009662
1992,-0.033523,-0.009543,0.004761
1993,0.058346,0.006231,0.004761
1994,-0.010555,-0.009543,0.004761
1995,0.012412,-0.025317,-0.009662
1996,-0.010555,-0.009543,-0.009662
1997,-0.010555,-0.009543,-0.009662
1998,0.035379,-0.041091,-0.009662
1999,-0.010555,-0.009543,-0.009662
2000,-0.033523,-0.009543,-0.009662
2001,0.012412,-0.025317,-0.024086
2002,0.035379,-0.025317,-0.024086
2003,0.012412,-0.009543,-0.03851
2004,0.012412,-0.041091,-0.024086
2005,0.012412,-0.009543,-0.009662
2006,0.035379,-0.025317,0.019185
2007,-0.033523,-0.009543,0.019185
2008,-0.010555,-0.009543,-0.009662
2009,-0.010555,-0.041091,0.004761
2010,0.127248,-0.056865,-0.009662
2011,0.012412,-0.009543,-0.009662
2012,0.012412,-0.009543,0.004761
2013,0.035379,-0.009543,0.019185
2014,-0.033523,-0.009543,-0.009662
2015,-0.010555,-0.009543,-0.024086
2016,0.012412,-0.009543,-0.009662
2017,0.035379,-0.009543,0.004761
2018,0.012412,0.022005,-0.009662
2019,-0.05649,-0.025317,-0.024086
2020,-0.033523,0.022005,0.004761
2021,-0.010555,0.006231,-0.009662
2022,-0.033523,-0.009543,-0.009662
2023,-0.033523,-0.025317,-0.009662
2024,-0.010555,-0.009543,0.019185
2025,-0.010555,-0.009543,-0.009662
2026,0.058346,-0.025317,-0.009662
2027,-0.033523,-0.025317,0.004761
2028,-0.010555,0.006231,0.004761
2029,-0.010555,-0.009543,-0.024086
2030,-0.033523,-0.025317,-0.009662
2031,0.058346,0.006231,-0.009662
2032,0.012412,0.006231,-0.009662
2033,0.058346,-0.009543,-0.009662
2034,0.035379,-0.009543,0.004761
2035,0.035379,-0.025317,0.004761
2036,0.012412,-0.025317,-0.009662
2037,-0.010555,0.006231,-0.009662
2038,0.012412,-0.009543,0.004761
2039,-0.010555,-0.025317,0.019185
2040,-0.033523,-0.025317,0.004761
2041,0.081313,-0.009543,0.004761
2042,-0.033523,0.006231,-0.024086
2043,0.035379,-0.025317,-0.009662
2044,-0.010555,0.006231,-0.009662
2045,-0.033523,-0.041091,-0.009662
2046,0.012412,-0.025317,-0.009662
2047,0.012412,-0.009543,0.004761
2048,0.012412,-0.041091,-0.009662
2049,-0.079457,-0.009543,-0.024086
2050,0.012412,-0.041091,-0.024086
2051,0.012412,-0.025317,-0.009662
2052,-0.033523,-0.025317,0.004761
2053,0.012412,-0.009543,-0.024086
2054,0.012412,-0.009543,-0.024086
2055,0.012412,-0.025317,-0.009662
2056,-0.010555,0.006231,-0.009662
2057,-0.033523,-0.025317,-0.009662
2058,-0.05649,-0.009543,0.004761
2059,-0.05649,-0.009543,-0.009662
2060,-0.033523,0.006231,-0.009662
2061,-0.033523,-0.025317,-0.009662
2062,-0.010555,-0.025317,0.019185
2063,-0.079457,-0.009543,-0.009662
2064,0.035379,0.006231,0.004761
2065,0.035379,-0.025317,0.019185
2066,-0.010555,-0.009543,-0.009662
2067,0.012412,-0.009543,-0.009662
2068,-0.010555,-0.025317,-0.009662
2069,0.058346,-0.009543,-0.009662
2070,-0.033523,0.006231,0.004761
2071,-0.033523,0.006231,0.004761
2072,0.012412,0.006231,0.004761
2073,0.012412,0.006231,-0.009662
2074,0.012412,0.006231,-0.009662
2075,0.058346,-0.041091,-0.009662
2076,0.012412,-0.025317,0.004761
2077,-0.05649,-0.009543,0.019185
2078,0.012412,0.006231,-0.009662
2079,0.035379,-0.009543,-0.024086
2080,0.035379,-0.009543,-0.009662
2081,0.012412,-0.025317,-0.009662
2082,-0.033523,-0.025317,-0.009662
2083,-0.05649,-0.009543,0.019185
2084,0.035379,-0.025317,-0.009662
2085,-0.033523,-0.009543,0.004761
2086,-0.05649,-0.041091,0.004761
2087,-0.033523,-0.009543,-0.009662
2088,0.012412,-0.025317,-0.009662
2089,-0.010555,0.006231,-0.009662
2090,0.012412,0.006231,0.004761
2091,0.012412,-0.025317,-0.024086
2092,-0.033523,-0.009543,-0.009662
2093,-0.05649,-0.009543,-0.009662
2094,-0.010555,-0.009543,-0.024086
2095,-0.05649,-0.009543,-0.009662
2096,0.012412,-0.009543,0.048033
2097,-0.102424,-0.009543,-0.009662
2098,-0.010555,-0.009543,0.004761
2099,0.012412,-0.025317,-0.009662
2100,0.012412,-0.025317,-0.009662
2101,-0.010555,-0.025317,-0.009662
2102,-0.033523,-0.009543,-0.024086
2103,-0.010555,0.006231,0.019185
2104,0.035379,-0.025317,-0.024086
2105,-0.010555,-0.009543,0.004761
2106,0.035379,0.006231,-0.009662
2107,0.012412,0.069328,-0.024086
2108,0.035379,-0.009543,-0.009662
2109,-0.010555,-0.009543,0.004761
2110,0.012412,-0.009543,0.019185
2111,0.058346,-0.025317,-0.024086
2112,0.012412,-0.009543,-0.009662
2113,-0.033523,-0.025317,0.004761
2114,-0.033523,0.006231,0.004761
2115,0.035379,0.006231,0.004761
2116,0.035379,-0.009543,-0.009662
2117,0.012412,-0.025317,-0.009662
2118,0.035379,-0.009543,-0.009662
2119,0.012412,-0.009543,0.004761
2120,-0.05649,-0.009543,0.004761
2121,-0.033523,-0.041091,-0.009662
2122,0.012412,-0.025317,-0.009662
2123,0.035379,-0.025317,0.004761
2124,0.012412,-0.009543,0.004761
2125,-0.010555,-0.009543,-0.024086
2126,-0.010555,-0.009543,0.004761
2127,-0.010555,-0.025317,-0.009662
2128,-0.033523,-0.009543,0.004761
2129,-0.010555,-0.025317,0.004761
2130,0.012412,-0.025317,0.004761
2131,0.035379,-0.009543,0.004761
2132,0.012412,-0.025317,-0.009662
2133,0.035379,-0.025317,-0.009662
2134,-0.010555,-0.009543,0.004761
2135,0.058346,0.006231,0.004761
2136,-0.010555,-0.009543,-0.024086
2137,0.012412,-0.009543,-0.009662
2138,-0.033523,-0.025317,-0.009662
2139,-0.010555,-0.009543,-0.009662
2140,-0.033523,-0.009543,-0.009662
2141,-0.033523,-0.041091,-0.009662
2142,0.035379,-0.009543,-0.024086
2143,0.058346,-0.041091,-0.009662
2144,0.035379,-0.025317,-0.009662
2145,0.012412,-0.009543,0.004761
2146,0.012412,-0.009543,0.004761
2147,-0.010555,-0.009543,0.004761
2148,-0.010555,-0.009543,0.004761
2149,0.012412,-0.025317,-0.009662
2150,0.035379,0.006231,-0.009662
2151,0.035379,0.006231,-0.009662
2152,-0.033523,-0.009543,-0.009662
2153,-0.079457,0.006231,-0.009662
2154,-0.010555,-0.009543,0.019185
2155,-0.010555,-0.025317,0.004761
2156,-0.010555,0.022005,0.004761
2157,-0.033523,-0.009543,0.004761
2158,-0.010555,-0.009543,0.019185
2159,-0.033523,-0.009543,0.019185
2160,0.035379,0.006231,-0.009662
2161,-0.033523,-0.009543,0.004761
2162,0.035379,-0.025317,0.004761
2163,-0.010555,-0.009543,-0.009662
2164,-0.033523,-0.025317,-0.009662
2165,0.012412,0.006231,-0.024086
2166,-0.010555,-0.025317,-0.009662
2167,-0.033523,-0.009543,-0.024086
2168,-0.05649,-0.009543,-0.024086
2169,0.012412,-0.025317,-0.024086
2170,0.012412,-0.009543,-0.009662
2171,0.058346,-0.009543,0.004761
2172,-0.010555,-0.009543,-0.009662
2173,0.012412,-0.041091,-0.024086
2174,0.012412,-0.041091,-0.009662
2175,0.012412,-0.009543,-0.024086
2176,0.012412,-0.025317,-0.009662
2177,-0.033523,-0.009543,0.004761
2178,0.035379,-0.009543,0.004761
2179,0.035379,0.006231,0.004761
2180,-0.010555,-0.009543,0.004761
2181,0.058346,0.006231,0.019185
2182,-0.010555,-0.025317,-0.009662
2183,0.012412,-0.025317,-0.024086
2184,-0.033523,-0.025317,-0.009662
2185,0.012412,-0.025317,-0.024086
2186,0.035379,-0.009543,-0.024086
2187,-0.05649,-0.009543,0.004761
2188,-0.05649,0.006231,0.004761
2189,-0.079457,0.006231,0.019185
2190,-0.010555,-0.009543,-0.024086
2191,-0.010555,-0.025317,0.004761
2192,-0.05649,-0.009543,0.004761
2193,-0.010555,-0.009543,-0.009662
2194,0.012412,0.006231,0.004761
2195,-0.033523,-0.009543,0.004761
2196,-0.033523,0.006231,-0.009662
2197,0.058346,-0.009543,-0.009662
2198,-0.010555,-0.009543,-0.024086
2199,-0.033523,-0.025317,-0.009662
2200,-0.010555,0.006231,-0.009662
2201,-0.033523,-0.009543,-0.009662
2202,0.012412,-0.009543,-0.009662
2203,-0.05649,-0.041091,-0.009662
2204,0.035379,-0.025317,0.004761
2205,-0.010555,-0.009543,-0.024086
2206,0.012412,-0.025317,0.004761
2207,0.012412,-0.009543,0.004761
2208,-0.05649,-0.009543,-0.009662
2209,0.012412,-0.025317,-0.009662
2210,-0.010555,-0.009543,0.004761
2211,-0.010555,0.022005,0.004761
2212,0.012412,-0.009543,0.004761
2213,0.012412,-0.009543,0.004761
2214,0.012412,-0.009543,-0.024086
2215,-0.010555,-0.009543,-0.009662
2216,-0.033523,-0.009543,-0.009662
2217,0.035379,-0.025317,-0.009662
2218,0.058346,-0.025317,-0.024086
2219,-0.010555,0.006231,-0.024086
2220,-0.010555,-0.025317,0.004761
2221,0.012412,-0.025317,0.019185
2222,0.035379,-0.009543,-0.009662
2223,0.012412,-0.009543,-0.009662
2224,-0.010555,-0.009543,-0.009662
2225,0.012412,-0.009543,0.004761
2226,-0.010555,-0.009543,-0.009662
2227,0.012412,-0.025317,0.004761
2228,-0.033523,-0.009543,0.004761
2229,0.012412,-0.009543,0.004761
2230,-0.010555,-0.041091,-0.009662
2231,-0.010555,-0.009543,-0.024086
2232,-0.010555,-0.009543,0.019185
2233,0.012412,-0.009543,-0.009662
2234,0.012412,-0.025317,0.004761
2235,-0.079457,-0.009543,-0.009662
2236,0.012412,-0.025317,-0.009662
2237,0.012412,-0.025317,0.004761
2238,0.012412,-0.025317,0.004761
2239,0.058346,-0.009543,0.004761
2240,-0.010555,-0.025317,-0.009662
2241,0.012412,-0.009543,-0.009662
2242,-0.010555,-0.009543,0.004761
2243,-0.033523,-0.025317,-0.024086
2244,0.035379,-0.025317,-0.009662
2245,-0.010555,-0.009543,-0.009662
2246,0.058346,-0.009543,-0.024086
2247,0.035379,-0.025317,-0.024086
2248,0.012412,-0.009543,-0.009662
2249,-0.010555,-0.025317,0.019185
2250,-0.010555,-0.025317,-0.009662
2251,-0.010555,-0.009543,0.004761
2252,-0.033523,-0.025317,-0.009662
2253,-0.010555,-0.009543,-0.009662
2254,-0.010555,-0.025317,-0.009662
2255,0.012412,-0.025317,0.004761
2256,0.035379,0.006231,-0.009662
2257,0.012412,-0.009543,0.004761
2258,0.012412,-0.025317,-0.024086
2259,-0.033523,-0.025317,-0.009662
2260,-0.05649,-0.009543,0.019185
2261,-0.033523,-0.041091,0.004761
2262,0.035379,-0.009543,-0.009662
2263,-0.033523,-0.025317,-0.009662
2264,-0.010555,-0.009543,-0.009662
2265,0.012412,-0.009543,-0.009662
2266,-0.033523,-0.009543,0.004761
2267,-0.05649,-0.025317,-0.009662
2268,-0.010555,-0.009543,-0.024086
2269,-0.033523,-0.009543,-0.009662
2270,-0.010555,-0.025317,0.019185
2271,-0.05649,-0.009543,0.004761
2272,0.012412,-0.025317,0.004761
2273,0.012412,-0.009543,-0.009662
2274,-0.010555,0.006231,0.004761
2275,-0.033523,-0.025317,0.004761
2276,-0.033523,-0.025317,-0.024086
2277,-0.033523,-0.041091,-0.009662
2278,-0.033523,-0.025317,-0.009662
2279,-0.010555,-0.009543,-0.009662
2280,-0.010555,0.006231,-0.009662
2281,0.012412,-0.009543,-0.009662
2282,0.012412,-0.009543,-0.009662
2283,0.012412,-0.009543,0.004761
2284,0.058346,-0.025317,0.004761
2285,0.035379,-0.009543,0.004761
2286,0.012412,-0.025317,-0.009662
2287,0.012412,-0.009543,-0.009662
2288,0.035379,-0.041091,-0.009662
2289,-0.033523,-0.009543,0.004761
2290,0.035379,-0.041091,-0.009662
2291,-0.033523,-0.009543,-0.024086
2292,-0.033523,-0.025317,-0.024086
2293,-0.033523,-0.009543,0.004761
2294,-0.010555,-0.009543,0.004761
2295,-0.033523,-0.009543,-0.009662
2296,0.035379,-0.025317,-0.009662
2297,0.012412,-0.025317,-0.009662
2298,-0.033523,-0.009543,0.004761
2299,-0.033523,-0.009543,-0.009662
2300,-0.010555,0.006231,0.004761
2301,0.012412,-0.009543,-0.009662
2302,-0.033523,-0.009543,-0.009662
2303,-0.05649,-0.025317,-0.024086
2304,-0.05649,-0.009543,0.004761
2305,-0.033523,-0.009543,-0.009662
2306,-0.033523,-0.009543,-0.009662
2307,-0.010555,0.006231,-0.009662
2308,-0.010555,-0.025317,-0.009662
2309,-0.05649,-0.009543,-0.024086
2310,-0.033523,-0.009543,-0.024086
2311,0.012412,-0.025317,-0.009662
2312,-0.010555,-0.041091,0.004761
2313,0.035379,-0.025317,0.004761
2314,0.035379,-0.025317,0.004761
2315,0.012412,-0.009543,-0.009662
2316,0.081313,-0.025317,-0.024086
2317,0.127248,-0.025317,0.004761
2318,-0.010555,-0.009543,0.004761
2319,-0.010555,-0.025317,-0.009662
2320,-0.033523,-0.025317,0.004761
2321,0.058346,-0.009543,0.004761
2322,0.012412,-0.025317,-0.009662
2323,0.012412,-0.025317,-0.024086
2324,0.035379,-0.009543,0.004761
2325,0.012412,-0.009543,0.004761
2326,-0.05649,-0.025317,-0.009662
2327,-0.033523,0.006231,-0.024086
2328,0.012412,-0.025317,-0.024086
2329,0.012412,-0.009543,-0.009662
2330,0.012412,0.006231,-0.024086
2331,0.012412,-0.009543,-0.024086
2332,-0.010555,-0.025317,-0.009662
2333,0.012412,-0.025317,0.004761
2334,-0.033523,-0.009543,0.004761
2335,-0.033523,-0.009543,0.004761
2336,-0.033523,-0.009543,0.004761
2337,-0.010555,-0.025317,-0.009662
2338,-0.05649,-0.009543,-0.024086
2339,-0.033523,-0.025317,-0.024086
2340,-0.079457,-0.025317,-0.009662
2341,0.012412,-0.041091,-0.024086
2342,-0.05649,-0.025317,-0.009662
2343,0.012412,-0.025317,-0.024086
2344,-0.010555,-0.025317,0.019185
2345,-0.05649,0.006231,0.019185
2346,-0.010555,-0.009543,0.004761
2347,-0.010555,-0.009543,-0.009662
2348,0.035379,-0.009543,0.004761
2349,0.012412,-0.009543,0.004761
2350,-0.010555,-0.025317,0.019185
2351,-0.010555,-0.025317,-0.024086
2352,0.012412,-0.025317,-0.024086
2353,0.012412,-0.025317,-0.024086
2354,-0.033523,-0.025317,-0.009662
2355,-0.010555,-0.025317,-0.024086
2356,0.012412,-0.009543,-0.03851
2357,0.10428,-0.009543,-0.009662
2358,0.012412,0.006231,0.004761
2359,0.035379,-0.009543,-0.009662
2360,0.012412,-0.025317,-0.024086
2361,0.012412,-0.025317,-0.009662
2362,0.035379,0.006231,-0.009662
2363,0.035379,0.006231,-0.009662
2364,0.012412,-0.025317,0.004761
2365,-0.033523,0.006231,0.019185
2366,0.081313,-0.009543,0.004761
2367,0.058346,0.006231,-0.024086
2368,0.012412,-0.009543,-0.024086
2369,-0.010555,-0.025317,0.004761
2370,-0.05649,-0.009543,0.019185
2371,-0.010555,-0.009543,0.019185
2372,0.058346,-0.009543,0.004761
2373,0.012412,-0.009543,0.004761
2374,-0.033523,-0.009543,-0.009662
2375,-0.05649,-0.025317,-0.009662
2376,-0.010555,-0.041091,-0.024086
2377,-0.05649,-0.025317,-0.024086
2378,-0.079457,-0.025317,-0.024086
2379,0.012412,-0.025317,-0.009662
2380,-0.010555,-0.009543,-0.024086
2381,-0.010555,-0.009543,0.004761
2382,-0.010555,-0.009543,0.004761
2383,-0.033523,-0.009543,-0.009662
2384,-0.033523,-0.009543,0.004761
2385,-0.079457,-0.025317,0.019185
2386,0.012412,-0.009543,0.033609
2387,0.10428,-0.009543,-0.009662
2388,-0.010555,-0.009543,-0.024086
2389,-0.033523,-0.025317,-0.009662
2390,-0.010555,-0.009543,-0.009662
2391,0.012412,-0.025317,-0.009662
2392,0.012412,-0.025317,-0.009662
2393,0.012412,-0.025317,-0.009662
2394,0.012412,-0.009543,0.004761
2395,0.012412,0.006231,-0.009662
2396,0.035379,0.006231,0.004761
2397,-0.010555,-0.025317,0.004761
2398,0.012412,-0.025317,0.004761
2399,0.012412,-0.009543,-0.009662
2400,0.012412,-0.025317,-0.009662
2401,0.035379,-0.009543,-0.024086
2402,0.012412,0.006231,0.004761
2403,0.012412,0.006231,0.019185
2404,-0.010555,-0.009543,0.004761
2405,-0.010555,-0.009543,0.004761
2406,-0.010555,-0.009543,0.019185
2407,0.012412,-0.009543,-0.009662
2408,0.012412,-0.009543,-0.024086
2409,-0.010555,-0.009543,-0.009662
2410,0.035379,0.006231,-0.009662
2411,0.012412,0.006231,0.004761
2412,-0.033523,-0.025317,-0.024086
2413,-0.010555,-0.009543,-0.024086
2414,-0.033523,-0.025317,0.048033
2415,-0.010555,-0.009543,0.004761
2416,-0.033523,-0.009543,-0.009662
2417,-0.033523,-0.009543,0.004761
2418,-0.010555,0.006231,0.004761
2419,0.012412,-0.009543,-0.009662
2420,-0.05649,-0.009543,-0.024086
2421,-0.010555,0.006231,-0.009662
2422,0.035379,-0.025317,0.004761
2423,0.012412,-0.009543,-0.024086
2424,-0.033523,0.006231,-0.009662
2425,-0.033523,-0.009543,0.004761
2426,0.012412,-0.009543,0.004761
2427,-0.010555,-0.041091,-0.009662
2428,0.012412,-0.041091,-0.009662
2429,0.012412,-0.025317,-0.024086
2430,0.012412,-0.041091,0.004761
2431,0.012412,-0.009543,-0.009662
2432,0.035379,-0.009543,0.004761
2433,0.035379,-0.009543,0.004761
2434,-0.010555,-0.009543,-0.009662
2435,-0.010555,-0.009543,-0.009662
2436,-0.010555,-0.009543,-0.009662
2437,-0.05649,-0.009543,-0.024086
2438,-0.010555,-0.025317,0.004761
2439,0.012412,-0.009543,-0.009662
2440,-0.033523,-0.009543,-0.024086
2441,0.035379,-0.009543,0.004761
2442,0.035379,-0.041091,0.004761
2443,-0.010555,-0.009543,0.004761
2444,0.012412,-0.009543,0.019185
2445,-0.010555,-0.025317,0.004761
2446,-0.010555,-0.025317,-0.009662
2447,0.012412,0.006231,0.004761
2448,-0.010555,-0.009543,-0.009662
2449,-0.010555,-0.025317,-0.009662
2450,-0.079457,-0.025317,-0.009662
2451,-0.010555,-0.009543,-0.009662
2452,-0.05649,-0.025317,-0.009662
2453,-0.079457,0.006231,0.004761
2454,-0.033523,-0.009543,-0.009662
2455,-0.033523,-0.041091,-0.024086
2456,-0.05649,-0.009543,-0.009662
2457,-0.010555,-0.009543,0.048033
2458,-0.033523,-0.009543,0.004761
2459,0.081313,-0.009543,-0.009662
2460,-0.079457,-0.041091,0.048033
2461,-0.010555,-0.009543,0.004761
2462,-0.010555,-0.009543,0.004761
2463,0.035379,-0.025317,0.004761
2464,-0.033523,0.006231,-0.009662
2465,-0.05649,-0.009543,0.004761
2466,0.012412,-0.009543,0.004761
2467,0.035379,-0.025317,-0.009662
2468,0.058346,0.006231,0.004761
2469,0.012412,-0.025317,-0.009662
2470,0.012412,0.022005,-0.009662
2471,0.058346,-0.009543,-0.024086
2472,0.012412,-0.009543,0.004761
2473,-0.033523,-0.025317,0.004761
2474,0.012412,-0.009543,0.004761
2475,0.058346,-0.009543,0.004761
2476,-0.033523,-0.009543,0.019185
2477,-0.033523,-0.009543,-0.009662
2478,-0.010555,-0.009543,-0.009662
2479,-0.010555,0.006231,-0.009662
2480,-0.010555,-0.009543,-0.009662
2481,-0.033523,-0.009543,0.004761
2482,0.035379,0.006231,0.004761
2483,0.035379,0.006231,0.019185
2484,-0.033523,-0.025317,0.004761
2485,-0.05649,-0.025317,-0.009662
2486,-0.05649,-0.025317,-0.009662
2487,0.012412,-0.009543,0.004761
2488,-0.010555,-0.009543,0.004761
2489,-0.033523,-0.009543,-0.009662
2490,-0.010555,-0.025317,-0.009662
2491,-0.05649,-0.025317,-0.009662
2492,-0.010555,-0.025317,-0.024086
2493,-0.033523,-0.009543,-0.024086
2494,0.012412,0.006231,0.004761
2495,0.035379,-0.009543,-0.009662
2496,0.012412,-0.025317,-0.009662
2497,0.012412,-0.009543,-0.009662
2498,0.012412,-0.009543,0.004761
2499,0.012412,-0.025317,-0.009662
2500,0.012412,-0.009543,0.004761
2501,0.012412,-0.025317,0.019185
2502,0.012412,-0.009543,-0.009662
2503,0.127248,0.006231,0.004761
2504,-0.010555,-0.009543,0.004761
2505,-0.010555,-0.025317,-0.024086
2506,0.012412,-0.009543,-0.009662
2507,0.012412,-0.025317,-0.009662
2508,-0.010555,-0.041091,-0.024086
2509,0.012412,-0.025317,-0.024086
2510,0.058346,-0.009543,-0.009662
2511,0.012412,-0.009543,-0.009662
2512,0.012412,-0.025317,-0.009662
2513,0.035379,0.006231,-0.009662
2514,0.012412,0.006231,0.004761
2515,-0.010555,0.006231,-0.009662
2516,0.012412,-0.009543,0.019185
2517,-0.079457,-0.009543,0.004761
2518,-0.033523,-0.025317,-0.009662
2519,-0.010555,-0.009543,-0.009662
2520,0.012412,-0.009543,0.004761
2521,-0.033523,-0.041091,0.019185
2522,-0.010555,-0.041091,-0.024086
2523,-0.05649,0.006231,0.004761
2524,-0.05649,-0.009543,-0.024086
2525,-0.05649,-0.009543,-0.009662
2526,-0.033523,-0.025317,0.004761
2527,-0.010555,-0.041091,0.019185
2528,-0.010555,-0.025317,-0.009662
2529,-0.033523,0.006231,-0.009662
2530,0.012412,-0.009543,-0.009662
2531,-0.033523,-0.009543,0.004761
2532,0.035379,-0.009543,-0.009662
2533,-0.010555,-0.025317,0.004761
2534,0.058346,-0.025317,0.004761
2535,-0.033523,-0.009543,-0.009662
2536,-0.033523,-0.025317,-0.024086
2537,0.035379,-0.009543,-0.009662
2538,-0.010555,-0.009543,0.004761
2539,0.035379,-0.009543,0.004761
2540,0.012412,0.022005,0.004761
2541,0.035379,-0.025317,-0.024086
2542,-0.010555,0.006231,-0.009662
2543,-0.033523,-0.041091,-0.024086
2544,-0.010555,-0.009543,-0.009662
2545,-0.010555,0.006231,-0.024086
2546,0.035379,-0.009543,-0.009662
2547,-0.010555,-0.025317,-0.009662
2548,-0.079457,-0.009543,0.004761
2549,-0.010555,-0.025317,0.048033
2550,0.012412,-0.025317,-0.009662
2551,0.012412,-0.009543,0.019185
2552,0.035379,0.006231,-0.009662
2553,0.035379,-0.009543,-0.009662
2554,-0.033523,-0.009543,-0.009662
2555,-0.033523,-0.009543,-0.009662
2556,-0.010555,-0.025317,-0.009662
2557,0.012412,-0.025317,-0.024086
2558,-0.010555,-0.009543,-0.024086
2559,-0.033523,-0.009543,-0.024086
2560,0.035379,-0.009543,-0.009662
2561,-0.010555,0.006231,0.004761
2562,-0.033523,-0.025317,-0.009662
2563,-0.010555,-0.009543,-0.009662
2564,-0.033523,-0.025317,-0.009662
2565,-0.010555,-0.041091,0.004761
2566,-0.010555,-0.025317,-0.009662
2567,-0.033523,0.006231,0.004761
2568,-0.033523,0.006231,-0.03851
2569,-0.010555,-0.009543,0.004761
2570,0.058346,-0.025317,0.004761
2571,-0.033523,-0.009543,-0.024086
2572,0.012412,-0.025317,-0.009662
2573,-0.033523,-0.025317,-0.024086
2574,0.058346,-0.009543,0.004761
2575,0.035379,-0.025317,0.004761
2576,0.012412,-0.009543,0.004761
2577,-0.05649,-0.009543,0.019185
2578,0.012412,-0.009543,0.019185
2579,0.012412,-0.009543,0.004761
2580,0.012412,0.006231,0.004761
2581,0.081313,-0.025317,-0.009662
2582,0.035379,-0.009543,-0.009662
2583,0.012412,-0.009543,-0.024086
2584,0.012412,0.006231,-0.024086
2585,-0.010555,-0.025317,-0.009662
2586,0.058346,-0.009543,-0.024086
2587,-0.033523,-0.009543,-0.024086
2588,0.058346,-0.025317,-0.009662
2589,0.035379,-0.009543,-0.009662
2590,0.012412,-0.009543,-0.009662
2591,-0.010555,-0.025317,-0.009662
2592,-0.033523,-0.009543,-0.024086
2593,0.012412,-0.009543,-0.009662
2594,-0.010555,-0.025317,0.019185
2595,0.012412,0.006231,0.019185
2596,-0.010555,-0.009543,0.004761
2597,-0.010555,-0.009543,-0.009662
2598,-0.033523,-0.009543,0.004761
2599,0.012412,-0.009543,0.004761
2600,0.012412,-0.009543,0.048033
2601,0.035379,-0.009543,0.004761
2602,-0.010555,-0.009543,-0.009662
2603,-0.033523,0.006231,-0.009662
2604,0.012412,-0.025317,-0.024086
2605,0.035379,-0.009543,-0.009662
2606,0.035379,-0.009543,-0.009662
2607,0.035379,-0.009543,0.004761
2608,0.035379,-0.009543,0.004761
2609,0.012412,-0.009543,-0.009662
2610,0.012412,-0.009543,-0.009662
2611,0.035379,0.006231,-0.009662
2612,0.012412,-0.009543,-0.024086
2613,0.035379,-0.025317,-0.009662
2614,-0.010555,-0.041091,-0.024086
2615,0.012412,-0.025317,-0.009662
2616,0.035379,-0.025317,-0.024086
2617,0.012412,-0.009543,-0.009662
2618,-0.033523,-0.009543,-0.009662
2619,0.035379,-0.009543,0.004761
2620,0.081313,-0.025317,-0.009662
2621,0.058346,-0.009543,-0.009662
2622,-0.033523,-0.009543,0.004761
2623,-0.010555,-0.009543,0.004761
2624,-0.010555,-0.025317,0.019185
2625,-0.010555,-0.025317,-0.009662
2626,-0.033523,-0.025317,-0.009662
2627,0.058346,0.006231,-0.009662
2628,0.058346,-0.025317,-0.024086
2629,-0.05649,-0.025317,-0.009662
2630,-0.05649,-0.009543,0.004761
2631,-0.010555,-0.009543,-0.009662
2632,-0.033523,-0.041091,-0.009662
2633,-0.05649,-0.009543,-0.024086
2634,-0.05649,-0.009543,-0.009662
2635,-0.033523,-0.009543,0.004761
2636,0.035379,0.006231,0.004761
2637,-0.010555,0.006231,-0.024086
2638,-0.05649,-0.009543,-0.009662
2639,-0.010555,-0.025317,0.019185
2640,-0.033523,-0.025317,-0.009662
2641,0.081313,0.006231,0.004761
2642,0.012412,-0.009543,-0.009662
2643,0.035379,-0.009543,0.004761
2644,-0.010555,-0.009543,-0.009662
2645,0.012412,-0.009543,-0.024086
2646,0.012412,-0.009543,0.048033
2647,0.058346,-0.009543,0.004761
2648,0.081313,-0.025317,-0.024086
2649,-0.010555,-0.009543,-0.009662
2650,0.058346,-0.009543,0.019185
2651,0.012412,-0.025317,0.019185
2652,0.012412,0.022005,0.004761
2653,-0.033523,-0.009543,0.004761
2654,-0.010555,-0.009543,-0.009662
2655,0.012412,-0.025317,-0.024086
2656,-0.010555,-0.025317,-0.024086
2657,-0.010555,-0.025317,-0.009662
2658,0.012412,-0.009543,-0.009662
2659,-0.010555,-0.009543,-0.024086
2660,-0.010555,-0.025317,-0.009662
2661,-0.010555,-0.025317,-0.024086
2662,-0.010555,0.006231,0.004761
2663,-0.033523,-0.025317,-0.024086
2664,-0.033523,0.006231,-0.009662
2665,-0.010555,0.006231,0.004761
2666,-0.033523,-0.009543,-0.009662
2667,-0.010555,-0.009543,-0.009662
2668,-0.033523,0.006231,0.004761
2669,-0.079457,-0.025317,-0.009662
2670,-0.05649,-0.009543,-0.009662
2671,-0.010555,-0.025317,-0.024086
2672,-0.033523,-0.025317,0.004761
2673,-0.010555,-0.009543,-0.024086
2674,0.012412,-0.009543,-0.009662
2675,0.012412,-0.025317,-0.024086
2676,0.012412,-0.009543,-0.024086
2677,0.012412,0.006231,-0.009662
2678,0.035379,0.006231,0.004761
2679,0.012412,-0.009543,-0.009662
2680,-0.010555,-0.009543,-0.009662
2681,0.012412,-0.009543,0.004761
2682,0.058346,-0.009543,0.019185
2683,0.035379,0.006231,0.004761
2684,0.035379,0.006231,0.004761
2685,-0.033523,-0.009543,0.004761
2686,0.058346,-0.009543,-0.009662
2687,-0.010555,-0.009543,0.004761
2688,0.035379,-0.009543,0.019185
2689,-0.05649,-0.009543,-0.024086
2690,0.035379,-0.009543,-0.009662
2691,-0.033523,-0.009543,0.004761
2692,-0.033523,-0.009543,0.004761
2693,-0.033523,-0.041091,-0.009662
2694,-0.033523,-0.041091,-0.024086
2695,0.035379,-0.009543,0.004761
2696,-0.010555,-0.025317,0.004761
2697,-0.033523,-0.025317,-0.009662
2698,-0.05649,-0.025317,0.004761
2699,0.012412,-0.009543,0.004761
2700,-0.010555,-0.025317,-0.03851
2701,-0.05649,-0.025317,0.004761
2702,-0.033523,-0.025317,-0.009662
2703,0.012412,-0.025317,-0.009662
2704,-0.033523,0.006231,0.004761
2705,-0.05649,-0.009543,-0.024086
2706,-0.010555,0.006231,0.004761
2707,0.012412,-0.009543,-0.009662
2708,-0.010555,-0.009543,-0.009662
2709,0.012412,-0.009543,0.004761
2710,-0.010555,-0.025317,0.004761
2711,0.035379,-0.025317,-0.024086
2712,-0.010555,-0.041091,-0.009662
2713,-0.010555,-0.009543,0.004761
2714,-0.010555,-0.009543,0.019185
2715,0.058346,-0.025317,0.004761
2716,0.012412,-0.025317,-0.009662
2717,0.035379,0.006231,-0.024086
2718,-0.010555,-0.025317,0.004761
2719,0.035379,-0.009543,-0.009662
2720,-0.010555,-0.025317,-0.009662
2721,0.012412,-0.009543,-0.009662
2722,-0.05649,-0.009543,0.004761
2723,-0.010555,-0.009543,-0.009662
2724,0.012412,-0.009543,-0.009662
2725,-0.05649,-0.025317,0.019185
2726,0.012412,-0.009543,0.019185
2727,-0.010555,-0.009543,0.004761
2728,0.035379,-0.009543,-0.009662
2729,-0.05649,-0.009543,-0.009662
2730,-0.033523,-0.009543,0.004761
2731,-0.033523,-0.009543,-0.024086
2732,-0.010555,-0.025317,-0.009662
2733,-0.033523,-0.041091,-0.024086
2734,-0.010555,-0.025317,-0.009662
2735,0.012412,-0.025317,0.004761
2736,-0.05649,-0.025317,0.004761
2737,0.012412,0.006231,-0.009662
2738,-0.033523,-0.025317,0.004761
2739,-0.033523,0.006231,0.004761
2740,-0.033523,-0.009543,-0.009662
2741,-0.033523,-0.009543,-0.024086
2742,0.012412,-0.009543,-0.009662
2743,-0.05649,-0.009543,0.004761
2744,-0.079457,-0.009543,-0.009662
2745,0.012412,-0.025317,-0.024086
2746,0.035379,0.006231,-0.009662
2747,0.058346,-0.025317,-0.009662
2748,-0.010555,-0.025317,-0.009662
2749,0.081313,-0.009543,-0.009662
2750,0.035379,0.006231,0.019185
2751,0.012412,-0.025317,-0.009662
2752,0.012412,0.006231,0.004761
2753,0.035379,-0.025317,0.004761
2754,0.058346,-0.009543,0.019185
2755,-0.010555,-0.009543,-0.024086
2756,0.012412,0.006231,-0.024086
2757,-0.010555,-0.025317,-0.009662
2758,0.012412,0.006231,0.004761
2759,0.012412,0.006231,0.019185
2760,0.012412,-0.009543,-0.009662
2761,-0.033523,-0.025317,-0.009662
2762,0.012412,0.006231,-0.024086
2763,-0.010555,-0.009543,0.004761
2764,0.012412,0.006231,-0.009662
2765,-0.079457,-0.025317,-0.024086
2766,-0.010555,-0.009543,0.004761
2767,0.012412,-0.009543,0.019185
2768,-0.05649,-0.009543,-0.009662
2769,-0.05649,-0.025317,-0.009662
2770,0.012412,-0.025317,-0.009662
2771,-0.010555,-0.009543,-0.009662
2772,0.012412,-0.025317,-0.03851
2773,-0.05649,-0.025317,0.033609
2774,-0.033523,0.006231,0.004761
2775,0.012412,-0.025317,0.004761
2776,0.081313,0.006231,-0.009662
2777,0.035379,-0.009543,0.004761
2778,0.081313,-0.009543,-0.009662
2779,0.012412,-0.025317,-0.009662
2780,0.012412,-0.009543,-0.009662
2781,0.012412,-0.041091,0.004761
2782,0.035379,-0.041091,-0.009662
2783,0.012412,-0.009543,-0.009662
2784,-0.010555,-0.009543,-0.024086
2785,-0.010555,-0.025317,0.004761
2786,0.012412,0.006231,0.048033
2787,-0.033523,-0.009543,-0.009662
2788,0.012412,0.006231,-0.024086
2789,0.012412,-0.025317,0.004761
2790,0.012412,-0.009543,0.004761
2791,-0.010555,-0.025317,-0.009662
2792,-0.010555,-0.025317,0.004761
2793,0.035379,0.006231,-0.009662
2794,0.012412,-0.025317,-0.009662
2795,-0.010555,-0.009543,-0.009662
2796,-0.033523,-0.025317,0.004761
2797,-0.033523,-0.025317,0.019185
2798,0.012412,-0.025317,0.033609
2799,-0.05649,-0.009543,0.019185
2800,-0.033523,0.006231,0.004761
2801,-0.010555,-0.009543,0.004761
2802,-0.010555,0.006231,-0.009662
2803,-0.033523,-0.009543,-0.024086
2804,-0.010555,-0.025317,-0.009662
2805,-0.079457,-0.025317,-0.009662
2806,-0.05649,-0.025317,-0.009662
2807,-0.033523,-0.009543,-0.009662
2808,0.012412,-0.025317,-0.009662
2809,0.012412,-0.025317,0.004761
2810,-0.033523,-0.009543,-0.009662
2811,-0.010555,-0.041091,0.004761
2812,0.058346,-0.009543,-0.009662
2813,0.035379,-0.025317,0.004761
2814,0.012412,-0.025317,-0.009662
2815,0.035379,-0.025317,0.004761
2816,-0.010555,-0.025317,0.004761
2817,0.035379,-0.025317,-0.009662
2818,0.012412,-0.025317,-0.024086
2819,-0.010555,-0.009543,-0.009662
2820,-0.033523,-0.025317,-0.024086
2821,-0.033523,-0.009543,0.004761
2822,0.012412,0.006231,0.004761
2823,0.058346,0.006231,0.004761
2824,0.035379,-0.009543,-0.009662
2825,0.035379,-0.025317,-0.009662
2826,-0.010555,-0.009543,0.019185
2827,-0.033523,0.006231,0.004761
2828,0.058346,-0.025317,-0.009662
2829,0.012412,-0.041091,-0.024086
2830,-0.079457,-0.009543,-0.009662
2831,-0.05649,-0.025317,-0.009662
2832,-0.033523,-0.009543,-0.009662
2833,-0.05649,-0.009543,-0.009662
2834,-0.079457,-0.025317,-0.024086
2835,0.012412,-0.009543,-0.024086
2836,-0.079457,-0.009543,0.004761
2837,-0.010555,-0.009543,-0.009662
2838,-0.033523,-0.025317,-0.009662
2839,0.058346,-0.025317,-0.024086
2840,0.058346,-0.025317,-0.024086
2841,-0.079457,-0.009543,0.004761
2842,-0.033523,-0.009543,0.033609
2843,-0.033523,0.006231,0.004761
2844,0.035379,0.006231,-0.009662
2845,-0.010555,-0.009543,-0.009662
2846,-0.010555,-0.009543,0.004761
2847,0.012412,0.006231,0.019185
2848,0.058346,-0.009543,0.004761
2849,0.012412,-0.025317,0.019185
2850,-0.010555,-0.025317,0.004761
2851,0.035379,-0.041091,-0.024086
2852,0.035379,-0.025317,-0.009662
2853,-0.010555,-0.009543,0.004761
2854,-0.033523,-0.009543,-0.009662
2855,-0.010555,-0.009543,0.004761
2856,-0.010555,-0.009543,-0.009662
2857,-0.010555,-0.025317,-0.009662
2858,0.058346,0.006231,0.004761
2859,0.012412,0.006231,-0.009662
2860,0.035379,-0.009543,0.004761
2861,0.035379,-0.009543,0.004761
2862,-0.033523,-0.009543,-0.009662
2863,0.035379,-0.009543,-0.009662
2864,-0.033523,-0.009543,0.004761
2865,-0.033523,0.006231,-0.009662
2866,-0.05649,-0.025317,-0.024086
2867,-0.010555,0.006231,-0.009662
2868,-0.010555,0.006231,0.004761
2869,-0.010555,0.006231,-0.009662
2870,0.012412,-0.025317,0.019185
2871,-0.010555,-0.025317,-0.009662
2872,-0.033523,-0.009543,-0.024086
2873,0.012412,-0.009543,-0.024086
2874,0.012412,-0.025317,-0.009662
2875,0.035379,-0.009543,0.004761
2876,-0.010555,0.006231,-0.009662
2877,-0.010555,-0.009543,-0.009662
2878,0.035379,-0.025317,-0.009662
2879,-0.033523,-0.025317,0.004761
2880,-0.010555,-0.009543,0.004761
2881,-0.010555,0.006231,0.004761
2882,0.035379,-0.009543,0.019185
2883,0.035379,-0.009543,0.004761
2884,0.012412,-0.009543,-0.009662
2885,0.058346,-0.009543,-0.009662
2886,0.035379,-0.009543,-0.009662
2887,0.012412,-0.025317,-0.009662
2888,-0.033523,-0.009543,-0.009662
2889,-0.010555,-0.025317,0.004761
2890,-0.033523,0.006231,-0.009662
2891,0.012412,-0.009543,0.004761
2892,0.012412,-0.025317,-0.009662
2893,-0.010555,-0.025317,-0.009662
2894,0.035379,-0.025317,-0.009662
2895,0.035379,-0.025317,0.004761
2896,-0.010555,-0.009543,-0.009662
2897,-0.033523,-0.009543,-0.009662
2898,0.012412,-0.025317,-0.009662
2899,-0.033523,-0.009543,-0.009662
2900,-0.079457,-0.025317,-0.009662
2901,0.058346,-0.009543,-0.009662
2902,-0.010555,-0.025317,0.004761
2903,-0.010555,-0.009543,0.019185
2904,-0.010555,-0.009543,0.004761
2905,-0.079457,-0.025317,0.004761
2906,-0.010555,-0.009543,-0.009662
2907,-0.010555,-0.025317,-0.024086
2908,-0.010555,-0.009543,-0.009662
2909,-0.033523,-0.025317,-0.009662
2910,-0.05649,0.006231,-0.009662
2911,0.035379,-0.009543,-0.009662
2912,-0.010555,-0.025317,-0.009662
2913,0.035379,-0.041091,-0.009662
2914,0.058346,-0.009543,0.004761
2915,-0.010555,0.006231,-0.009662
2916,0.058346,-0.009543,-0.009662
2917,-0.010555,-0.025317,-0.009662
2918,0.012412,-0.041091,0.004761
2919,-0.010555,-0.009543,0.019185
2920,-0.033523,-0.025317,0.004761
2921,0.081313,-0.009543,-0.009662
2922,-0.010555,-0.025317,0.004761
2923,-0.010555,-0.009543,-0.009662
2924,-0.010555,-0.009543,-0.009662
2925,0.012412,-0.025317,-0.009662
2926,-0.033523,-0.041091,-0.009662
2927,-0.033523,-0.009543,-0.024086
2928,-0.05649,-0.009543,-0.024086
2929,0.012412,0.006231,-0.009662
2930,-0.010555,-0.025317,-0.024086
2931,-0.010555,-0.041091,-0.009662
2932,0.012412,-0.009543,0.004761
2933,-0.010555,0.006231,0.019185
2934,-0.033523,-0.009543,0.004761
2935,-0.033523,-0.009543,-0.009662
2936,0.012412,-0.025317,-0.009662
2937,-0.010555,-0.025317,-0.024086
2938,-0.05649,-0.009543,-0.024086
2939,-0.010555,-0.025317,-0.009662
2940,-0.033523,-0.025317,0.004761
2941,-0.010555,-0.025317,-0.024086
2942,0.012412,0.006231,-0.009662
2943,-0.033523,-0.041091,0.004761
2944,-0.010555,-0.009543,0.019185
2945,0.035379,-0.009543,0.004761
2946,0.035379,-0.009543,0.019185
2947,-0.010555,-0.025317,0.004761
2948,0.035379,-0.041091,0.004761
2949,0.058346,-0.025317,-0.009662
2950,0.035379,-0.009543,-0.009662
2951,-0.010555,-0.009543,-0.03851
2952,-0.010555,-0.025317,-0.009662
2953,0.012412,-0.025317,-0.009662
2954,0.012412,-0.025317,-0.009662
2955,0.012412,-0.009543,-0.009662
2956,0.012412,-0.041091,-0.009662
2957,0.035379,-0.025317,-0.03851
2958,0.035379,-0.009543,0.004761
2959,-0.033523,0.022005,0.004761
2960,-0.010555,-0.009543,-0.009662
2961,-0.033523,-0.041091,0.004761
2962,-0.102424,-0.041091,-0.009662
2963,-0.033523,-0.009543,0.004761
2964,0.012412,0.006231,-0.009662
2965,0.012412,-0.025317,-0.009662
2966,-0.010555,-0.009543,-0.009662
2967,-0.033523,-0.009543,-0.009662
2968,0.012412,-0.009543,0.004761
2969,0.012412,-0.025317,-0.009662
2970,0.012412,-0.009543,-0.009662
2971,0.012412,-0.009543,0.004761
2972,-0.033523,-0.025317,0.004761
2973,0.035379,-0.009543,-0.009662
2974,0.012412,-0.009543,-0.009662
2975,-0.010555,-0.009543,-0.009662
2976,-0.033523,0.006231,0.004761
2977,0.035379,-0.009543,0.004761
2978,0.012412,0.006231,0.019185
2979,0.035379,-0.025317,0.019185
2980,0.012412,-0.009543,0.004761
2981,0.012412,-0.009543,0.004761
2982,-0.033523,0.006231,0.004761
2983,0.012412,-0.025317,-0.009662
2984,0.035379,-0.009543,0.004761
2985,-0.010555,-0.025317,-0.009662
2986,-0.05649,-0.009543,-0.009662
2987,-0.010555,-0.009543,-0.009662
2988,-0.010555,-0.009543,0.004761
2989,-0.010555,-0.025317,0.019185
2990,-0.033523,-0.009543,0.004761
2991,0.035379,-0.009543,-0.024086
2992,-0.010555,0.006231,-0.009662
2993,-0.010555,-0.025317,-0.009662
2994,-0.010555,-0.009543,0.019185
2995,-0.010555,-0.009543,-0.009662
2996,-0.010555,0.006231,-0.009662
2997,-0.010555,-0.025317,-0.024086
2998,-0.05649,-0.009543,-0.009662
2999,0.012412,-0.025317,0.004761
3000,0.012412,-0.025317,-0.009662
3001,-0.033523,-0.009543,-0.024086
3002,-0.010555,-0.025317,-0.009662
3003,-0.05649,-0.009543,-0.009662
3004,0.012412,-0.025317,-0.009662
3005,-0.010555,0.006231,0.019185
3006,0.035379,-0.025317,0.004761
3007,0.012412,-0.025317,0.019185
3008,-0.010555,-0.041091,-0.009662
3009,-0.05649,-0.009543,0.004761
3010,0.035379,0.006231,-0.009662
3011,0.058346,-0.009543,0.004761
3012,0.035379,-0.025317,-0.009662
3013,0.035379,-0.009543,-0.009662
3014,0.035379,-0.025317,0.004761
3015,0.012412,-0.025317,0.004761
3016,0.012412,-0.009543,0.004761
3017,-0.033523,-0.025317,-0.009662
3018,0.012412,-0.025317,-0.024086
3019,0.012412,-0.025317,-0.009662
3020,-0.010555,-0.009543,-0.009662
3021,-0.102424,-0.025317,-0.024086
3022,-0.010555,-0.009543,0.004761
3023,-0.010555,-0.025317,0.019185
3024,-0.05649,-0.025317,-0.009662
3025,-0.05649,0.022005,-0.024086
3026,-0.05649,-0.009543,-0.024086
3027,-0.010555,-0.025317,-0.024086
3028,-0.033523,-0.009543,-0.009662
3029,-0.05649,-0.009543,-0.009662
3030,0.012412,-0.025317,-0.009662
3031,-0.033523,-0.009543,-0.009662
3032,-0.05649,-0.009543,0.004761
3033,-0.010555,-0.041091,-0.009662
3034,0.012412,-0.025317,-0.009662
3035,0.035379,-0.009543,-0.009662
3036,-0.010555,-0.009543,-0.009662
3037,-0.010555,-0.009543,-0.009662
3038,0.035379,0.006231,-0.009662
3039,0.035379,-0.025317,0.004761
3040,-0.010555,-0.041091,0.004761
3041,0.035379,-0.009543,-0.009662
3042,0.035379,-0.009543,-0.009662
3043,0.035379,-0.025317,-0.009662
3044,-0.05649,-0.025317,0.019185
3045,0.035379,-0.009543,-0.009662
3046,0.058346,-0.041091,-0.024086
3047,0.035379,-0.025317,-0.009662
3048,-0.05649,-0.041091,-0.009662
3049,0.058346,-0.025317,0.048033
3050,0.012412,-0.025317,-0.009662
3051,0.012412,-0.009543,0.019185
3052,-0.010555,-0.025317,-0.009662
3053,0.035379,0.006231,0.004761
3054,-0.033523,-0.009543,0.004761
3055,-0.033523,-0.025317,-0.009662
3056,-0.05649,0.006231,-0.009662
3057,-0.010555,-0.041091,0.004761
3058,0.035379,-0.009543,-0.009662
3059,-0.033523,-0.009543,0.004761
3060,-0.079457,-0.009543,-0.024086
3061,-0.05649,-0.025317,0.004761
3062,-0.010555,-0.009543,-0.009662
3063,-0.033523,-0.009543,-0.024086
3064,0.012412,0.006231,0.004761
3065,-0.033523,-0.025317,-0.009662
3066,0.012412,-0.009543,-0.009662
3067,-0.033523,-0.009543,-0.009662
3068,0.012412,-0.025317,-0.009662
3069,-0.010555,-0.025317,0.004761
3070,-0.033523,-0.041091,-0.024086
3071,-0.010555,-0.009543,-0.009662
3072,0.035379,-0.041091,-0.024086
3073,0.012412,-0.025317,0.004761
3074,0.012412,-0.009543,0.004761
3075,0.012412,0.006231,0.004761
3076,0.035379,-0.009543,-0.009662
3077,0.035379,0.022005,0.004761
3078,0.012412,-0.009543,0.004761
3079,-0.010555,-0.025317,-0.024086
3080,0.058346,-0.025317,0.004761
3081,0.012412,-0.025317,-0.009662
3082,-0.033523,-0.025317,-0.009662
3083,-0.010555,-0.009543,-0.009662
3084,0.012412,-0.025317,-0.009662
3085,-0.05649,0.006231,0.004761
3086,-0.010555,0.006231,-0.024086
3087,-0.010555,-0.025317,0.004761
3088,-0.079457,-0.041091,-0.009662
3089,0.035379,-0.025317,0.004761
3090,-0.05649,-0.009543,-0.009662
3091,-0.010555,-0.041091,-0.009662
3092,0.012412,-0.025317,0.004761
3093,-0.033523,-0.009543,-0.024086
3094,-0.033523,-0.025317,0.004761
3095,0.012412,-0.009543,0.004761
3096,-0.010555,-0.041091,-0.009662
3097,0.035379,-0.025317,-0.009662
3098,-0.033523,-0.025317,0.004761
3099,0.012412,0.006231,0.004761
3100,0.035379,-0.009543,-0.009662
3101,-0.010555,-0.009543,0.004761
3102,-0.033523,-0.025317,0.004761
3103,-0.033523,-0.009543,0.004761
3104,0.035379,-0.009543,-0.009662
3105,0.081313,-0.009543,0.004761
3106,-0.010555,-0.009543,-0.009662
3107,0.012412,-0.041091,-0.03851
3108,0.012412,-0.009543,0.048033
3109,-0.010555,-0.009543,-0.009662
3110,0.012412,-0.009543,-0.009662
3111,0.012412,-0.025317,-0.024086
3112,0.035379,-0.009543,0.004761
3113,-0.010555,-0.009543,-0.009662
3114,0.012412,0.006231,-0.024086
3115,-0.010555,0.006231,0.004761
3116,-0.033523,-0.009543,-0.009662
3117,0.012412,-0.025317,0.004761
3118,-0.05649,0.006231,0.004761
3119,-0.033523,0.006231,0.019185
3120,0.035379,-0.009543,-0.024086
3121,0.035379,-0.025317,-0.024086
3122,-0.05649,-0.025317,0.004761
3123,0.012412,-0.009543,-0.009662
3124,-0.010555,0.006231,-0.009662
3125,-0.05649,-0.025317,-0.009662
3126,-0.010555,-0.025317,-0.024086
3127,-0.033523,-0.025317,-0.009662
3128,0.012412,-0.025317,-0.009662
3129,-0.010555,-0.025317,0.004761
3130,-0.010555,-0.009543,-0.009662
3131,-0.010555,-0.009543,-0.009662
3132,0.012412,0.006231,-0.009662
3133,-0.033523,-0.009543,0.004761
3134,0.035379,0.006231,0.004761
3135,-0.010555,-0.009543,0.004761
3136,0.012412,-0.009543,-0.009662
3137,0.012412,-0.009543,-0.024086
3138,-0.033523,-0.009543,0.004761
3139,0.035379,-0.009543,0.019185
3140,0.058346,-0.009543,0.019185
3141,-0.033523,-0.025317,-0.009662
3142,0.035379,-0.025317,0.019185
3143,0.035379,-0.025317,0.004761
3144,0.012412,-0.009543,-0.009662
3145,0.012412,-0.009543,-0.009662
3146,-0.033523,-0.025317,0.004761
3147,-0.033523,-0.009543,-0.024086
3148,-0.05649,-0.025317,-0.009662
3149,0.012412,-0.025317,-0.024086
3150,-0.05649,-0.009543,-0.009662
3151,-0.010555,0.006231,-0.009662
3152,-0.033523,-0.009543,-0.009662
3153,-0.010555,-0.025317,-0.009662
3154,-0.033523,0.006231,-0.009662
3155,0.012412,-0.025317,-0.009662
3156,0.012412,0.006231,0.004761
3157,-0.033523,-0.009543,0.019185
3158,-0.033523,-0.009543,-0.009662
3159,0.012412,-0.009543,0.004761
3160,-0.079457,-0.025317,0.004761
3161,-0.05649,-0.025317,0.004761
3162,0.035379,0.006231,0.004761
3163,0.035379,0.022005,-0.009662
3164,-0.033523,-0.009543,0.019185
3165,0.012412,-0.025317,0.004761
3166,-0.05649,-0.009543,0.004761
3167,0.035379,-0.009543,0.004761
3168,0.012412,-0.025317,-0.024086
3169,-0.033523,-0.025317,-0.009662
3170,-0.010555,-0.041091,-0.024086
3171,0.012412,-0.009543,-0.03851
3172,0.058346,-0.009543,-0.009662
3173,-0.05649,-0.009543,-0.024086
3174,0.035379,-0.009543,-0.009662
3175,0.012412,0.006231,-0.024086
3176,0.058346,-0.009543,-0.009662
3177,-0.010555,0.006231,-0.009662
3178,0.012412,-0.009543,-0.009662
3179,-0.010555,-0.041091,0.004761
3180,-0.033523,-0.025317,0.004761
3181,-0.033523,-0.009543,-0.024086
3182,0.058346,-0.009543,-0.009662
3183,-0.010555,-0.009543,-0.024086
3184,-0.010555,-0.009543,0.004761
3185,-0.010555,-0.025317,-0.009662
3186,0.012412,-0.009543,0.004761
3187,-0.033523,-0.025317,-0.009662
3188,0.035379,-0.025317,-0.009662
3189,-0.102424,-0.025317,0.004761
3190,0.012412,-0.009543,0.019185
3191,-0.05649,-0.009543,-0.009662
3192,0.012412,-0.009543,0.004761
3193,0.035379,-0.025317,0.019185
3194,0.012412,-0.009543,-0.009662
3195,0.012412,-0.009543,-0.009662
3196,-0.033523,-0.009543,-0.009662
3197,-0.033523,-0.025317,0.004761
3198,-0.010555,-0.009543,-0.009662
3199,0.012412,-0.009543,0.019185
3200,-0.010555,-0.009543,-0.009662
3201,-0.033523,-0.009543,0.004761
3202,0.012412,-0.009543,-0.024086
3203,-0.010555,-0.009543,-0.009662
3204,-0.010555,-0.025317,-0.03851
3205,0.012412,-0.009543,-0.009662
3206,0.058346,-0.009543,-0.009662
3207,-0.010555,-0.025317,0.004761
3208,-0.010555,0.022005,-0.009662
3209,0.081313,-0.009543,-0.024086
3210,0.035379,-0.025317,-0.009662
3211,0.012412,-0.009543,-0.009662
3212,-0.05649,-0.041091,0.048033
3213,-0.033523,-0.009543,-0.009662
3214,0.035379,-0.009543,-0.009662
3215,-0.033523,0.006231,0.004761
3216,0.012412,-0.009543,0.019185
3217,-0.010555,-0.009543,-0.009662
3218,-0.033523,-0.009543,0.004761
3219,-0.033523,-0.025317,0.004761
3220,-0.125391,-0.025317,-0.024086
3221,0.058346,-0.009543,-0.009662
3222,-0.010555,-0.009543,0.004761
3223,-0.033523,-0.025317,0.004761
3224,0.012412,-0.009543,0.004761
3225,-0.079457,-0.009543,0.004761
3226,-0.010555,-0.009543,0.004761
3227,-0.010555,0.006231,-0.009662
3228,0.012412,-0.025317,-0.024086
3229,-0.010555,-0.025317,0.004761
3230,0.012412,-0.025317,-0.009662
3231,-0.033523,0.006231,0.004761
3232,0.035379,-0.025317,0.019185
3233,0.012412,-0.009543,0.019185
3234,0.035379,-0.009543,-0.024086
3235,0.012412,-0.009543,0.004761
3236,0.012412,-0.009543,-0.009662
3237,-0.033523,-0.041091,-0.024086
3238,0.012412,-0.009543,-0.009662
3239,0.035379,-0.025317,-0.009662
3240,-0.010555,-0.025317,-0.009662
3241,-0.033523,0.022005,0.004761
3242,-0.033523,-0.009543,0.004761
3243,-0.033523,-0.009543,0.004761
3244,-0.010555,0.006231,-0.024086
3245,-0.033523,-0.009543,-0.03851
3246,-0.033523,-0.025317,-0.009662
3247,-0.05649,0.006231,0.004761
3248,-0.010555,-0.025317,-0.009662
3249,-0.010555,-0.009543,-0.009662
3250,-0.033523,0.006231,0.004761
3251,-0.033523,-0.025317,-0.009662
3252,0.035379,-0.025317,-0.009662
3253,-0.010555,0.006231,0.004761
3254,-0.010555,-0.009543,0.004761
3255,-0.010555,0.006231,0.004761
3256,-0.05649,0.006231,-0.009662
3257,-0.010555,-0.025317,-0.009662
3258,0.012412,-0.025317,-0.009662
3259,-0.010555,-0.025317,-0.009662
3260,-0.010555,0.006231,0.019185
3261,0.012412,-0.025317,0.019185
3262,-0.010555,0.006231,0.019185
3263,0.058346,0.022005,-0.009662
3264,0.058346,0.006231,-0.009662
3265,0.012412,-0.009543,-0.009662
3266,0.035379,-0.009543,0.004761
3267,-0.010555,-0.009543,-0.009662
3268,0.035379,-0.009543,0.004761
3269,-0.010555,-0.025317,-0.009662
3270,0.035379,-0.009543,0.004761
3271,0.012412,0.006231,-0.009662
3272,-0.010555,0.006231,0.004761
3273,-0.033523,0.006231,-0.009662
3274,0.012412,-0.009543,-0.024086
3275,0.058346,-0.025317,-0.024086
3276,-0.033523,-0.025317,-0.024086
3277,-0.010555,-0.025317,0.019185
3278,-0.010555,-0.009543,0.004761
3279,0.012412,-0.025317,-0.009662
3280,-0.033523,-0.009543,-0.024086
3281,-0.010555,0.006231,0.004761
3282,-0.010555,-0.025317,-0.009662
3283,-0.010555,-0.041091,0.004761
3284,0.012412,-0.009543,0.004761
3285,-0.05649,-0.009543,0.019185
3286,0.012412,-0.009543,-0.009662
3287,0.012412,-0.025317,-0.024086
3288,-0.033523,-0.009543,-0.009662
3289,-0.033523,-0.025317,0.004761
3290,0.012412,-0.041091,-0.009662
3291,0.012412,-0.025317,-0.024086
3292,0.012412,-0.025317,-0.009662
3293,-0.033523,-0.009543,0.004761
3294,0.035379,0.006231,0.004761
3295,0.012412,-0.009543,-0.009662
3296,-0.010555,-0.025317,-0.009662
3297,0.035379,0.022005,-0.009662
3298,0.012412,-0.025317,0.004761
3299,-0.010555,-0.009543,0.004761
3300,-0.033523,-0.025317,0.019185
3301,0.035379,0.006231,0.004761
3302,0.058346,0.006231,-0.009662
3303,0.058346,-0.025317,-0.024086
3304,-0.010555,-0.009543,-0.009662
3305,-0.033523,-0.041091,-0.024086
3306,0.058346,-0.025317,-0.009662
3307,-0.010555,-0.009543,0.004761
3308,-0.010555,0.006231,-0.009662
3309,-0.010555,-0.009543,0.004761
3310,0.012412,-0.025317,0.004761
3311,-0.010555,-0.041091,0.004761
3312,0.012412,-0.009543,0.019185
3313,-0.010555,-0.009543,0.019185
3314,-0.010555,-0.025317,-0.009662
3315,0.012412,-0.041091,-0.009662
3316,-0.05649,-0.025317,-0.024086
3317,-0.033523,-0.025317,-0.024086
3318,-0.033523,-0.025317,-0.009662
3319,-0.033523,-0.009543,0.004761
3320,-0.079457,-0.009543,-0.009662
3321,-0.033523,-0.009543,0.004761
3322,0.058346,-0.009543,0.004761
3323,-0.05649,-0.025317,-0.03851
3324,-0.033523,0.006231,-0.024086
3325,-0.033523,0.006231,-0.024086
3326,0.035379,0.006231,0.004761
3327,-0.010555,-0.009543,0.004761
3328,-0.010555,-0.041091,-0.024086
3329,0.035379,0.006231,-0.009662
3330,0.012412,0.006231,0.019185
3331,0.012412,-0.009543,-0.009662
3332,-0.033523,-0.009543,-0.024086
3333,-0.033523,-0.009543,-0.024086
3334,0.012412,0.006231,0.004761
3335,-0.010555,-0.009543,-0.009662
3336,-0.033523,-0.009543,-0.009662
3337,0.012412,-0.009543,-0.009662
3338,0.012412,-0.009543,0.004761
3339,0.035379,-0.025317,0.004761
3340,0.035379,-0.025317,-0.009662
3341,0.035379,-0.009543,-0.009662
3342,-0.010555,-0.009543,-0.009662
3343,-0.05649,-0.041091,-0.024086
3344,-0.033523,-0.041091,-0.009662
3345,-0.05649,-0.025317,-0.009662
3346,0.035379,-0.025317,0.033609
3347,-0.010555,-0.009543,0.004761
3348,-0.05649,-0.009543,0.004761
3349,-0.102424,-0.009543,0.004761
3350,-0.033523,0.006231,-0.009662
3351,-0.033523,-0.025317,-0.009662
3352,-0.010555,0.006231,-0.024086
3353,0.012412,-0.025317,-0.009662
3354,0.012412,-0.041091,-0.009662
3355,-0.05649,-0.009543,-0.009662
3356,0.035379,0.006231,-0.009662
3357,0.035379,-0.009543,-0.009662
3358,0.012412,-0.009543,-0.024086
3359,-0.033523,-0.025317,-0.024086
3360,-0.010555,-0.009543,0.004761
3361,0.012412,-0.009543,0.019185
3362,0.035379,0.006231,0.004761
3363,0.012412,-0.025317,0.019185
3364,-0.010555,0.069328,-0.024086
3365,0.012412,-0.009543,-0.024086
3366,0.035379,-0.025317,-0.009662
3367,0.012412,-0.009543,-0.009662
3368,0.035379,0.006231,-0.009662
3369,-0.010555,-0.009543,-0.009662
3370,0.035379,-0.025317,-0.009662
3371,0.012412,-0.009543,-0.024086
3372,0.035379,-0.025317,0.019185
3373,-0.010555,-0.025317,-0.009662
3374,-0.010555,-0.025317,0.004761
3375,-0.033523,-0.025317,-0.009662
3376,-0.010555,-0.025317,0.004761
3377,-0.05649,-0.009543,-0.024086
3378,-0.033523,-0.009543,0.004761
3379,-0.010555,-0.025317,-0.024086
3380,-0.033523,-0.009543,-0.024086
3381,-0.010555,-0.009543,-0.009662
3382,-0.010555,-0.025317,0.004761
3383,0.012412,-0.025317,-0.024086
3384,-0.079457,0.006231,-0.024086
3385,-0.05649,-0.009543,0.004761
3386,-0.010555,-0.009543,-0.009662
3387,-0.033523,-0.041091,0.004761
3388,0.058346,0.006231,0.004761
3389,0.058346,0.006231,0.019185
3390,-0.033523,-0.025317,0.004761
3391,-0.010555,-0.009543,0.004761
3392,0.058346,-0.041091,-0.024086
3393,0.035379,-0.025317,-0.009662
3394,-0.033523,-0.025317,-0.009662
3395,-0.033523,-0.025317,-0.024086
3396,0.035379,-0.009543,-0.009662
3397,0.012412,-0.009543,0.004761
3398,-0.010555,-0.009543,-0.024086
3399,-0.010555,-0.009543,-0.009662
3400,-0.05649,-0.041091,-0.009662
3401,-0.033523,0.006231,-0.009662
3402,-0.033523,-0.009543,-0.009662
3403,-0.010555,-0.009543,-0.009662
3404,0.058346,0.006231,-0.009662
3405,-0.05649,-0.025317,0.004761
3406,0.012412,-0.009543,-0.009662
3407,-0.033523,-0.009543,0.004761
3408,0.012412,-0.009543,0.004761
3409,-0.010555,-0.009543,0.004761
3410,-0.05649,-0.009543,0.004761
3411,-0.010555,-0.009543,-0.024086
3412,0.035379,-0.009543,0.004761
3413,-0.033523,-0.009543,-0.009662
3414,-0.05649,-0.025317,0.004761
3415,-0.033523,-0.025317,-0.009662
3416,-0.033523,-0.025317,-0.009662
3417,-0.05649,-0.025317,0.004761
3418,-0.033523,-0.025317,-0.024086
3419,-0.033523,-0.025317,-0.024086
3420,0.035379,-0.009543,-0.009662
3421,-0.079457,-0.009543,-0.009662
3422,-0.010555,-0.041091,0.004761
3423,-0.010555,-0.041091,-0.009662
3424,0.058346,-0.009543,-0.009662
3425,-0.05649,0.006231,0.019185
3426,0.035379,-0.025317,0.019185
3427,0.012412,-0.009543,-0.009662
3428,0.012412,-0.009543,-0.009662
3429,0.035379,-0.009543,0.019185
3430,-0.010555,0.006231,-0.009662
3431,0.012412,-0.009543,-0.009662
3432,0.058346,0.022005,0.004761
3433,-0.010555,-0.025317,-0.009662
3434,0.058346,-0.009543,0.019185
3435,-0.010555,-0.009543,0.004761
3436,0.035379,-0.009543,-0.024086
3437,0.012412,-0.025317,-0.009662
3438,-0.010555,-0.009543,-0.009662
3439,-0.010555,-0.009543,0.019185
3440,-0.033523,0.069328,0.004761
3441,-0.010555,-0.009543,-0.009662
3442,-0.05649,-0.009543,0.033609
3443,-0.010555,-0.009543,0.004761
3444,-0.033523,-0.009543,-0.009662
3445,0.012412,-0.025317,-0.009662
3446,-0.05649,-0.009543,-0.009662
3447,0.012412,-0.009543,-0.024086
3448,-0.010555,-0.041091,-0.009662
3449,-0.010555,-0.009543,-0.009662
3450,0.012412,-0.025317,0.004761
3451,0.012412,-0.009543,-0.024086
3452,-0.033523,-0.041091,-0.03851
3453,-0.033523,-0.025317,-0.024086
3454,0.012412,-0.009543,-0.009662
3455,0.035379,-0.025317,0.004761
3456,-0.010555,-0.009543,0.004761
3457,-0.033523,-0.025317,-0.024086
3458,0.058346,-0.009543,-0.009662
3459,0.035379,-0.025317,-0.009662
3460,0.012412,-0.009543,0.004761
3461,0.058346,-0.009543,-0.009662
3462,0.035379,-0.009543,0.004761
3463,0.012412,-0.009543,-0.009662
3464,0.127248,-0.009543,-0.009662
3465,0.035379,-0.009543,-0.009662
3466,0.012412,-0.009543,-0.009662
3467,-0.079457,-0.009543,-0.009662
3468,-0.05649,-0.025317,0.004761
3469,-0.010555,-0.025317,-0.024086
3470,0.012412,-0.009543,-0.009662
3471,-0.033523,-0.009543,0.004761
3472,-0.010555,-0.025317,-0.009662
3473,-0.033523,-0.009543,0.004761
3474,-0.010555,-0.009543,0.004761
3475,-0.033523,-0.009543,0.004761
3476,-0.05649,-0.025317,0.004761
3477,-0.010555,-0.025317,0.019185
3478,-0.010555,-0.009543,0.004761
3479,-0.010555,-0.009543,0.004761
3480,-0.010555,-0.009543,0.004761
3481,-0.010555,-0.025317,0.004761
3482,-0.05649,-0.025317,-0.009662
3483,-0.05649,-0.009543,0.004761
3484,0.012412,-0.009543,0.004761
3485,0.012412,0.006231,0.004761
3486,-0.010555,-0.009543,0.019185
3487,0.035379,-0.009543,0.019185
3488,-0.05649,-0.025317,0.004761
3489,0.035379,-0.009543,0.004761
3490,0.058346,-0.009543,0.004761
3491,0.012412,0.006231,-0.009662
3492,0.012412,-0.025317,-0.03851
3493,-0.010555,-0.041091,0.004761
3494,-0.010555,0.006231,0.019185
3495,-0.010555,-0.025317,-0.009662
3496,0.058346,-0.009543,0.004761
3497,-0.010555,-0.009543,-0.024086
3498,-0.010555,-0.025317,-0.009662
3499,-0.05649,-0.025317,-0.009662
3500,-0.033523,-0.025317,0.004761
3501,-0.010555,-0.009543,-0.009662
3502,0.035379,-0.009543,-0.009662
3503,-0.033523,0.006231,-0.009662
3504,-0.033523,0.006231,-0.009662
3505,-0.033523,-0.009543,0.004761
3506,-0.05649,-0.025317,-0.009662
3507,-0.033523,-0.009543,-0.009662
3508,-0.010555,0.006231,-0.009662
3509,-0.010555,-0.025317,-0.009662
3510,0.012412,-0.009543,-0.009662
3511,-0.033523,-0.009543,0.004761
3512,0.012412,-0.041091,0.004761
3513,0.035379,-0.025317,0.004761
3514,-0.05649,-0.009543,0.004761
3515,-0.010555,-0.009543,-0.009662
3516,-0.010555,-0.009543,-0.009662
3517,0.035379,-0.041091,-0.024086
3518,0.012412,-0.009543,-0.024086
3519,0.012412,-0.025317,-0.024086
3520,0.035379,-0.025317,-0.024086
3521,0.012412,0.022005,-0.009662
3522,0.012412,0.006231,0.004761
3523,0.035379,-0.009543,0.019185
3524,-0.033523,0.006231,-0.024086
3525,0.012412,-0.025317,0.004761
3526,0.035379,-0.025317,0.004761
3527,0.012412,0.006231,0.004761
3528,0.012412,-0.009543,0.004761
3529,-0.010555,-0.041091,0.019185
3530,0.012412,-0.009543,0.004761
3531,0.012412,-0.025317,-0.03851
3532,0.012412,-0.009543,-0.009662
3533,-0.033523,-0.025317,-0.009662
3534,-0.05649,-0.025317,-0.024086
3535,0.012412,-0.025317,0.004761
3536,0.012412,-0.009543,0.004761
3537,-0.010555,-0.009543,-0.024086
3538,-0.010555,-0.025317,-0.024086
3539,-0.010555,-0.025317,-0.009662
3540,-0.033523,-0.009543,0.004761
3541,-0.033523,-0.025317,0.004761
3542,-0.05649,-0.009543,0.004761
3543,-0.010555,-0.009543,0.019185
3544,0.035379,0.006231,0.004761
3545,-0.05649,-0.056865,0.004761
3546,0.012412,-0.025317,0.004761
3547,0.035379,-0.009543,0.004761
3548,0.012412,-0.009543,-0.009662
3549,-0.033523,0.006231,0.004761
3550,-0.010555,-0.041091,-0.03851
3551,0.058346,-0.025317,-0.024086
3552,0.012412,-0.009543,-0.009662
3553,-0.033523,-0.009543,0.004761
3554,0.012412,-0.009543,-0.009662
3555,-0.010555,-0.025317,-0.052934
3556,-0.010555,-0.009543,-0.024086
3557,0.035379,-0.025317,0.004761
3558,0.012412,-0.025317,-0.009662
3559,0.058346,-0.025317,-0.024086
3560,-0.010555,-0.041091,-0.03851
3561,0.012412,0.006231,0.004761
3562,-0.033523,-0.009543,0.019185
3563,0.012412,0.006231,-0.009662
3564,0.012412,-0.009543,0.004761
3565,-0.010555,0.006231,-0.009662
3566,-0.05649,-0.025317,-0.009662
3567,0.035379,0.006231,0.004761
3568,0.012412,-0.009543,-0.009662
3569,-0.010555,0.006231,0.004761
3570,-0.079457,-0.009543,0.004761
3571,-0.010555,-0.009543,-0.009662
3572,-0.010555,-0.009543,-0.009662
3573,-0.010555,0.006231,-0.009662
3574,-0.010555,-0.025317,0.004761
3575,0.035379,-0.009543,-0.009662
3576,-0.033523,0.006231,-0.024086
3577,0.035379,-0.009543,-0.009662
3578,0.012412,-0.025317,-0.009662
3579,-0.010555,-0.009543,0.004761
