# Requested Sampling Rate (Hz):,1000
# Actual Sampling Rate (Hz):,998.894
# Requested Duration (s):,5.0
# Actual Duration (s):,5.048
# REST Calibration:,831.4595862068991,832.6049655172403,833.6698965517227
# MAX Calibration:,875.0000,896.0000,903.0000
# Normalization: MVC-based  (x_norm = (x - REST) / (MAX - REST))
sample_idx,EMG1,EMG2,EMG3
0,0.012412,0.006231,-0.024086
1,-0.033523,-0.025317,0.004761
2,-0.033523,-0.025317,-0.009662
3,-0.05649,-0.009543,-0.009662
4,-0.010555,-0.025317,-0.009662
5,-0.010555,-0.009543,0.004761
6,-0.033523,-0.025317,0.004761
7,-0.033523,-0.025317,0.004761
8,0.035379,-0.025317,0.004761
9,-0.079457,-0.009543,-0.009662
10,-0.010555,-0.025317,-0.009662
11,-0.010555,-0.009543,-0.024086
12,0.035379,-0.025317,-0.009662
13,-0.05649,-0.009543,0.004761
14,0.012412,-0.025317,0.004761
15,0.012412,-0.025317,-0.024086
16,0.058346,-0.009543,-0.009662
17,0.035379,-0.009543,-0.024086
18,0.035379,-0.009543,-0.009662
19,-0.010555,-0.009543,-0.009662
20,0.035379,-0.009543,0.019185
21,0.012412,0.006231,0.004761
22,0.035379,-0.009543,0.019185
23,0.035379,0.006231,0.004761
24,0.012412,0.006231,-0.009662
25,-0.010555,-0.009543,0.004761
26,0.035379,-0.009543,-0.009662
27,-0.010555,-0.009543,-0.024086
28,0.012412,-0.009543,-0.009662
29,-0.010555,-0.025317,0.004761
30,-0.05649,-0.009543,0.004761
31,0.012412,-0.009543,0.004761
32,0.012412,-0.009543,-0.024086
33,-0.010555,-0.009543,0.004761
34,-0.033523,0.006231,0.004761
35,0.012412,-0.009543,-0.009662
36,-0.010555,-0.009543,-0.009662
37,-0.010555,-0.041091,0.004761
38,-0.010555,-0.009543,0.004761
39,-0.010555,-0.025317,-0.009662
40,-0.010555,-0.025317,-0.024086
41,-0.033523,-0.041091,-0.009662
42,0.012412,-0.009543,0.004761
43,0.058346,-0.009543,-0.009662
44,-0.010555,0.006231,-0.009662
45,0.012412,0.006231,-0.009662
46,0.035379,-0.009543,-0.009662
47,0.035379,-0.025317,-0.009662
48,0.012412,-0.009543,-0.009662
49,0.035379,-0.025317,0.004761
50,0.058346,-0.025317,0.019185
51,-0.010555,-0.009543,0.004761
52,-0.010555,0.006231,0.004761
53,0.012412,0.006231,-0.024086
54,-0.010555,-0.025317,-0.009662
55,-0.033523,0.006231,0.004761
56,-0.033523,-0.009543,-0.024086
57,-0.010555,-0.025317,-0.009662
58,0.012412,-0.009543,-0.009662
59,-0.033523,-0.041091,-0.009662
60,-0.010555,-0.025317,-0.024086
61,0.012412,-0.025317,0.004761
62,0.012412,-0.009543,-0.024086
63,-0.010555,-0.009543,-0.009662
64,0.012412,0.006231,0.004761
65,0.035379,0.006231,-0.009662
66,-0.010555,0.006231,-0.009662
67,-0.010555,0.006231,0.004761
68,0.035379,-0.009543,0.019185
69,0.035379,-0.009543,-0.009662
70,-0.010555,0.006231,-0.009662
71,0.012412,-0.025317,-0.009662
72,0.012412,-0.025317,0.004761
73,-0.010555,-0.009543,0.004761
74,-0.010555,-0.009543,0.004761
75,-0.010555,-0.009543,-0.009662
76,0.012412,-0.009543,0.004761
77,-0.010555,-0.009543,-0.009662
78,0.012412,-0.009543,-0.024086
79,0.035379,-0.009543,-0.024086
80,0.035379,0.006231,0.033609
81,0.012412,0.006231,0.004761
82,0.012412,-0.009543,0.004761
83,0.058346,-0.009543,0.004761
84,-0.010555,-0.009543,-0.009662
85,0.012412,-0.025317,-0.009662
86,-0.05649,-0.025317,0.004761
87,-0.010555,-0.009543,-0.009662
88,0.035379,-0.009543,0.004761
89,-0.010555,-0.025317,-0.009662
90,0.012412,0.006231,-0.024086
91,-0.010555,0.006231,-0.024086
92,-0.033523,-0.009543,-0.024086
93,-0.033523,-0.009543,-0.024086
94,0.012412,-0.025317,-0.024086
95,-0.010555,0.006231,-0.024086
96,-0.010555,-0.025317,0.004761
97,-0.010555,-0.009543,0.033609
98,0.012412,-0.009543,-0.009662
99,0.012412,-0.025317,0.004761
100,0.012412,-0.025317,0.004761
101,-0.05649,0.006231,0.004761
102,0.058346,-0.025317,-0.009662
103,-0.010555,-0.009543,-0.024086
104,0.012412,-0.025317,0.019185
105,-0.010555,-0.009543,0.004761
106,0.035379,-0.009543,0.004761
107,0.035379,-0.009543,0.004761
108,0.012412,-0.025317,0.004761
109,0.035379,0.006231,0.019185
110,0.035379,-0.009543,0.019185
111,0.035379,-0.009543,0.019185
112,0.012412,0.006231,0.019185
113,-0.010555,0.006231,0.019185
114,-0.033523,-0.025317,-0.009662
115,-0.010555,-0.009543,-0.024086
116,-0.010555,-0.025317,-0.03851
117,-0.033523,-0.025317,-0.03851
118,-0.033523,-0.009543,-0.024086
119,-0.033523,-0.025317,-0.024086
120,-0.033523,0.006231,-0.009662
121,0.012412,-0.009543,-0.009662
122,0.035379,0.006231,0.004761
123,0.035379,-0.025317,0.004761
124,-0.033523,-0.009543,0.004761
125,-0.033523,-0.009543,-0.009662
126,-0.010555,-0.025317,-0.009662
127,0.035379,-0.041091,-0.024086
128,0.012412,-0.009543,-0.024086
129,0.035379,0.006231,-0.024086
130,0.012412,-0.009543,-0.009662
131,0.035379,-0.025317,-0.009662
132,0.012412,-0.009543,-0.009662
133,0.058346,0.006231,-0.009662
134,0.035379,0.006231,0.004761
135,0.012412,-0.009543,0.004761
136,0.012412,-0.025317,0.004761
137,0.035379,-0.009543,0.004761
138,-0.010555,-0.009543,0.004761
139,0.012412,-0.025317,-0.009662
140,-0.033523,-0.025317,-0.009662
141,0.035379,-0.009543,-0.03851
142,-0.010555,-0.009543,0.004761
143,0.012412,-0.025317,-0.009662
144,-0.05649,-0.009543,-0.009662
145,-0.010555,-0.009543,-0.009662
146,0.035379,-0.009543,-0.009662
147,-0.010555,-0.009543,0.004761
148,-0.033523,0.006231,-0.009662
149,-0.010555,-0.009543,0.019185
150,-0.010555,0.006231,0.004761
151,-0.033523,0.006231,0.033609
152,-0.010555,-0.009543,0.019185
153,0.012412,-0.009543,0.019185
154,0.035379,-0.025317,-0.009662
155,-0.033523,-0.009543,0.004761
156,-0.05649,-0.009543,-0.009662
157,0.012412,-0.025317,-0.009662
158,0.058346,-0.025317,0.004761
159,-0.033523,-0.009543,-0.009662
160,-0.033523,0.006231,-0.009662
161,0.012412,-0.009543,-0.009662
162,-0.010555,-0.025317,-0.024086
163,-0.010555,-0.009543,-0.024086
164,-0.033523,-0.025317,-0.009662
165,0.058346,-0.009543,-0.009662
166,0.012412,-0.025317,-0.009662
167,-0.010555,-0.025317,-0.024086
168,0.012412,-0.009543,-0.009662
169,0.012412,-0.009543,-0.009662
170,-0.010555,-0.009543,-0.009662
171,-0.033523,-0.009543,0.004761
172,-0.033523,-0.009543,0.004761
173,-0.033523,-0.025317,0.004761
174,0.012412,-0.009543,0.019185
175,-0.010555,-0.025317,0.004761
176,0.035379,0.006231,0.019185
177,-0.079457,-0.009543,-0.009662
178,-0.010555,-0.009543,-0.009662
179,0.012412,-0.009543,-0.009662
180,0.012412,0.006231,0.004761
181,-0.010555,-0.009543,-0.009662
182,-0.010555,-0.025317,-0.024086
183,0.012412,-0.009543,-0.03851
184,0.012412,-0.025317,-0.024086
185,-0.010555,-0.025317,0.004761
186,-0.010555,-0.025317,-0.024086
187,-0.033523,-0.009543,-0.024086
188,0.012412,-0.009543,-0.024086
189,0.012412,-0.009543,-0.024086
190,-0.010555,-0.025317,-0.024086
191,0.012412,-0.025317,-0.009662
192,-0.010555,0.006231,-0.024086
193,-0.010555,-0.009543,-0.009662
194,0.081313,-0.009543,0.019185
195,0.10428,0.006231,0.019185
196,0.035379,0.006231,0.019185
197,-0.010555,-0.009543,0.033609
198,0.058346,-0.009543,0.019185
199,0.012412,0.006231,0.004761
200,0.012412,0.006231,0.019185
201,0.012412,0.006231,0.004761
202,-0.05649,0.006231,0.004761
203,-0.010555,0.006231,-0.024086
204,0.012412,-0.009543,0.004761
205,-0.033523,-0.009543,0.004761
206,-0.010555,-0.009543,-0.009662
207,-0.05649,0.006231,-0.024086
208,-0.033523,0.006231,0.004761
209,0.012412,-0.009543,-0.009662
210,0.012412,-0.025317,-0.009662
211,-0.010555,-0.025317,-0.024086
212,-0.010555,-0.025317,-0.03851
213,-0.010555,-0.025317,-0.024086
214,0.058346,-0.009543,-0.009662
215,-0.010555,-0.025317,-0.009662
216,0.012412,0.006231,0.004761
217,0.012412,0.006231,0.004761
218,0.035379,-0.009543,0.019185
219,0.012412,-0.009543,0.019185
220,0.012412,0.006231,0.019185
221,0.058346,0.006231,0.019185
222,0.035379,-0.009543,0.019185
223,0.012412,-0.009543,0.033609
224,0.012412,-0.025317,0.019185
225,0.081313,-0.009543,0.004761
226,0.035379,0.006231,0.004761
227,-0.033523,-0.009543,-0.009662
228,-0.033523,-0.025317,0.004761
229,-0.010555,-0.041091,-0.009662
230,0.012412,-0.041091,-0.024086
231,0.035379,-0.009543,-0.024086
232,-0.05649,0.006231,0.004761
233,0.012412,-0.009543,0.004761
234,-0.010555,-0.009543,0.004761
235,0.012412,-0.025317,-0.009662
236,-0.05649,-0.025317,-0.009662
237,-0.010555,-0.025317,-0.009662
238,-0.010555,-0.009543,0.004761
239,-0.010555,-0.009543,0.004761
240,-0.010555,0.022005,0.004761
241,-0.010555,-0.009543,0.019185
242,0.035379,-0.025317,0.004761
243,0.012412,-0.025317,0.004761
244,-0.010555,0.006231,-0.009662
245,0.058346,0.006231,-0.009662
246,0.035379,-0.025317,-0.024086
247,-0.033523,-0.041091,-0.024086
248,0.035379,-0.025317,-0.024086
249,-0.010555,-0.009543,-0.024086
250,-0.010555,-0.009543,-0.024086
251,0.012412,-0.009543,0.004761
252,0.012412,-0.009543,-0.009662
253,0.035379,-0.025317,0.004761
254,0.012412,-0.025317,0.004761
255,-0.010555,-0.025317,0.019185
256,0.058346,0.006231,0.048033
257,0.035379,0.006231,0.033609
258,0.012412,0.006231,0.033609
259,0.012412,-0.009543,0.033609
260,0.035379,-0.009543,-0.009662
261,0.012412,0.006231,-0.009662
262,-0.033523,0.006231,-0.03851
263,-0.033523,0.006231,-0.052934
264,-0.05649,-0.009543,-0.052934
265,-0.010555,-0.009543,-0.052934
266,-0.010555,-0.009543,-0.024086
267,0.012412,-0.041091,-0.009662
268,-0.010555,-0.072639,-0.009662
269,-0.033523,-0.025317,0.019185
270,-0.033523,-0.009543,0.033609
271,-0.010555,-0.009543,0.004761
272,0.058346,-0.009543,0.004761
273,0.012412,-0.009543,0.004761
274,-0.033523,-0.009543,-0.009662
275,-0.010555,-0.009543,0.019185
276,-0.010555,-0.009543,0.004761
277,0.058346,-0.025317,0.004761
278,-0.010555,-0.009543,0.033609
279,0.012412,0.006231,0.033609
280,0.058346,0.022005,0.048033
281,0.012412,0.006231,0.033609
282,0.035379,-0.009543,0.048033
283,0.058346,0.022005,0.019185
284,0.10428,0.006231,0.004761
285,0.035379,-0.009543,0.019185
286,0.012412,-0.009543,0.033609
287,0.035379,-0.009543,0.004761
288,-0.010555,-0.025317,-0.024086
289,-0.010555,-0.041091,-0.024086
290,-0.010555,-0.025317,-0.024086
291,-0.010555,-0.025317,-0.009662
292,0.012412,-0.009543,0.033609
293,0.058346,0.022005,0.048033
294,-0.010555,0.006231,0.048033
295,0.012412,-0.009543,0.033609
296,-0.010555,-0.009543,0.004761
297,-0.079457,-0.025317,-0.009662
298,-0.010555,0.006231,0.019185
299,0.012412,0.006231,0.019185
300,0.012412,0.022005,0.033609
301,-0.010555,0.03778,0.048033
302,-0.033523,-0.025317,-0.009662
303,-0.010555,-0.025317,-0.024086
304,-0.010555,-0.025317,-0.052934
305,-0.033523,-0.041091,-0.052934
306,0.012412,-0.041091,-0.081781
307,0.058346,-0.056865,-0.096205
308,0.012412,-0.041091,-0.081781
309,0.012412,-0.025317,-0.03851
310,-0.010555,-0.009543,-0.009662
311,-0.010555,-0.041091,0.004761
312,0.012412,-0.025317,0.004761
313,-0.010555,0.006231,0.019185
314,0.058346,0.006231,0.048033
315,0.012412,0.022005,0.062456
316,0.035379,0.006231,0.07688
317,0.035379,0.006231,0.07688
318,0.081313,0.022005,0.105728
319,0.058346,-0.009543,0.091304
320,0.058346,0.006231,0.062456
321,0.012412,-0.009543,0.033609
322,-0.033523,-0.009543,-0.009662
323,-0.05649,-0.072639,-0.081781
324,-0.079457,-0.072639,-0.096205
325,-0.05649,-0.009543,-0.067357
326,-0.05649,0.022005,-0.009662
327,-0.125391,0.03778,0.062456
328,-0.079457,0.053554,0.07688
329,-0.079457,0.03778,0.062456
330,-0.05649,0.006231,0.033609
331,-0.05649,0.006231,0.033609
332,-0.033523,-0.025317,-0.024086
333,0.058346,0.03778,-0.052934
334,0.127248,0.085102,-0.052934
335,0.150215,0.085102,-0.024086
336,0.150215,0.085102,-0.024086
337,0.10428,0.069328,-0.052934
338,0.012412,0.006231,-0.096205
339,0.012412,-0.056865,-0.067357
340,-0.033523,-0.15151,-0.052934
341,0.012412,-0.183058,-0.024086
342,0.012412,-0.056865,0.033609
343,0.035379,-0.041091,0.091304
344,-0.010555,-0.009543,0.134575
345,0.012412,0.006231,0.105728
346,-0.010555,0.006231,0.062456
347,-0.010555,0.022005,0.033609
348,-0.010555,-0.025317,-0.052934
349,-0.033523,-0.041091,-0.125052
350,-0.05649,-0.056865,-0.139476
351,-0.079457,-0.056865,-0.110629
352,-0.033523,-0.041091,-0.03851
353,0.035379,-0.025317,-0.009662
354,0.012412,-0.025317,0.004761
355,-0.033523,-0.025317,-0.024086
356,-0.033523,-0.041091,-0.067357
357,-0.05649,-0.041091,-0.110629
358,-0.05649,-0.056865,-0.081781
359,-0.033523,-0.025317,-0.009662
360,0.035379,-0.009543,0.004761
361,0.035379,0.022005,0.033609
362,-0.010555,0.006231,0.019185
363,-0.033523,-0.025317,-0.03851
364,-0.033523,-0.056865,-0.110629
365,-0.033523,-0.025317,-0.052934
366,0.058346,0.006231,0.062456
367,0.035379,0.03778,0.148999
368,0.081313,0.053554,0.221118
369,0.10428,0.069328,0.221118
370,0.035379,0.006231,0.07688
371,-0.033523,-0.025317,-0.024086
372,-0.010555,-0.041091,-0.067357
373,-0.079457,-0.041091,-0.081781
374,-0.033523,-0.025317,-0.052934
375,0.012412,0.006231,-0.009662
376,0.081313,0.006231,0.004761
377,0.058346,0.022005,0.048033
378,0.081313,0.006231,0.048033
379,0.10428,0.022005,0.048033
380,0.035379,-0.009543,0.019185
381,-0.05649,-0.041091,-0.009662
382,-0.033523,0.006231,0.019185
383,-0.033523,-0.009543,-0.024086
384,-0.033523,-0.056865,-0.067357
385,-0.010555,-0.056865,-0.096205
386,-0.033523,-0.088413,-0.139476
387,-0.010555,-0.025317,-0.139476
388,0.035379,-0.025317,-0.110629
389,0.035379,-0.009543,-0.03851
390,-0.010555,0.022005,0.07688
391,-0.033523,0.03778,0.105728
392,-0.033523,0.03778,0.148999
393,0.035379,0.022005,0.206694
394,0.081313,0.053554,0.206694
395,0.127248,0.03778,0.163423
396,0.127248,-0.025317,-0.009662
397,0.035379,-0.15151,-0.168324
398,0.081313,-0.15151,-0.182747
399,0.127248,-0.119962,-0.168324
400,0.173182,-0.056865,-0.1539
401,0.173182,-0.041091,-0.067357
402,0.127248,0.006231,0.048033
403,-0.079457,0.03778,0.148999
404,-0.102424,0.03778,0.19227
405,-0.079457,0.03778,0.105728
406,-0.125391,-0.009543,-0.024086
407,-0.21726,-0.104187,-0.168324
408,-0.240227,-0.104187,-0.211595
409,-0.21726,-0.088413,-0.1539
410,-0.05649,-0.056865,-0.096205
411,-0.010555,-0.025317,-0.052934
412,0.150215,0.022005,0.033609
413,0.150215,0.006231,0.091304
414,0.196149,0.053554,0.091304
415,0.127248,0.03778,0.105728
416,0.035379,0.03778,0.091304
417,0.012412,-0.009543,0.004761
418,-0.05649,-0.025317,-0.024086
419,-0.102424,-0.056865,-0.052934
420,-0.079457,-0.056865,-0.024086
421,0.035379,0.006231,0.091304
422,0.127248,0.053554,0.148999
423,0.150215,0.053554,0.163423
424,0.127248,0.053554,0.120151
425,0.081313,-0.025317,-0.009662
426,0.10428,-0.072639,-0.125052
427,0.127248,-0.025317,-0.096205
428,0.035379,-0.088413,-0.182747
429,0.012412,-0.072639,-0.139476
430,0.058346,-0.041091,-0.081781
431,0.012412,-0.025317,-0.081781
432,-0.033523,-0.056865,-0.081781
433,0.035379,0.006231,0.004761
434,0.058346,0.022005,0.091304
435,0.265051,0.03778,0.134575
436,0.242083,0.03778,0.120151
437,0.173182,-0.009543,0.019185
438,0.127248,-0.056865,-0.110629
439,0.058346,-0.104187,-0.240442
440,-0.171326,-0.072639,-0.139476
441,-0.148358,-0.088413,-0.081781
442,-0.125391,-0.088413,-0.067357
443,-0.194293,-0.056865,-0.024086
444,-0.240227,0.006231,0.062456
445,-0.079457,0.03778,0.134575
446,-0.05649,0.053554,0.177846
447,-0.033523,0.006231,0.091304
448,-0.21726,-0.088413,-0.125052
449,-0.148358,-0.056865,-0.096205
450,0.058346,-0.025317,-0.052934
451,0.012412,0.022005,0.062456
452,0.012412,0.022005,0.091304
453,0.012412,0.006231,0.019185
454,0.058346,0.022005,-0.024086
455,-0.010555,0.053554,-0.052934
456,-0.079457,0.03778,-0.067357
457,-0.010555,0.053554,-0.067357
458,0.058346,0.069328,0.033609
459,0.081313,0.11665,0.105728
460,0.10428,0.069328,0.091304
461,0.081313,-0.056865,0.048033
462,0.012412,-0.088413,0.091304
463,-0.033523,-0.009543,0.091304
464,-0.079457,0.006231,0.033609
465,-0.194293,-0.025317,-0.024086
466,-0.125391,-0.072639,-0.081781
467,-0.033523,-0.056865,-0.052934
468,0.012412,-0.056865,0.019185
469,0.012412,-0.072639,0.019185
470,-0.079457,-0.119962,-0.052934
471,-0.033523,-0.119962,-0.139476
472,0.058346,-0.072639,-0.168324
473,0.10428,0.006231,-0.081781
474,0.012412,-0.025317,-0.024086
475,-0.033523,0.03778,-0.03851
476,0.012412,0.163972,0.019185
477,0.150215,0.274391,0.134575
478,0.10428,0.227069,0.120151
479,0.10428,0.227069,0.091304
480,0.127248,0.179746,0.062456
481,0.173182,0.148198,0.062456
482,0.265051,0.11665,0.163423
483,0.196149,0.006231,0.221118
484,-0.194293,0.03778,0.148999
485,-0.400997,0.022005,-0.168324
486,-0.355063,0.085102,-0.312561
487,-0.148358,0.100876,-0.168324
488,0.333952,0.069328,-0.052934
489,0.471755,-0.041091,-0.024086
490,0.494722,-0.119962,-0.024086
491,0.448788,-0.214606,-0.067357
492,0.494722,-0.261928,-0.081781
493,0.379886,-0.214606,-0.009662
494,0.219116,-0.135736,0.019185
495,-0.102424,-0.167284,-0.009662
496,-0.584735,-0.119962,-0.009662
497,-0.355063,-0.025317,0.048033
498,-0.309129,0.006231,0.105728
499,-0.355063,-0.025317,0.134575
500,-0.286161,-0.088413,0.033609
501,-0.125391,-0.183058,-0.052934
502,-0.102424,-0.135736,0.004761
503,-0.125391,-0.072639,-0.067357
504,-0.263194,-0.056865,-0.168324
505,-0.102424,-0.025317,-0.182747
506,-0.033523,-0.009543,-0.139476
507,0.058346,0.03778,-0.03851
508,0.10428,0.03778,0.07688
509,0.265051,0.069328,0.221118
510,0.219116,0.132424,0.19227
511,0.058346,0.053554,0.091304
512,-0.010555,-0.025317,-0.052934
513,-0.010555,-0.072639,-0.182747
514,-0.171326,-0.041091,-0.211595
515,0.058346,0.132424,-0.096205
516,0.150215,0.148198,-0.009662
517,-0.125391,0.163972,-0.024086
518,-0.05649,0.053554,-0.024086
519,0.058346,-0.056865,0.004761
520,0.150215,-0.088413,0.148999
521,0.150215,-0.088413,0.322084
522,-0.05649,-0.119962,0.30766
523,-0.010555,-0.167284,0.120151
524,0.081313,-0.214606,-0.139476
525,-0.010555,-0.15151,-0.211595
526,0.012412,-0.072639,-0.052934
527,-0.102424,-0.056865,-0.024086
528,-0.148358,-0.056865,-0.03851
529,-0.102424,-0.041091,-0.110629
530,-0.102424,-0.041091,-0.081781
531,-0.125391,-0.088413,-0.081781
532,-0.079457,-0.056865,-0.081781
533,-0.010555,-0.025317,-0.03851
534,0.081313,0.03778,0.091304
535,0.10428,0.100876,0.206694
536,0.127248,0.100876,0.235541
537,0.058346,0.022005,0.148999
538,0.012412,-0.056865,-0.081781
539,-0.033523,-0.072639,-0.125052
540,-0.033523,-0.041091,-0.067357
541,-0.05649,-0.009543,-0.03851
542,-0.05649,0.022005,-0.081781
543,-0.102424,-0.072639,-0.254866
544,-0.194293,-0.119962,-0.298137
545,-0.240227,-0.104187,-0.1539
546,-0.079457,-0.041091,-0.024086
547,0.058346,-0.009543,0.120151
548,0.173182,0.03778,0.206694
549,0.265051,0.069328,0.278813
550,0.356919,0.085102,0.235541
551,0.288018,0.100876,0.091304
552,0.196149,0.085102,0.062456
553,0.242083,0.053554,0.062456
554,0.173182,0.022005,0.019185
555,0.012412,-0.025317,-0.067357
556,-0.171326,-0.104187,-0.197171
557,-0.171326,-0.15151,-0.26929
558,-0.125391,-0.15151,-0.240442
559,-0.125391,-0.088413,-0.110629
560,-0.010555,-0.009543,0.019185
561,0.035379,0.006231,0.033609
562,-0.010555,-0.056865,-0.067357
563,-0.125391,-0.041091,-0.081781
564,0.012412,0.006231,-0.052934
565,0.058346,0.03778,0.019185
566,0.035379,0.053554,0.120151
567,0.058346,0.085102,0.235541
568,0.150215,0.100876,0.293236
569,0.081313,0.03778,0.177846
570,-0.079457,-0.025317,0.033609
571,0.012412,-0.041091,-0.03851
572,-0.05649,-0.104187,-0.1539
573,-0.102424,-0.135736,-0.240442
574,-0.102424,-0.104187,-0.197171
575,0.012412,-0.009543,-0.096205
576,0.058346,0.006231,-0.052934
577,0.150215,0.03778,0.062456
578,0.196149,0.11665,0.206694
579,0.265051,0.132424,0.336508
580,0.265051,0.085102,0.249965
581,-0.033523,-0.072639,-0.024086
582,-0.309129,-0.119962,-0.211595
583,-0.171326,-0.056865,-0.1539
584,-0.05649,0.006231,-0.024086
585,0.035379,0.069328,0.062456
586,0.012412,0.022005,0.033609
587,-0.010555,-0.041091,-0.009662
588,-0.033523,-0.072639,-0.009662
589,0.012412,-0.072639,-0.081781
590,-0.033523,-0.088413,-0.182747
591,-0.033523,-0.025317,-0.125052
592,0.058346,0.053554,0.019185
593,0.219116,0.132424,0.091304
594,0.012412,0.03778,0.033609
595,-0.010555,-0.009543,0.048033
596,0.035379,0.022005,0.048033
597,-0.079457,0.053554,0.120151
598,0.058346,0.100876,0.235541
599,0.012412,0.006231,0.120151
600,-0.079457,-0.088413,-0.03851
601,-0.079457,-0.119962,-0.168324
602,-0.148358,-0.15151,-0.312561
603,-0.102424,-0.104187,-0.240442
604,0.012412,-0.025317,-0.081781
605,0.012412,-0.025317,-0.052934
606,-0.033523,-0.056865,-0.052934
607,0.10428,-0.009543,-0.009662
608,0.219116,0.069328,0.177846
609,0.265051,0.11665,0.249965
610,0.242083,0.053554,0.134575
611,0.10428,-0.041091,-0.024086
612,0.035379,-0.025317,-0.139476
613,-0.171326,-0.104187,-0.168324
614,-0.286161,-0.072639,-0.081781
615,-0.079457,0.006231,0.033609
616,-0.010555,0.069328,0.148999
617,-0.033523,0.022005,0.105728
618,-0.21726,-0.088413,-0.139476
619,-0.171326,-0.119962,-0.283714
620,-0.010555,-0.072639,-0.240442
621,0.058346,-0.009543,-0.110629
622,0.127248,0.100876,0.091304
623,0.196149,0.11665,0.221118
624,0.127248,0.085102,0.221118
625,-0.05649,-0.041091,0.033609
626,-0.102424,-0.056865,0.019185
627,0.10428,0.069328,0.249965
628,0.127248,0.085102,0.365355
629,0.081313,0.006231,0.07688
630,0.10428,-0.041091,-0.125052
631,-0.102424,-0.135736,-0.298137
632,-0.102424,-0.135736,-0.240442
633,-0.05649,-0.104187,-0.1539
634,-0.05649,-0.072639,-0.125052
635,0.012412,-0.056865,-0.067357
636,0.012412,0.006231,0.148999
637,0.081313,0.069328,0.293236
638,0.173182,0.085102,0.177846
639,0.035379,0.022005,0.048033
640,-0.05649,-0.041091,-0.067357
641,0.035379,-0.009543,-0.052934
642,0.012412,-0.041091,-0.081781
643,-0.033523,-0.009543,-0.024086
644,-0.033523,-0.009543,-0.009662
645,-0.079457,-0.056865,-0.067357
646,-0.010555,-0.025317,-0.03851
647,0.012412,0.022005,0.062456
648,0.058346,0.006231,0.148999
649,0.035379,-0.009543,0.120151
650,0.035379,0.022005,0.105728
651,-0.010555,0.006231,0.033609
652,-0.033523,-0.041091,-0.052934
653,-0.05649,-0.041091,-0.081781
654,-0.010555,-0.088413,-0.139476
655,-0.148358,-0.088413,-0.067357
656,-0.102424,-0.041091,-0.052934
657,0.035379,0.006231,0.019185
658,0.127248,0.053554,0.048033
659,0.10428,0.11665,0.091304
660,0.058346,0.085102,0.206694
661,0.081313,0.085102,0.264389
662,0.081313,0.03778,0.07688
663,0.012412,-0.056865,-0.182747
664,-0.05649,-0.104187,-0.312561
665,-0.125391,-0.135736,-0.298137
666,-0.05649,-0.119962,-0.254866
667,-0.05649,-0.088413,-0.197171
668,-0.010555,-0.025317,-0.081781
669,0.081313,0.053554,0.019185
670,0.081313,0.085102,-0.009662
671,0.058346,0.053554,-0.009662
672,0.081313,-0.009543,-0.009662
673,0.127248,0.022005,0.062456
674,0.219116,0.069328,0.048033
675,0.127248,0.022005,-0.024086
676,0.058346,-0.025317,0.004761
677,-0.125391,-0.056865,-0.03851
678,-0.102424,-0.009543,0.120151
679,-0.125391,-0.009543,0.206694
680,-0.148358,-0.025317,0.148999
681,-0.033523,-0.041091,0.07688
682,-0.033523,-0.056865,-0.096205
683,0.058346,-0.041091,-0.182747
684,0.035379,0.006231,-0.110629
685,0.012412,-0.056865,-0.125052
686,-0.125391,-0.119962,-0.226019
687,-0.125391,-0.135736,-0.370256
688,-0.05649,-0.119962,-0.485646
689,-0.033523,-0.119962,-0.442375
690,-0.010555,-0.072639,-0.240442
691,0.081313,-0.025317,0.004761
692,0.081313,0.006231,0.249965
693,0.012412,-0.041091,0.177846
694,0.058346,-0.009543,0.105728
695,0.150215,0.053554,0.148999
696,0.196149,0.085102,0.235541
697,0.058346,0.069328,0.177846
698,-0.05649,0.006231,0.134575
699,0.127248,0.069328,0.249965
700,0.196149,0.163972,0.394203
701,0.196149,0.132424,0.451898
702,-0.05649,0.03778,0.30766
703,-0.171326,-0.009543,0.278813
704,-0.102424,0.006231,0.30766
705,-0.033523,-0.025317,0.120151
706,-0.102424,-0.104187,-0.110629
707,-0.079457,-0.088413,-0.1539
708,-0.033523,-0.072639,-0.139476
709,-0.05649,-0.104187,-0.168324
710,-0.010555,-0.088413,-0.110629
711,-0.033523,-0.072639,-0.03851
712,0.012412,0.006231,0.062456
713,0.035379,0.022005,0.120151
714,0.127248,0.085102,0.206694
715,0.127248,0.132424,0.235541
716,0.127248,0.100876,0.177846
717,-0.033523,-0.009543,0.019185
718,-0.125391,-0.119962,-0.067357
719,-0.079457,-0.104187,-0.03851
720,-0.010555,-0.072639,-0.096205
721,0.127248,-0.009543,-0.182747
722,0.10428,0.006231,-0.182747
723,0.127248,0.006231,-0.096205
724,0.058346,-0.009543,-0.024086
725,0.058346,-0.009543,0.033609
726,0.081313,-0.025317,-0.03851
727,-0.033523,-0.041091,-0.052934
728,-0.125391,0.006231,0.048033
729,-0.010555,0.053554,0.105728
730,0.10428,0.085102,0.177846
731,0.012412,-0.041091,0.120151
732,-0.05649,-0.056865,-0.03851
733,-0.079457,-0.088413,-0.168324
734,-0.010555,-0.072639,-0.081781
735,0.012412,-0.009543,-0.03851
736,-0.05649,-0.025317,-0.052934
737,-0.010555,-0.041091,-0.03851
738,0.058346,0.03778,0.019185
739,-0.05649,0.053554,0.07688
740,-0.033523,0.053554,0.148999
741,0.012412,0.03778,0.07688
742,-0.125391,-0.041091,-0.081781
743,-0.148358,-0.088413,-0.139476
744,-0.079457,-0.056865,-0.139476
745,0.012412,-0.025317,-0.067357
746,0.012412,-0.056865,-0.081781
747,0.150215,-0.025317,-0.024086
748,0.035379,-0.041091,-0.03851
749,0.058346,-0.009543,-0.081781
750,0.058346,0.022005,-0.024086
751,0.127248,0.069328,0.148999
752,0.150215,0.053554,0.105728
753,0.081313,-0.025317,0.019185
754,0.081313,-0.072639,-0.081781
755,0.150215,-0.041091,-0.110629
756,0.081313,-0.072639,-0.168324
757,0.035379,-0.072639,-0.096205
758,-0.010555,0.03778,-0.024086
759,0.012412,0.085102,0.062456
760,0.150215,0.100876,0.177846
761,0.127248,0.100876,0.07688
762,-0.010555,0.100876,0.004761
763,-0.263194,0.006231,-0.067357
764,-0.148358,-0.009543,-0.052934
765,-0.079457,-0.009543,-0.009662
766,-0.079457,-0.104187,-0.168324
767,-0.148358,-0.119962,-0.168324
768,-0.079457,-0.119962,-0.139476
769,-0.05649,-0.119962,-0.139476
770,-0.102424,-0.056865,-0.067357
771,-0.171326,-0.135736,-0.168324
772,-0.05649,-0.088413,-0.182747
773,-0.05649,-0.056865,-0.1539
774,-0.102424,-0.025317,-0.052934
775,0.058346,0.03778,0.07688
776,0.173182,0.100876,0.293236
777,0.173182,0.100876,0.394203
778,0.10428,0.069328,0.30766
779,0.058346,0.022005,0.19227
780,0.081313,0.022005,0.120151
781,0.058346,0.022005,0.062456
782,0.012412,0.006231,-0.052934
783,-0.033523,-0.056865,-0.024086
784,0.035379,-0.009543,0.048033
785,0.035379,-0.025317,-0.024086
786,-0.05649,-0.072639,-0.081781
787,-0.05649,-0.088413,-0.211595
788,-0.05649,-0.104187,-0.254866
789,-0.033523,-0.025317,-0.067357
790,-0.010555,0.022005,0.004761
791,-0.010555,0.022005,0.091304
792,0.012412,0.053554,0.120151
793,0.012412,-0.009543,-0.110629
794,-0.033523,-0.072639,-0.211595
795,-0.05649,-0.072639,-0.125052
796,0.035379,0.053554,0.148999
797,0.081313,0.085102,0.264389
798,0.035379,0.053554,0.221118
799,-0.05649,-0.041091,0.004761
800,-0.033523,-0.104187,-0.139476
801,-0.102424,-0.072639,-0.1539
802,-0.05649,-0.056865,-0.096205
803,0.012412,-0.041091,0.019185
804,-0.010555,-0.072639,0.019185
805,-0.010555,-0.056865,0.048033
806,0.035379,0.006231,0.048033
807,0.012412,0.006231,0.062456
808,-0.010555,-0.025317,0.019185
809,-0.010555,-0.009543,0.004761
810,0.035379,-0.009543,-0.009662
811,0.081313,-0.009543,0.019185
812,0.035379,0.03778,0.07688
813,0.081313,0.053554,0.120151
814,0.081313,0.053554,0.105728
815,0.035379,0.022005,0.033609
816,-0.010555,-0.009543,-0.024086
817,0.035379,0.022005,0.033609
818,0.10428,0.03778,0.105728
819,0.173182,0.100876,0.163423
820,0.196149,0.11665,0.177846
821,0.173182,0.085102,0.177846
822,-0.010555,-0.056865,0.062456
823,-0.21726,-0.198832,-0.211595
824,-0.194293,-0.183058,-0.298137
825,-0.21726,-0.15151,-0.38468
826,-0.079457,-0.088413,-0.283714
827,-0.05649,-0.056865,-0.1539
828,0.012412,-0.025317,-0.096205
829,0.058346,-0.009543,-0.009662
830,0.081313,0.053554,0.07688
831,0.081313,0.053554,0.07688
832,0.035379,0.022005,0.062456
833,-0.010555,-0.025317,0.019185
834,0.035379,-0.041091,-0.03851
835,-0.033523,-0.088413,-0.081781
836,-0.033523,-0.041091,-0.067357
837,0.012412,-0.009543,-0.067357
838,-0.010555,-0.041091,-0.03851
839,0.035379,0.006231,0.019185
840,0.012412,0.022005,0.033609
841,-0.010555,0.006231,-0.009662
842,0.012412,-0.025317,-0.024086
843,-0.010555,-0.009543,0.004761
844,-0.010555,-0.009543,0.033609
845,0.012412,-0.009543,-0.009662
846,0.035379,-0.041091,-0.052934
847,-0.010555,0.022005,0.004761
848,-0.010555,0.053554,0.062456
849,-0.010555,0.03778,0.091304
850,-0.010555,-0.041091,0.033609
851,0.058346,0.03778,0.062456
852,0.058346,0.03778,0.07688
853,0.081313,0.022005,0.105728
854,0.012412,-0.041091,-0.052934
855,-0.079457,-0.041091,-0.052934
856,-0.010555,-0.025317,-0.03851
857,-0.079457,-0.088413,-0.110629
858,-0.079457,-0.088413,-0.096205
859,-0.033523,-0.056865,-0.096205
860,0.035379,0.006231,-0.024086
861,0.058346,0.022005,0.019185
862,0.058346,0.022005,0.048033
863,0.012412,-0.009543,0.048033
864,-0.033523,0.022005,0.105728
865,0.058346,0.053554,0.134575
866,0.10428,0.069328,0.120151
867,0.081313,0.006231,0.048033
868,0.058346,-0.025317,-0.009662
869,-0.033523,-0.072639,-0.03851
870,-0.102424,-0.056865,-0.081781
871,-0.05649,-0.072639,-0.110629
872,-0.010555,-0.056865,-0.081781
873,0.035379,-0.009543,-0.03851
874,0.012412,-0.009543,-0.03851
875,-0.010555,-0.041091,-0.052934
876,-0.033523,-0.025317,-0.03851
877,0.012412,0.03778,0.07688
878,0.035379,0.053554,0.148999
879,-0.033523,0.006231,0.062456
880,-0.05649,-0.056865,-0.125052
881,-0.05649,-0.041091,-0.182747
882,-0.033523,-0.009543,-0.110629
883,-0.05649,-0.056865,-0.067357
884,0.035379,-0.009543,0.033609
885,0.081313,0.053554,0.07688
886,0.10428,0.053554,0.120151
887,0.035379,-0.009543,0.062456
888,-0.033523,-0.041091,-0.067357
889,-0.102424,-0.041091,-0.067357
890,-0.079457,-0.072639,-0.067357
891,-0.033523,-0.072639,-0.096205
892,0.012412,-0.072639,-0.024086
893,0.081313,-0.009543,0.004761
894,0.058346,-0.009543,-0.009662
895,0.081313,0.006231,0.033609
896,0.012412,-0.056865,-0.024086
897,-0.033523,-0.072639,-0.052934
898,-0.010555,-0.009543,-0.052934
899,0.035379,0.022005,0.004761
900,0.035379,0.053554,0.148999
901,0.058346,0.069328,0.19227
902,0.035379,0.022005,0.07688
903,0.012412,-0.041091,-0.009662
904,-0.010555,-0.056865,-0.110629
905,-0.05649,-0.088413,-0.110629
906,-0.05649,-0.041091,-0.110629
907,-0.05649,-0.041091,-0.081781
908,-0.079457,-0.041091,-0.03851
909,-0.079457,-0.041091,-0.052934
910,0.012412,-0.009543,0.004761
911,0.012412,-0.009543,0.004761
912,0.012412,-0.009543,0.004761
913,-0.05649,-0.025317,-0.024086
914,-0.010555,-0.009543,0.004761
915,-0.010555,-0.025317,0.019185
916,-0.033523,-0.041091,0.019185
917,-0.010555,-0.025317,0.004761
918,0.081313,-0.009543,0.019185
919,-0.010555,-0.025317,0.019185
920,-0.010555,-0.009543,-0.009662
921,0.012412,0.006231,0.004761
922,0.035379,0.03778,0.004761
923,0.10428,0.006231,0.004761
924,0.081313,0.006231,-0.009662
925,0.035379,-0.009543,0.004761
926,0.081313,-0.009543,0.004761
927,0.035379,-0.009543,0.019185
928,0.058346,-0.009543,-0.009662
929,0.058346,-0.025317,-0.009662
930,0.081313,-0.041091,0.004761
931,0.012412,-0.025317,-0.009662
932,0.012412,-0.041091,-0.024086
933,0.012412,-0.009543,-0.009662
934,0.012412,0.006231,-0.009662
935,-0.125391,-0.025317,-0.024086
936,-0.194293,0.006231,-0.03851
937,-0.033523,-0.009543,-0.009662
938,0.173182,0.006231,0.019185
939,0.10428,0.006231,0.019185
940,0.035379,0.006231,0.033609
941,0.058346,0.03778,0.091304
942,0.10428,0.03778,0.07688
943,-0.033523,-0.025317,-0.052934
944,-0.125391,-0.056865,-0.110629
945,-0.033523,-0.025317,-0.096205
946,0.035379,-0.041091,-0.03851
947,-0.033523,0.006231,-0.009662
948,-0.033523,-0.025317,-0.009662
949,0.035379,-0.041091,-0.009662
950,0.058346,-0.009543,-0.009662
951,-0.033523,-0.025317,-0.024086
952,0.035379,-0.025317,-0.009662
953,0.081313,-0.025317,0.004761
954,0.035379,0.006231,-0.009662
955,0.081313,0.022005,0.004761
956,0.058346,-0.009543,0.004761
957,0.081313,0.006231,0.004761
958,0.127248,-0.009543,0.033609
959,0.035379,0.022005,0.120151
960,0.012412,0.03778,0.091304
961,-0.05649,0.006231,0.033609
962,-0.125391,-0.025317,-0.03851
963,-0.05649,-0.025317,-0.081781
964,-0.079457,-0.056865,-0.067357
965,-0.010555,-0.009543,-0.067357
966,0.081313,-0.009543,-0.024086
967,0.10428,-0.009543,-0.024086
968,0.081313,-0.009543,-0.009662
969,0.173182,-0.009543,-0.03851
970,0.10428,-0.041091,-0.03851
971,0.10428,-0.025317,-0.024086
972,0.127248,0.006231,-0.024086
973,0.058346,0.006231,0.019185
974,-0.079457,0.006231,0.004761
975,-0.125391,-0.009543,0.019185
976,-0.010555,0.006231,0.033609
977,0.035379,0.022005,0.033609
978,-0.033523,-0.009543,0.033609
979,-0.010555,-0.009543,-0.009662
980,-0.010555,-0.056865,-0.081781
981,-0.033523,-0.041091,-0.096205
982,-0.079457,-0.009543,-0.067357
983,0.035379,-0.009543,-0.009662
984,0.012412,0.006231,-0.024086
985,0.058346,-0.025317,0.019185
986,0.012412,0.006231,0.033609
987,0.058346,-0.009543,-0.009662
988,0.081313,-0.041091,-0.024086
989,0.035379,0.006231,0.004761
990,-0.010555,-0.009543,0.019185
991,0.012412,-0.009543,0.004761
992,0.035379,-0.025317,0.004761
993,0.081313,-0.009543,0.004761
994,0.012412,-0.009543,-0.009662
995,-0.05649,0.006231,-0.024086
996,0.035379,-0.009543,0.033609
997,-0.010555,-0.009543,0.033609
998,-0.033523,-0.009543,0.004761
999,-0.033523,-0.009543,-0.009662
1000,0.012412,-0.009543,-0.009662
1001,0.012412,-0.025317,-0.024086
1002,-0.033523,0.006231,-0.009662
1003,-0.010555,-0.009543,0.004761
1004,0.012412,-0.009543,0.004761
1005,-0.033523,-0.009543,-0.024086
1006,0.012412,-0.041091,0.004761
1007,0.081313,-0.009543,-0.009662
1008,-0.010555,-0.041091,-0.03851
1009,-0.010555,-0.025317,-0.024086
1010,0.035379,0.006231,-0.024086
1011,0.035379,-0.009543,-0.024086
1012,0.035379,-0.009543,-0.024086
1013,-0.010555,-0.009543,0.004761
1014,0.012412,-0.009543,0.004761
1015,0.012412,-0.009543,0.019185
1016,0.035379,0.006231,0.033609
1017,-0.010555,0.006231,-0.009662
1018,0.081313,-0.041091,-0.009662
1019,0.035379,-0.009543,-0.009662
1020,0.012412,-0.009543,0.004761
1021,0.058346,-0.009543,0.004761
1022,0.081313,0.022005,0.004761
1023,0.035379,-0.009543,-0.009662
1024,0.012412,-0.025317,-0.03851
1025,-0.010555,-0.025317,-0.009662
1026,-0.033523,-0.025317,-0.009662
1027,0.012412,0.006231,-0.009662
1028,0.035379,0.022005,0.004761
1029,0.012412,-0.009543,0.004761
1030,-0.033523,-0.009543,-0.009662
1031,-0.010555,0.006231,-0.024086
1032,-0.033523,-0.009543,-0.024086
1033,-0.010555,-0.025317,0.004761
1034,0.012412,-0.009543,0.004761
1035,-0.010555,0.022005,0.033609
1036,-0.010555,0.006231,0.048033
1037,0.035379,0.006231,0.048033
1038,0.10428,0.006231,0.033609
1039,0.10428,-0.009543,-0.024086
1040,0.081313,0.006231,-0.052934
1041,0.127248,-0.009543,-0.03851
1042,0.150215,-0.025317,-0.067357
1043,0.081313,-0.025317,-0.052934
1044,0.012412,-0.009543,-0.067357
1045,-0.125391,-0.025317,-0.052934
1046,-0.21726,-0.041091,-0.03851
1047,-0.079457,-0.041091,-0.052934
1048,-0.05649,0.006231,-0.024086
1049,0.035379,-0.009543,0.019185
1050,-0.033523,-0.009543,0.019185
1051,-0.079457,0.006231,-0.009662
1052,-0.010555,0.006231,0.004761
1053,0.035379,-0.009543,0.019185
1054,0.012412,0.006231,0.004761
1055,0.012412,0.022005,0.019185
1056,0.035379,-0.009543,-0.009662
1057,0.012412,0.006231,-0.009662
1058,-0.010555,-0.025317,-0.009662
1059,0.035379,-0.009543,-0.024086
1060,0.058346,-0.025317,0.004761
1061,0.035379,-0.025317,-0.009662
1062,-0.010555,-0.009543,-0.009662
1063,-0.010555,-0.009543,0.004761
1064,-0.05649,0.006231,-0.009662
1065,0.012412,0.006231,0.019185
1066,-0.033523,0.006231,0.004761
1067,-0.05649,-0.025317,-0.009662
1068,-0.033523,-0.025317,-0.024086
1069,-0.033523,-0.041091,-0.024086
1070,0.012412,-0.009543,-0.009662
1071,-0.010555,-0.041091,-0.009662
1072,0.035379,-0.025317,-0.024086
1073,0.035379,0.006231,0.004761
1074,0.081313,0.006231,0.004761
1075,0.10428,0.006231,0.004761
1076,0.058346,-0.009543,-0.009662
1077,0.127248,-0.009543,-0.009662
1078,0.150215,0.006231,0.004761
1079,0.035379,0.022005,-0.009662
1080,0.058346,-0.009543,-0.009662
1081,0.012412,-0.025317,-0.009662
1082,-0.010555,-0.009543,0.004761
1083,0.012412,0.022005,0.019185
1084,0.058346,0.006231,0.019185
1085,0.035379,-0.025317,0.004761
1086,0.012412,-0.009543,-0.009662
1087,-0.010555,-0.009543,-0.009662
1088,0.035379,-0.009543,-0.024086
1089,0.012412,0.006231,-0.024086
1090,0.012412,-0.025317,-0.03851
1091,0.081313,-0.025317,-0.009662
1092,0.012412,0.022005,-0.009662
1093,-0.05649,-0.009543,-0.009662
1094,-0.033523,-0.009543,0.019185
1095,0.035379,-0.041091,0.004761
1096,0.012412,-0.041091,-0.024086
1097,0.012412,-0.025317,-0.009662
1098,-0.010555,-0.009543,-0.024086
1099,-0.010555,-0.041091,-0.009662
1100,0.012412,-0.009543,-0.024086
1101,0.035379,-0.009543,-0.009662
1102,0.058346,0.006231,-0.009662
1103,0.081313,-0.041091,0.019185
1104,0.035379,-0.025317,0.004761
1105,0.012412,-0.009543,-0.009662
1106,0.035379,-0.041091,-0.009662
1107,-0.033523,-0.025317,-0.024086
1108,-0.010555,-0.025317,-0.009662
1109,-0.010555,-0.025317,-0.009662
1110,-0.010555,-0.009543,-0.009662
1111,-0.033523,-0.025317,-0.009662
1112,-0.010555,-0.025317,0.004761
1113,-0.05649,-0.025317,-0.009662
1114,-0.102424,-0.009543,0.004761
1115,-0.033523,0.006231,-0.009662
1116,-0.010555,-0.009543,0.004761
1117,0.012412,0.03778,0.019185
1118,0.058346,-0.025317,0.004761
1119,0.058346,-0.009543,0.004761
1120,-0.010555,-0.009543,-0.024086
1121,0.035379,-0.009543,-0.03851
1122,0.035379,-0.009543,-0.03851
1123,0.035379,-0.009543,-0.03851
1124,0.012412,-0.009543,-0.052934
1125,0.012412,-0.025317,-0.009662
1126,0.035379,-0.025317,-0.024086
1127,-0.010555,-0.009543,-0.024086
1128,-0.079457,-0.009543,-0.009662
1129,-0.05649,-0.009543,-0.009662
1130,0.012412,-0.025317,0.019185
1131,-0.033523,-0.009543,-0.009662
1132,0.012412,-0.009543,0.019185
1133,0.035379,-0.009543,-0.009662
1134,0.012412,-0.009543,-0.009662
1135,0.035379,-0.009543,-0.03851
1136,0.035379,-0.009543,-0.009662
1137,-0.010555,-0.041091,-0.024086
1138,0.035379,-0.009543,-0.009662
1139,-0.05649,-0.009543,0.004761
1140,-0.010555,-0.009543,0.019185
1141,-0.010555,0.006231,0.019185
1142,-0.033523,0.006231,0.019185
1143,0.012412,-0.009543,-0.024086
1144,-0.010555,-0.009543,-0.009662
1145,-0.010555,-0.009543,0.004761
1146,-0.05649,0.006231,-0.009662
1147,0.035379,-0.009543,-0.009662
1148,0.035379,-0.025317,-0.024086
1149,0.035379,0.006231,0.004761
1150,0.058346,-0.009543,-0.009662
1151,-0.033523,-0.009543,-0.009662
1152,0.035379,-0.009543,-0.009662
1153,0.081313,-0.025317,0.004761
1154,0.012412,-0.009543,-0.009662
1155,0.012412,-0.025317,0.004761
1156,0.035379,-0.009543,-0.024086
1157,-0.010555,0.006231,0.004761
1158,-0.033523,0.006231,0.004761
1159,-0.033523,-0.009543,0.004761
1160,0.058346,-0.009543,0.004761
1161,0.012412,0.006231,0.004761
1162,-0.010555,0.006231,0.019185
1163,-0.033523,0.03778,0.004761
1164,-0.033523,-0.025317,-0.009662
1165,0.012412,0.006231,-0.024086
1166,0.012412,-0.009543,-0.024086
1167,-0.033523,-0.041091,-0.052934
1168,-0.033523,-0.009543,-0.024086
1169,-0.010555,-0.025317,-0.009662
1170,-0.033523,-0.009543,-0.009662
1171,-0.010555,-0.025317,0.004761
1172,0.035379,-0.009543,-0.009662
1173,-0.010555,-0.009543,-0.009662
1174,0.012412,-0.009543,-0.024086
1175,0.035379,-0.009543,-0.009662
1176,-0.010555,-0.009543,0.004761
1177,0.035379,-0.025317,-0.009662
1178,0.035379,-0.025317,-0.009662
1179,0.035379,-0.009543,0.019185
1180,0.081313,-0.009543,0.019185
1181,0.035379,-0.009543,-0.009662
1182,0.012412,-0.009543,-0.009662
1183,0.058346,-0.009543,-0.009662
1184,0.012412,0.006231,0.004761
1185,0.012412,-0.025317,-0.009662
1186,0.058346,0.006231,-0.009662
1187,-0.010555,0.022005,0.004761
1188,0.012412,-0.025317,0.004761
1189,-0.033523,-0.009543,-0.024086
1190,-0.05649,-0.025317,-0.009662
1191,0.012412,-0.025317,-0.024086
1192,0.012412,-0.025317,-0.024086
1193,-0.033523,-0.025317,-0.024086
1194,-0.033523,-0.009543,-0.009662
1195,0.035379,-0.009543,-0.009662
1196,0.012412,0.006231,0.004761
1197,-0.010555,0.006231,0.004761
1198,-0.033523,0.006231,0.019185
1199,-0.05649,0.022005,0.004761
1200,-0.033523,0.006231,-0.009662
1201,-0.05649,0.006231,-0.009662
1202,-0.010555,-0.025317,-0.009662
1203,0.081313,-0.025317,0.019185
1204,0.081313,-0.025317,-0.009662
1205,0.035379,-0.041091,-0.009662
1206,0.058346,-0.009543,-0.024086
1207,0.173182,-0.009543,0.004761
1208,0.219116,0.022005,-0.009662
1209,0.196149,0.006231,-0.009662
1210,0.150215,0.022005,-0.009662
1211,0.058346,0.006231,0.004761
1212,-0.125391,0.006231,0.004761
1213,-0.148358,-0.009543,-0.024086
1214,-0.102424,-0.025317,-0.009662
1215,-0.05649,-0.056865,-0.009662
1216,-0.05649,-0.056865,-0.009662
1217,0.012412,-0.009543,-0.009662
1218,-0.05649,0.006231,0.004761
1219,-0.033523,0.006231,0.004761
1220,-0.033523,-0.009543,-0.009662
1221,-0.033523,-0.025317,-0.009662
1222,-0.010555,-0.009543,0.004761
1223,-0.010555,-0.009543,-0.009662
1224,-0.033523,-0.025317,0.004761
1225,0.035379,0.006231,0.004761
1226,0.035379,-0.009543,-0.009662
1227,-0.010555,-0.009543,-0.024086
1228,0.058346,-0.009543,-0.024086
1229,0.035379,-0.009543,0.004761
1230,-0.010555,0.006231,0.004761
1231,0.012412,-0.009543,-0.009662
1232,0.058346,-0.009543,-0.024086
1233,0.012412,0.006231,0.019185
1234,0.081313,-0.009543,-0.009662
1235,0.058346,-0.009543,-0.024086
1236,0.012412,-0.041091,-0.03851
1237,-0.079457,0.006231,0.019185
1238,-0.010555,0.006231,0.019185
1239,-0.010555,-0.025317,-0.009662
1240,0.058346,-0.025317,-0.009662
1241,0.035379,-0.009543,-0.009662
1242,-0.010555,0.006231,-0.009662
1243,0.035379,-0.009543,-0.009662
1244,0.012412,-0.025317,-0.009662
1245,0.012412,-0.009543,0.004761
1246,-0.033523,-0.009543,0.004761
1247,-0.033523,-0.009543,-0.009662
1248,-0.010555,-0.009543,-0.009662
1249,-0.05649,-0.009543,0.004761
1250,-0.010555,-0.041091,0.004761
1251,-0.033523,-0.009543,-0.009662
1252,0.058346,-0.025317,-0.009662
1253,-0.033523,-0.025317,-0.009662
1254,-0.033523,-0.009543,-0.024086
1255,0.035379,0.006231,-0.009662
1256,0.035379,-0.025317,-0.009662
1257,-0.010555,-0.009543,0.004761
1258,0.035379,-0.009543,-0.009662
1259,-0.010555,0.006231,-0.009662
1260,0.058346,-0.025317,-0.024086
1261,-0.010555,0.022005,-0.009662
1262,-0.010555,0.006231,-0.009662
1263,-0.010555,-0.009543,0.033609
1264,0.035379,0.006231,0.019185
1265,0.012412,0.006231,0.019185
1266,0.035379,-0.009543,0.019185
1267,0.035379,-0.025317,-0.009662
1268,0.012412,0.006231,0.004761
1269,-0.033523,-0.009543,0.019185
1270,0.035379,0.006231,0.004761
1271,-0.033523,-0.025317,-0.03851
1272,-0.010555,-0.009543,-0.024086
1273,0.012412,-0.025317,-0.009662
1274,-0.033523,-0.009543,-0.009662
1275,-0.010555,-0.009543,-0.009662
1276,-0.010555,-0.009543,0.004761
1277,-0.033523,-0.025317,-0.024086
1278,0.012412,-0.009543,0.004761
1279,0.012412,0.022005,-0.024086
1280,0.012412,-0.025317,0.004761
1281,-0.033523,-0.009543,0.004761
1282,-0.033523,-0.009543,0.004761
1283,0.058346,-0.025317,-0.009662
1284,0.012412,-0.009543,-0.009662
1285,-0.033523,-0.009543,-0.009662
1286,0.012412,-0.009543,-0.009662
1287,0.012412,-0.025317,-0.009662
1288,-0.010555,0.006231,-0.009662
1289,0.012412,-0.009543,0.004761
1290,0.012412,-0.009543,0.004761
1291,0.058346,-0.009543,0.004761
1292,0.012412,-0.009543,-0.024086
1293,0.058346,0.006231,-0.009662
1294,0.058346,-0.009543,-0.009662
1295,0.058346,-0.025317,-0.009662
1296,0.035379,-0.025317,-0.009662
1297,0.035379,-0.009543,-0.009662
1298,0.012412,-0.009543,-0.009662
1299,0.012412,-0.009543,0.019185
1300,0.081313,-0.025317,-0.009662
1301,0.035379,-0.025317,0.004761
1302,-0.010555,0.006231,0.004761
1303,-0.010555,-0.025317,0.004761
1304,-0.102424,-0.009543,-0.009662
1305,-0.033523,-0.009543,-0.009662
1306,0.012412,-0.025317,0.004761
1307,-0.033523,-0.009543,0.004761
1308,-0.033523,-0.025317,0.004761
1309,-0.010555,-0.009543,-0.009662
1310,-0.033523,-0.009543,-0.009662
1311,-0.010555,-0.009543,-0.009662
1312,0.035379,0.006231,0.004761
1313,0.035379,-0.025317,0.004761
1314,-0.033523,-0.025317,-0.009662
1315,-0.033523,0.022005,0.019185
1316,0.058346,0.03778,0.033609
1317,0.012412,0.022005,0.004761
1318,0.035379,-0.025317,-0.009662
1319,-0.033523,-0.009543,-0.024086
1320,0.012412,-0.025317,-0.024086
1321,0.012412,-0.056865,-0.009662
1322,0.012412,-0.041091,-0.024086
1323,0.012412,-0.025317,-0.009662
1324,0.035379,-0.025317,0.004761
1325,0.012412,-0.009543,-0.009662
1326,-0.010555,-0.009543,-0.009662
1327,0.012412,0.006231,0.004761
1328,0.012412,-0.009543,-0.024086
1329,0.035379,-0.009543,-0.009662
1330,-0.010555,-0.009543,0.004761
1331,0.012412,-0.009543,-0.009662
1332,-0.033523,-0.009543,0.004761
1333,0.012412,0.006231,-0.009662
1334,-0.033523,-0.009543,-0.009662
1335,-0.033523,-0.009543,0.004761
1336,0.012412,0.006231,0.019185
1337,-0.033523,-0.025317,0.004761
1338,-0.010555,-0.009543,0.004761
1339,0.012412,0.006231,-0.009662
1340,0.012412,0.006231,-0.009662
1341,-0.010555,-0.009543,-0.009662
1342,-0.010555,-0.025317,-0.024086
1343,0.012412,-0.025317,-0.024086
1344,0.012412,-0.009543,-0.009662
1345,0.035379,-0.009543,-0.009662
1346,0.035379,0.006231,0.019185
1347,0.012412,-0.009543,0.019185
1348,0.035379,-0.009543,0.004761
1349,0.035379,-0.009543,0.004761
1350,0.081313,0.006231,0.004761
1351,0.058346,0.022005,0.019185
1352,0.058346,0.022005,0.004761
1353,0.035379,-0.009543,-0.009662
1354,0.058346,0.006231,-0.009662
1355,0.035379,-0.009543,0.004761
1356,-0.033523,-0.025317,-0.009662
1357,-0.033523,-0.041091,-0.024086
1358,-0.010555,-0.025317,-0.024086
1359,-0.010555,-0.041091,-0.024086
1360,-0.010555,-0.025317,-0.009662
1361,-0.033523,-0.009543,-0.009662
1362,0.012412,-0.009543,0.004761
1363,-0.010555,0.006231,0.019185
1364,0.012412,-0.009543,0.004761
1365,0.012412,-0.009543,0.004761
1366,0.012412,-0.009543,0.004761
1367,0.012412,-0.009543,0.004761
1368,-0.033523,-0.009543,0.004761
1369,0.012412,-0.041091,0.004761
1370,0.058346,-0.009543,-0.009662
1371,0.035379,0.006231,-0.009662
1372,0.012412,0.006231,0.004761
1373,0.012412,-0.009543,0.004761
1374,0.012412,0.006231,0.004761
1375,0.058346,-0.009543,-0.024086
1376,0.058346,0.006231,-0.024086
1377,0.058346,-0.041091,-0.024086
1378,0.012412,-0.009543,0.004761
1379,-0.010555,-0.009543,0.004761
1380,-0.010555,-0.009543,0.004761
1381,0.058346,-0.009543,0.004761
1382,0.035379,-0.025317,-0.009662
1383,0.035379,-0.025317,0.004761
1384,-0.033523,-0.009543,0.004761
1385,-0.010555,-0.009543,0.004761
1386,0.012412,-0.009543,0.004761
1387,-0.033523,-0.009543,0.004761
1388,-0.033523,0.022005,-0.009662
1389,0.035379,0.006231,0.004761
1390,0.035379,-0.025317,0.004761
1391,-0.05649,-0.025317,-0.009662
1392,-0.033523,-0.009543,-0.009662
1393,0.012412,-0.009543,-0.009662
1394,0.012412,-0.009543,-0.009662
1395,0.012412,-0.009543,-0.024086
1396,0.058346,-0.009543,-0.009662
1397,0.058346,-0.009543,0.004761
1398,0.035379,-0.009543,0.048033
1399,0.012412,0.022005,0.019185
1400,0.012412,-0.009543,0.004761
1401,0.081313,-0.009543,-0.009662
1402,-0.010555,-0.009543,-0.009662
1403,0.012412,-0.056865,-0.009662
1404,0.035379,-0.025317,-0.024086
1405,0.127248,0.022005,-0.009662
1406,-0.010555,-0.009543,-0.024086
1407,-0.010555,-0.041091,0.004761
1408,0.012412,-0.009543,0.004761
1409,0.035379,0.006231,-0.009662
1410,0.035379,0.006231,0.004761
1411,-0.033523,0.006231,-0.009662
1412,0.058346,-0.009543,-0.009662
1413,0.035379,-0.009543,-0.009662
1414,-0.033523,0.006231,-0.009662
1415,0.012412,-0.009543,-0.024086
1416,0.035379,-0.009543,-0.009662
1417,-0.033523,0.006231,0.004761
1418,-0.010555,0.006231,-0.009662
1419,0.035379,-0.009543,-0.009662
1420,0.012412,-0.025317,-0.009662
1421,-0.010555,-0.009543,-0.009662
1422,0.058346,-0.009543,-0.009662
1423,0.035379,0.006231,-0.009662
1424,0.035379,-0.009543,-0.009662
1425,0.035379,-0.025317,0.004761
1426,0.058346,0.006231,0.019185
1427,0.035379,-0.025317,-0.009662
1428,0.012412,-0.009543,-0.009662
1429,-0.010555,-0.025317,0.004761
1430,0.012412,-0.025317,0.004761
1431,0.035379,-0.009543,-0.009662
1432,0.012412,-0.009543,-0.009662
1433,-0.010555,-0.009543,0.004761
1434,0.058346,0.006231,-0.009662
1435,0.058346,-0.025317,0.004761
1436,0.035379,-0.009543,0.004761
1437,-0.033523,0.006231,0.004761
1438,-0.010555,-0.009543,0.019185
1439,0.012412,-0.009543,-0.009662
1440,0.012412,-0.009543,-0.024086
1441,-0.010555,-0.009543,-0.009662
1442,-0.010555,-0.009543,-0.009662
1443,-0.033523,-0.009543,-0.009662
1444,-0.010555,-0.025317,-0.009662
1445,0.035379,-0.025317,0.004761
1446,0.012412,0.006231,0.004761
1447,-0.010555,-0.041091,0.019185
1448,-0.033523,0.006231,-0.009662
1449,-0.010555,-0.009543,0.004761
1450,0.035379,-0.009543,0.019185
1451,0.012412,0.006231,0.004761
1452,0.035379,-0.009543,0.004761
1453,0.035379,-0.009543,-0.024086
1454,-0.010555,-0.009543,-0.009662
1455,0.058346,-0.009543,-0.024086
1456,0.081313,0.006231,0.019185
1457,0.081313,-0.009543,0.004761
1458,0.081313,-0.025317,0.004761
1459,-0.010555,-0.025317,-0.009662
1460,-0.033523,-0.009543,0.004761
1461,0.035379,0.006231,0.004761
1462,0.012412,0.006231,-0.009662
1463,-0.010555,-0.009543,-0.024086
1464,-0.010555,-0.025317,-0.009662
1465,0.035379,-0.025317,-0.009662
1466,0.012412,-0.025317,-0.009662
1467,-0.010555,-0.009543,0.004761
1468,-0.010555,-0.009543,-0.009662
1469,-0.010555,-0.009543,0.004761
1470,0.012412,-0.025317,-0.009662
1471,-0.010555,0.006231,0.004761
1472,0.035379,0.006231,0.004761
1473,-0.010555,-0.009543,-0.009662
1474,-0.033523,-0.009543,-0.009662
1475,-0.010555,-0.025317,-0.009662
1476,-0.033523,-0.025317,0.004761
1477,0.058346,-0.009543,-0.009662
1478,-0.05649,-0.041091,0.004761
1479,0.012412,-0.009543,0.004761
1480,0.035379,-0.009543,0.004761
1481,0.058346,-0.009543,-0.009662
1482,0.058346,0.006231,0.004761
1483,-0.010555,-0.009543,0.004761
1484,0.012412,-0.025317,0.004761
1485,0.012412,0.006231,-0.009662
1486,-0.010555,0.022005,-0.009662
1487,0.012412,-0.009543,0.004761
1488,0.10428,0.006231,0.004761
1489,0.012412,0.022005,0.019185
1490,0.035379,-0.009543,0.004761
1491,0.012412,-0.056865,-0.009662
1492,0.035379,-0.056865,-0.024086
1493,0.012412,-0.041091,0.004761
1494,0.035379,-0.025317,-0.009662
1495,-0.033523,0.006231,-0.009662
1496,-0.05649,-0.025317,0.004761
1497,-0.079457,-0.009543,0.019185
1498,-0.05649,-0.009543,-0.009662
1499,-0.033523,-0.025317,-0.009662
1500,-0.010555,-0.025317,0.019185
1501,-0.05649,-0.025317,0.004761
1502,0.012412,0.006231,-0.009662
1503,-0.010555,-0.009543,-0.024086
1504,-0.010555,-0.025317,-0.009662
1505,-0.05649,0.006231,0.048033
1506,0.035379,-0.009543,-0.009662
1507,0.012412,0.006231,-0.009662
1508,0.012412,-0.009543,-0.009662
1509,0.012412,0.006231,-0.009662
1510,0.035379,-0.025317,0.004761
1511,0.058346,0.006231,-0.024086
1512,0.058346,0.006231,-0.009662
1513,0.035379,-0.009543,-0.009662
1514,0.058346,-0.009543,-0.009662
1515,0.035379,-0.025317,-0.009662
1516,0.012412,0.006231,-0.009662
1517,0.012412,0.006231,0.019185
1518,0.035379,0.006231,0.004761
1519,0.081313,0.006231,0.004761
1520,0.012412,-0.009543,-0.009662
1521,-0.010555,-0.009543,-0.009662
1522,-0.033523,-0.025317,-0.009662
1523,-0.033523,0.006231,-0.009662
1524,0.012412,-0.009543,-0.009662
1525,0.012412,0.006231,0.004761
1526,-0.033523,-0.025317,0.019185
1527,0.012412,-0.025317,0.004761
1528,-0.033523,-0.009543,0.004761
1529,0.012412,-0.009543,-0.009662
1530,-0.010555,-0.009543,-0.009662
1531,0.012412,-0.025317,-0.009662
1532,-0.033523,0.006231,0.004761
1533,0.012412,0.006231,-0.009662
1534,0.012412,0.006231,0.019185
1535,0.058346,-0.009543,-0.009662
1536,0.058346,-0.025317,-0.024086
1537,-0.010555,-0.009543,-0.03851
1538,-0.010555,-0.025317,0.004761
1539,0.012412,-0.009543,0.004761
1540,-0.010555,-0.025317,0.019185
1541,-0.010555,0.006231,-0.009662
1542,0.012412,-0.025317,-0.024086
1543,0.012412,-0.009543,0.004761
1544,-0.010555,-0.025317,-0.009662
1545,0.058346,-0.009543,0.004761
1546,-0.010555,0.006231,-0.009662
1547,0.012412,0.006231,0.004761
1548,-0.010555,0.006231,0.004761
1549,-0.05649,-0.009543,0.004761
1550,-0.010555,-0.025317,0.004761
1551,-0.010555,-0.025317,0.004761
1552,-0.033523,-0.009543,-0.024086
1553,0.012412,0.006231,-0.009662
1554,0.012412,-0.025317,-0.024086
1555,-0.033523,0.006231,-0.009662
1556,0.035379,-0.009543,0.004761
1557,0.10428,0.006231,-0.009662
1558,-0.033523,-0.009543,-0.024086
1559,-0.05649,-0.009543,-0.024086
1560,-0.033523,-0.025317,0.019185
1561,0.012412,0.006231,-0.009662
1562,0.035379,0.006231,0.004761
1563,-0.010555,-0.009543,-0.009662
1564,0.035379,-0.009543,-0.024086
1565,0.035379,-0.009543,-0.009662
1566,0.035379,-0.009543,0.004761
1567,0.035379,-0.025317,-0.009662
1568,0.012412,-0.025317,0.004761
1569,0.012412,-0.009543,0.004761
1570,-0.010555,-0.025317,0.004761
1571,0.058346,-0.009543,0.004761
1572,0.012412,-0.009543,-0.009662
1573,-0.010555,-0.009543,-0.009662
1574,-0.010555,-0.009543,-0.009662
1575,0.012412,-0.009543,-0.009662
1576,0.035379,-0.009543,0.004761
1577,-0.010555,-0.009543,0.004761
1578,0.012412,0.006231,-0.009662
1579,-0.033523,0.006231,-0.009662
1580,-0.033523,-0.009543,-0.009662
1581,0.012412,-0.009543,-0.009662
1582,-0.079457,-0.009543,-0.009662
1583,-0.010555,-0.009543,-0.009662
1584,0.035379,-0.025317,0.004761
1585,-0.033523,-0.009543,-0.009662
1586,-0.010555,-0.025317,0.019185
1587,0.012412,0.006231,-0.009662
1588,0.058346,0.006231,-0.024086
1589,0.035379,-0.009543,-0.009662
1590,0.035379,0.006231,-0.009662
1591,0.081313,0.006231,-0.009662
1592,0.035379,-0.009543,-0.009662
1593,0.012412,-0.088413,-0.009662
1594,0.081313,-0.041091,-0.009662
1595,0.012412,-0.025317,0.004761
1596,0.012412,0.006231,-0.024086
1597,0.012412,-0.009543,-0.009662
1598,0.058346,-0.009543,0.004761
1599,0.012412,-0.025317,-0.009662
1600,0.012412,-0.009543,-0.009662
1601,-0.033523,0.006231,0.004761
1602,0.035379,0.006231,-0.009662
1603,-0.05649,0.006231,0.004761
1604,-0.033523,-0.009543,-0.009662
1605,-0.05649,-0.009543,-0.024086
1606,-0.010555,0.006231,0.019185
1607,-0.010555,-0.025317,0.004761
1608,-0.010555,-0.009543,0.004761
1609,0.012412,-0.025317,-0.009662
1610,0.012412,0.022005,-0.009662
1611,-0.010555,-0.009543,-0.009662
1612,-0.033523,-0.009543,-0.024086
1613,0.058346,-0.009543,-0.024086
1614,0.035379,-0.025317,-0.009662
1615,0.035379,-0.009543,0.004761
1616,-0.05649,-0.009543,-0.009662
1617,0.012412,-0.009543,-0.009662
1618,0.035379,-0.009543,0.004761
1619,0.035379,-0.009543,-0.009662
1620,-0.033523,-0.025317,0.004761
1621,0.012412,0.006231,-0.009662
1622,0.012412,-0.041091,-0.009662
1623,-0.010555,-0.025317,0.004761
1624,0.012412,-0.009543,0.019185
1625,0.012412,-0.009543,-0.009662
1626,-0.033523,-0.009543,-0.009662
1627,0.035379,-0.025317,-0.009662
1628,0.012412,-0.009543,-0.024086
1629,-0.010555,-0.009543,-0.009662
1630,-0.033523,-0.009543,-0.009662
1631,-0.033523,-0.025317,-0.009662
1632,-0.010555,-0.025317,-0.009662
1633,0.012412,-0.041091,0.004761
1634,-0.033523,-0.025317,0.004761
1635,-0.010555,0.006231,0.004761
1636,-0.010555,-0.009543,0.004761
1637,0.035379,0.006231,-0.009662
1638,-0.033523,-0.009543,0.004761
1639,-0.010555,0.022005,-0.024086
1640,-0.033523,-0.009543,-0.009662
1641,0.035379,-0.041091,0.004761
1642,-0.010555,-0.009543,-0.009662
1643,0.035379,-0.009543,-0.009662
1644,0.035379,-0.009543,0.004761
1645,0.035379,-0.009543,0.004761
1646,0.012412,0.006231,0.004761
1647,-0.010555,-0.009543,0.019185
1648,0.058346,-0.009543,0.004761
1649,0.012412,-0.009543,0.004761
1650,0.012412,-0.009543,0.004761
1651,0.035379,-0.009543,-0.009662
1652,0.012412,-0.009543,-0.009662
1653,-0.010555,-0.009543,0.004761
1654,-0.010555,-0.009543,0.004761
1655,-0.010555,0.006231,0.004761
1656,0.035379,-0.025317,0.004761
1657,-0.010555,-0.009543,0.004761
1658,-0.079457,-0.009543,-0.024086
1659,-0.033523,-0.025317,-0.009662
1660,-0.010555,0.006231,-0.009662
1661,0.012412,-0.009543,-0.009662
1662,0.035379,-0.009543,-0.009662
1663,0.012412,0.006231,0.019185
1664,-0.010555,-0.009543,0.019185
1665,-0.033523,-0.009543,-0.009662
1666,0.012412,-0.025317,-0.009662
1667,-0.010555,-0.025317,0.004761
1668,0.035379,-0.025317,0.004761
1669,0.012412,-0.009543,0.004761
1670,0.012412,-0.025317,-0.009662
1671,0.012412,0.006231,0.004761
1672,0.035379,0.006231,-0.009662
1673,0.012412,0.006231,-0.009662
1674,0.035379,-0.009543,0.004761
1675,0.127248,-0.009543,-0.009662
1676,-0.010555,-0.009543,0.004761
1677,-0.010555,0.022005,-0.009662
1678,0.035379,0.006231,-0.009662
1679,0.012412,-0.009543,-0.009662
1680,-0.010555,0.022005,-0.009662
1681,-0.033523,0.006231,-0.009662
1682,0.035379,-0.041091,-0.009662
1683,0.012412,-0.072639,0.004761
1684,-0.033523,-0.041091,0.004761
1685,-0.033523,-0.009543,0.004761
1686,0.035379,-0.025317,-0.009662
1687,-0.010555,-0.041091,-0.009662
1688,0.012412,-0.009543,-0.024086
1689,0.058346,-0.025317,-0.009662
1690,-0.010555,0.006231,0.004761
1691,-0.05649,-0.025317,0.019185
1692,-0.05649,0.006231,0.019185
1693,0.012412,0.006231,0.004761
1694,-0.05649,0.006231,-0.009662
1695,-0.033523,-0.009543,-0.009662
1696,-0.033523,0.006231,-0.024086
1697,0.012412,-0.025317,-0.024086
1698,0.012412,-0.009543,-0.009662
1699,0.035379,0.006231,-0.009662
1700,0.035379,-0.025317,-0.009662
1701,0.058346,0.006231,0.004761
1702,0.058346,-0.009543,0.033609
1703,0.035379,-0.009543,0.004761
1704,-0.033523,0.006231,0.019185
1705,0.058346,-0.009543,0.004761
1706,-0.010555,-0.009543,0.019185
1707,-0.05649,-0.041091,-0.009662
1708,-0.033523,-0.025317,0.004761
1709,-0.033523,-0.009543,-0.024086
1710,-0.05649,-0.009543,0.004761
1711,-0.033523,-0.009543,0.019185
1712,-0.033523,-0.025317,0.004761
1713,0.012412,-0.041091,-0.03851
1714,-0.05649,-0.041091,-0.03851
1715,-0.033523,-0.009543,-0.024086
1716,-0.033523,-0.009543,-0.024086
1717,0.012412,-0.009543,-0.009662
1718,-0.033523,-0.009543,-0.03851
1719,0.035379,-0.025317,-0.009662
1720,0.012412,-0.009543,-0.03851
1721,0.035379,-0.025317,-0.009662
1722,0.012412,-0.009543,0.004761
1723,0.035379,0.006231,-0.009662
1724,0.058346,0.022005,0.004761
1725,0.058346,-0.009543,-0.009662
1726,-0.033523,-0.009543,0.004761
1727,0.058346,-0.009543,0.004761
1728,0.035379,-0.025317,0.019185
1729,0.012412,0.006231,0.004761
1730,-0.033523,-0.025317,-0.009662
1731,0.012412,-0.009543,0.004761
1732,0.035379,-0.009543,-0.009662
1733,-0.010555,-0.009543,-0.024086
1734,-0.033523,-0.041091,0.004761
1735,0.035379,-0.025317,0.004761
1736,0.012412,-0.009543,0.004761
1737,-0.010555,-0.009543,0.019185
1738,-0.05649,-0.009543,0.048033
1739,-0.171326,0.022005,0.019185
1740,-0.079457,-0.025317,0.004761
1741,-0.05649,0.006231,0.004761
1742,-0.125391,0.006231,-0.009662
1743,-0.033523,0.03778,0.004761
1744,0.012412,0.006231,0.004761
1745,0.058346,0.006231,-0.009662
1746,0.150215,-0.009543,-0.024086
1747,0.150215,-0.041091,-0.024086
1748,0.150215,-0.056865,-0.024086
1749,0.10428,-0.041091,-0.024086
1750,0.196149,-0.025317,0.004761
1751,0.196149,-0.009543,0.019185
1752,0.196149,-0.009543,0.019185
1753,0.150215,0.006231,0.004761
1754,0.196149,0.006231,0.004761
1755,0.10428,-0.009543,0.004761
1756,-0.148358,-0.009543,-0.009662
1757,-0.194293,-0.025317,-0.009662
1758,-0.125391,-0.025317,-0.024086
1759,-0.079457,-0.025317,-0.024086
1760,-0.010555,-0.009543,-0.009662
1761,-0.079457,-0.009543,0.004761
1762,-0.033523,0.006231,0.004761
1763,-0.010555,-0.009543,-0.009662
1764,-0.033523,-0.009543,-0.024086
1765,0.012412,-0.009543,-0.024086
1766,0.012412,-0.025317,-0.009662
1767,-0.05649,-0.009543,-0.024086
1768,-0.033523,-0.009543,0.004761
1769,0.012412,-0.025317,0.004761
1770,0.035379,-0.009543,-0.009662
1771,-0.033523,-0.009543,0.004761
1772,-0.05649,-0.009543,0.019185
1773,-0.033523,-0.009543,-0.009662
1774,-0.033523,-0.009543,-0.024086
1775,-0.079457,-0.025317,-0.009662
1776,-0.010555,0.006231,-0.024086
1777,0.012412,-0.009543,-0.009662
1778,0.012412,-0.025317,-0.009662
1779,-0.010555,-0.025317,-0.009662
1780,-0.010555,-0.025317,0.019185
1781,0.012412,-0.025317,0.004761
1782,0.081313,-0.009543,-0.009662
1783,-0.010555,-0.025317,-0.009662
1784,0.012412,-0.025317,0.004761
1785,-0.010555,-0.009543,-0.009662
1786,0.012412,-0.009543,-0.009662
1787,-0.010555,-0.009543,-0.009662
1788,0.012412,-0.009543,0.004761
1789,0.012412,-0.025317,-0.009662
1790,0.012412,0.006231,-0.009662
1791,0.058346,0.022005,0.004761
1792,0.035379,0.03778,0.019185
1793,0.035379,0.03778,-0.009662
1794,0.012412,0.022005,0.004761
1795,-0.010555,-0.009543,0.004761
1796,-0.079457,-0.041091,-0.009662
1797,-0.171326,-0.056865,-0.009662
1798,-0.079457,-0.025317,0.004761
1799,0.127248,-0.009543,0.004761
1800,-0.033523,-0.009543,-0.009662
1801,-0.033523,-0.025317,-0.009662
1802,-0.05649,0.006231,-0.009662
1803,-0.033523,-0.009543,0.004761
1804,-0.010555,-0.009543,-0.009662
1805,0.012412,-0.025317,0.004761
1806,0.012412,-0.056865,-0.024086
1807,0.035379,-0.025317,-0.024086
1808,0.035379,-0.025317,-0.024086
1809,0.058346,-0.009543,-0.009662
1810,0.035379,-0.025317,-0.009662
1811,0.012412,0.006231,0.004761
1812,0.058346,-0.009543,0.004761
1813,0.035379,0.006231,0.004761
1814,-0.010555,0.006231,0.004761
1815,0.058346,-0.009543,0.004761
1816,0.035379,0.03778,0.004761
1817,0.058346,0.022005,-0.009662
1818,-0.010555,0.006231,-0.024086
1819,-0.010555,-0.009543,-0.024086
1820,-0.010555,0.006231,-0.009662
1821,-0.010555,-0.009543,-0.009662
1822,-0.05649,-0.056865,-0.009662
1823,-0.010555,-0.025317,0.004761
1824,-0.010555,-0.009543,-0.009662
1825,0.012412,-0.025317,-0.009662
1826,-0.05649,-0.025317,0.004761
1827,-0.05649,-0.009543,0.004761
1828,-0.102424,-0.041091,-0.024086
1829,-0.033523,0.006231,-0.009662
1830,-0.010555,-0.009543,-0.03851
1831,-0.010555,-0.009543,0.048033
1832,-0.010555,-0.025317,-0.009662
1833,-0.033523,-0.009543,-0.024086
1834,0.012412,-0.041091,-0.024086
1835,0.058346,-0.025317,-0.009662
1836,0.058346,-0.025317,-0.009662
1837,-0.05649,-0.025317,0.004761
1838,0.035379,0.006231,0.004761
1839,0.035379,-0.025317,0.004761
1840,-0.033523,-0.025317,-0.009662
1841,-0.033523,-0.025317,0.048033
1842,0.035379,0.006231,-0.009662
1843,0.035379,-0.009543,-0.009662
1844,0.012412,-0.009543,0.019185
1845,-0.033523,0.006231,0.004761
1846,0.035379,0.006231,0.004761
1847,0.035379,-0.009543,-0.009662
1848,0.058346,-0.025317,0.019185
1849,-0.010555,0.006231,-0.009662
1850,-0.010555,-0.009543,0.019185
1851,-0.033523,-0.009543,-0.009662
1852,0.012412,-0.009543,0.004761
1853,-0.010555,0.006231,0.004761
1854,-0.010555,0.006231,-0.009662
1855,0.035379,-0.009543,0.048033
1856,-0.033523,-0.009543,-0.009662
1857,0.012412,-0.025317,0.004761
1858,0.035379,-0.009543,0.004761
1859,-0.033523,-0.009543,-0.009662
1860,0.012412,-0.009543,0.004761
1861,-0.033523,0.006231,0.004761
1862,-0.079457,-0.009543,-0.024086
1863,-0.010555,-0.009543,-0.024086
1864,-0.102424,-0.009543,-0.024086
1865,-0.079457,-0.009543,0.004761
1866,-0.010555,-0.009543,-0.009662
1867,0.081313,-0.025317,0.004761
1868,0.10428,-0.025317,-0.009662
1869,0.127248,-0.025317,-0.009662
1870,0.150215,-0.025317,0.004761
1871,0.058346,-0.009543,0.004761
1872,0.035379,-0.009543,0.004761
1873,0.058346,-0.009543,-0.024086
1874,0.012412,-0.009543,-0.009662
1875,-0.05649,-0.009543,0.004761
1876,0.012412,-0.009543,0.004761
1877,0.012412,-0.009543,-0.009662
1878,-0.010555,-0.009543,0.004761
1879,-0.05649,-0.009543,-0.009662
1880,-0.05649,-0.009543,-0.009662
1881,0.012412,-0.041091,-0.009662
1882,-0.010555,-0.009543,0.004761
1883,0.012412,-0.009543,0.004761
1884,-0.05649,-0.009543,0.004761
1885,-0.033523,-0.025317,0.004761
1886,-0.033523,-0.009543,-0.024086
1887,-0.010555,-0.009543,0.004761
1888,-0.010555,-0.009543,0.004761
1889,0.012412,-0.009543,0.004761
1890,-0.010555,-0.009543,-0.009662
1891,-0.010555,0.022005,0.004761
1892,-0.010555,-0.009543,0.004761
1893,0.012412,0.006231,0.019185
1894,0.196149,-0.009543,0.004761
1895,0.196149,-0.009543,-0.009662
1896,0.150215,-0.025317,-0.009662
1897,0.173182,-0.025317,0.004761
1898,0.196149,-0.009543,-0.009662
1899,0.058346,-0.025317,-0.009662
1900,-0.240227,-0.025317,-0.009662
1901,-0.125391,-0.025317,-0.009662
1902,-0.171326,-0.025317,-0.03851
1903,-0.148358,-0.025317,-0.024086
1904,-0.125391,-0.009543,-0.009662
1905,-0.079457,0.006231,-0.024086
1906,-0.033523,0.006231,-0.024086
1907,0.012412,0.006231,-0.024086
1908,0.058346,-0.009543,0.004761
1909,-0.010555,-0.009543,-0.009662
1910,-0.033523,-0.041091,0.004761
1911,-0.033523,-0.056865,-0.009662
1912,-0.05649,-0.025317,0.004761
1913,-0.010555,-0.009543,0.019185
1914,-0.010555,-0.009543,0.004761
1915,-0.033523,-0.009543,-0.009662
1916,0.012412,-0.009543,0.004761
1917,-0.010555,-0.009543,-0.009662
1918,-0.010555,-0.025317,-0.009662
1919,-0.033523,-0.025317,0.004761
1920,-0.010555,-0.009543,-0.009662
1921,-0.033523,-0.009543,-0.009662
1922,0.012412,0.006231,0.004761
1923,-0.010555,-0.009543,-0.009662
1924,0.035379,-0.009543,0.004761
1925,0.012412,-0.009543,0.048033
1926,0.012412,-0.025317,-0.009662
1927,0.058346,-0.025317,-0.009662
1928,0.035379,-0.009543,-0.024086
1929,0.012412,-0.009543,-0.009662
1930,0.035379,-0.009543,-0.024086
1931,0.035379,0.006231,0.004761
1932,0.012412,-0.009543,0.004761
1933,0.012412,0.006231,0.004761
1934,-0.033523,0.006231,0.004761
1935,0.035379,-0.009543,0.019185
1936,-0.033523,0.006231,0.019185
1937,-0.033523,-0.009543,0.004761
1938,-0.033523,0.006231,0.019185
1939,0.012412,-0.009543,-0.009662
1940,-0.033523,-0.009543,0.004761
1941,-0.033523,-0.025317,-0.009662
1942,-0.010555,-0.025317,-0.009662
1943,-0.010555,-0.009543,-0.009662
1944,-0.05649,-0.009543,0.004761
1945,-0.010555,-0.009543,0.004761
1946,-0.033523,-0.025317,0.004761
1947,0.012412,-0.025317,-0.009662
1948,-0.010555,-0.009543,0.004761
1949,0.035379,-0.009543,0.004761
1950,0.012412,-0.025317,0.004761
1951,-0.05649,-0.009543,0.019185
1952,0.012412,-0.009543,-0.009662
1953,0.012412,-0.009543,-0.024086
1954,-0.010555,-0.009543,-0.03851
1955,0.035379,-0.009543,-0.009662
1956,-0.010555,-0.009543,-0.009662
1957,0.012412,-0.009543,-0.009662
1958,0.012412,-0.025317,-0.024086
1959,-0.010555,0.006231,-0.009662
1960,-0.010555,-0.009543,-0.009662
1961,0.035379,-0.009543,-0.009662
1962,0.035379,-0.009543,0.004761
1963,-0.05649,-0.009543,0.019185
1964,-0.033523,0.006231,0.019185
1965,0.012412,0.006231,-0.009662
1966,-0.033523,-0.009543,0.019185
1967,-0.033523,-0.009543,0.004761
1968,-0.05649,-0.025317,0.004761
1969,-0.010555,-0.009543,0.004761
1970,-0.010555,0.006231,0.004761
1971,-0.079457,-0.025317,-0.009662
1972,-0.05649,-0.025317,-0.024086
1973,-0.079457,-0.009543,0.004761
1974,-0.102424,-0.009543,-0.009662
1975,-0.079457,0.006231,0.004761
1976,0.012412,-0.009543,-0.009662
1977,-0.033523,-0.025317,-0.009662
1978,-0.05649,-0.009543,-0.009662
1979,-0.033523,-0.009543,-0.009662
1980,0.058346,0.006231,-0.009662
1981,0.081313,0.022005,-0.024086
1982,0.127248,0.022005,-0.009662
1983,0.081313,0.022005,0.004761
1984,0.150215,-0.009543,-0.009662
1985,0.127248,-0.041091,0.004761
1986,-0.010555,-0.072639,-0.009662
1987,-0.079457,-0.025317,-0.009662
1988,0.012412,-0.009543,0.004761
1989,-0.010555,-0.009543,0.004761
1990,-0.010555,-0.025317,-0.009662
1991,-0.010555,-0.009543,0.004761
1992,0.012412,-0.009543,0.004761
1993,0.012412,-0.009543,0.004761
1994,-0.010555,-0.025317,-0.009662
1995,0.012412,-0.025317,-0.024086
1996,-0.010555,0.006231,0.004761
1997,-0.010555,-0.009543,-0.009662
1998,-0.05649,-0.041091,0.004761
1999,-0.010555,-0.025317,-0.009662
2000,0.012412,0.006231,0.004761
2001,-0.033523,-0.009543,0.004761
2002,-0.033523,-0.009543,0.004761
2003,0.012412,-0.009543,0.004761
2004,-0.010555,-0.025317,-0.009662
2005,0.012412,0.006231,-0.009662
2006,-0.033523,-0.009543,-0.024086
2007,0.035379,-0.041091,-0.009662
2008,0.012412,0.006231,-0.009662
2009,0.035379,-0.025317,-0.009662
2010,-0.010555,0.006231,0.019185
2011,-0.033523,-0.025317,0.004761
2012,0.035379,-0.009543,0.004761
2013,0.012412,-0.009543,-0.009662
2014,0.012412,-0.009543,-0.009662
2015,0.012412,-0.009543,-0.009662
2016,0.058346,0.006231,-0.009662
2017,-0.033523,-0.009543,0.019185
2018,-0.033523,-0.009543,0.004761
2019,0.035379,-0.009543,0.004761
2020,0.058346,-0.009543,-0.009662
2021,-0.05649,-0.025317,-0.009662
2022,-0.05649,-0.025317,-0.009662
2023,-0.010555,-0.025317,-0.009662
2024,-0.033523,-0.009543,-0.009662
2025,-0.010555,-0.025317,-0.024086
2026,-0.010555,-0.009543,-0.009662
2027,0.035379,0.006231,0.004761
2028,0.012412,0.006231,-0.009662
2029,0.012412,-0.009543,-0.024086
2030,0.012412,-0.009543,0.004761
2031,-0.010555,-0.009543,0.019185
2032,-0.05649,-0.009543,-0.009662
2033,-0.010555,-0.025317,-0.009662
2034,-0.010555,-0.009543,-0.009662
2035,0.012412,-0.025317,-0.009662
2036,0.012412,-0.025317,-0.024086
2037,0.035379,0.006231,-0.009662
2038,-0.033523,-0.025317,-0.024086
2039,0.012412,-0.009543,-0.024086
2040,0.012412,0.006231,-0.009662
2041,-0.010555,-0.025317,-0.009662
2042,0.012412,0.006231,-0.009662
2043,0.035379,-0.009543,-0.009662
2044,0.035379,-0.009543,0.004761
2045,0.058346,-0.009543,-0.009662
2046,0.058346,0.006231,0.004761
2047,0.012412,-0.009543,0.004761
2048,-0.010555,-0.009543,-0.009662
2049,-0.033523,-0.025317,0.004761
2050,0.035379,-0.009543,0.004761
2051,0.012412,0.006231,0.019185
2052,0.012412,-0.009543,-0.009662
2053,-0.010555,-0.025317,-0.009662
2054,-0.010555,-0.025317,-0.009662
2055,0.012412,0.006231,-0.009662
2056,-0.010555,-0.009543,-0.024086
2057,-0.079457,-0.009543,-0.009662
2058,-0.05649,-0.025317,-0.009662
2059,-0.079457,-0.009543,-0.009662
2060,-0.033523,-0.009543,0.004761
2061,0.012412,-0.009543,-0.009662
2062,0.012412,-0.009543,-0.009662
2063,-0.033523,-0.009543,-0.024086
2064,-0.010555,-0.025317,0.004761
2065,-0.010555,-0.009543,-0.009662
2066,0.058346,0.022005,0.004761
2067,0.012412,0.006231,0.004761
2068,0.012412,-0.009543,0.019185
2069,0.012412,-0.009543,-0.009662
2070,-0.033523,0.006231,0.019185
2071,-0.010555,-0.009543,-0.009662
2072,0.012412,-0.009543,-0.009662
2073,0.012412,0.006231,0.004761
2074,0.081313,0.006231,-0.009662
2075,0.012412,-0.025317,-0.024086
2076,0.058346,-0.025317,-0.03851
2077,0.058346,-0.025317,-0.024086
2078,-0.010555,0.006231,-0.024086
2079,-0.033523,-0.025317,0.004761
2080,0.012412,-0.009543,0.004761
2081,0.035379,0.022005,0.019185
2082,-0.010555,0.006231,0.019185
2083,-0.033523,0.006231,-0.009662
2084,-0.033523,-0.009543,0.004761
2085,-0.010555,-0.025317,-0.009662
2086,-0.033523,-0.025317,0.004761
2087,-0.033523,-0.041091,-0.009662
2088,-0.033523,-0.041091,-0.024086
2089,-0.010555,-0.009543,-0.024086
2090,-0.010555,-0.025317,-0.024086
2091,-0.033523,-0.009543,0.004761
2092,0.058346,-0.009543,-0.009662
2093,0.012412,0.006231,0.004761
2094,0.012412,-0.025317,-0.009662
2095,-0.033523,-0.025317,-0.009662
2096,0.035379,0.006231,0.004761
2097,0.012412,-0.009543,0.004761
2098,0.035379,-0.009543,0.004761
2099,0.012412,0.006231,0.004761
2100,0.035379,-0.009543,0.004761
2101,0.035379,-0.009543,-0.009662
2102,0.012412,0.006231,-0.009662
2103,0.012412,-0.009543,0.004761
2104,0.012412,-0.009543,0.019185
2105,-0.010555,0.006231,-0.009662
2106,0.012412,-0.025317,-0.009662
2107,0.012412,-0.041091,-0.024086
2108,0.035379,-0.025317,0.004761
2109,0.035379,0.006231,-0.009662
2110,-0.05649,0.006231,-0.009662
2111,-0.079457,-0.009543,-0.009662
2112,-0.033523,0.006231,0.004761
2113,-0.010555,-0.009543,0.004761
2114,-0.033523,-0.009543,0.019185
2115,-0.033523,-0.025317,0.004761
2116,0.012412,-0.009543,0.004761
2117,-0.05649,-0.025317,0.004761
2118,-0.033523,-0.009543,0.004761
2119,-0.010555,0.006231,0.004761
2120,0.012412,-0.025317,0.004761
2121,-0.05649,-0.009543,-0.024086
2122,-0.010555,-0.009543,-0.009662
2123,0.035379,-0.009543,0.004761
2124,0.035379,0.006231,-0.009662
2125,-0.05649,-0.025317,0.004761
2126,-0.033523,-0.009543,-0.024086
2127,0.035379,-0.009543,-0.009662
2128,0.035379,-0.025317,0.004761
2129,0.012412,-0.009543,0.004761
2130,-0.033523,-0.009543,0.004761
2131,0.012412,-0.025317,-0.009662
2132,0.012412,-0.009543,-0.009662
2133,-0.033523,-0.009543,0.004761
2134,0.012412,-0.009543,0.004761
2135,0.035379,-0.009543,-0.009662
2136,-0.033523,0.006231,-0.009662
2137,-0.033523,-0.025317,-0.009662
2138,0.035379,-0.025317,-0.009662
2139,0.012412,-0.009543,0.004761
2140,0.012412,-0.009543,0.004761
2141,-0.010555,-0.009543,0.004761
2142,-0.033523,0.022005,0.004761
2143,0.012412,0.03778,-0.009662
2144,-0.033523,0.006231,-0.009662
2145,-0.010555,-0.009543,0.004761
2146,0.012412,-0.009543,0.004761
2147,-0.010555,-0.056865,0.004761
2148,-0.033523,-0.056865,0.004761
2149,0.127248,-0.025317,0.019185
2150,0.012412,-0.009543,-0.009662
2151,0.035379,-0.009543,0.004761
2152,-0.079457,-0.025317,-0.009662
2153,-0.010555,-0.025317,0.004761
2154,0.058346,-0.009543,-0.03851
2155,0.012412,-0.041091,-0.052934
2156,0.012412,-0.025317,-0.03851
2157,0.035379,0.006231,-0.024086
2158,0.035379,-0.025317,-0.009662
2159,0.035379,0.006231,0.004761
2160,0.012412,0.006231,0.004761
2161,0.035379,-0.009543,-0.009662
2162,-0.010555,0.006231,0.048033
2163,0.012412,0.006231,0.004761
2164,0.012412,-0.009543,0.019185
2165,0.012412,-0.009543,0.004761
2166,0.012412,-0.009543,-0.009662
2167,0.035379,0.006231,-0.024086
2168,-0.010555,0.006231,-0.009662
2169,-0.010555,0.022005,0.004761
2170,0.012412,0.006231,0.004761
2171,-0.033523,-0.009543,-0.009662
2172,-0.010555,-0.041091,-0.024086
2173,-0.010555,-0.009543,-0.009662
2174,-0.010555,0.006231,0.004761
2175,-0.05649,0.006231,-0.009662
2176,-0.05649,-0.009543,0.004761
2177,-0.010555,0.006231,0.004761
2178,-0.010555,-0.009543,-0.009662
2179,0.012412,-0.009543,0.004761
2180,0.012412,-0.009543,-0.009662
2181,0.035379,-0.041091,-0.009662
2182,0.035379,-0.041091,0.004761
2183,-0.079457,-0.009543,0.004761
2184,0.012412,-0.009543,-0.009662
2185,-0.010555,-0.025317,-0.009662
2186,0.012412,-0.025317,0.004761
2187,-0.010555,-0.009543,-0.009662
2188,0.012412,-0.009543,0.019185
2189,0.035379,0.006231,0.004761
2190,-0.05649,-0.025317,0.004761
2191,0.012412,-0.025317,0.004761
2192,0.081313,-0.009543,-0.009662
2193,0.058346,-0.009543,-0.009662
2194,-0.033523,0.006231,-0.009662
2195,0.012412,-0.009543,-0.024086
2196,0.012412,-0.009543,0.004761
2197,0.081313,0.006231,0.004761
2198,-0.05649,-0.009543,0.019185
2199,-0.05649,-0.056865,0.004761
2200,-0.033523,-0.009543,0.004761
2201,-0.033523,-0.025317,0.004761
2202,-0.010555,-0.025317,0.004761
2203,-0.079457,-0.025317,0.019185
2204,-0.010555,-0.041091,-0.009662
2205,0.012412,-0.009543,-0.009662
2206,-0.033523,-0.025317,-0.024086
2207,0.035379,0.022005,-0.009662
2208,0.012412,0.006231,-0.009662
2209,-0.05649,0.006231,0.004761
2210,-0.05649,-0.009543,-0.009662
2211,-0.010555,-0.025317,-0.009662
2212,0.012412,0.006231,-0.009662
2213,0.058346,-0.009543,-0.009662
2214,0.012412,-0.009543,0.004761
2215,-0.010555,-0.009543,-0.009662
2216,0.081313,-0.009543,-0.009662
2217,0.012412,-0.025317,-0.024086
2218,-0.010555,-0.025317,0.004761
2219,-0.033523,-0.009543,0.004761
2220,0.012412,-0.025317,0.004761
2221,-0.010555,-0.009543,0.004761
2222,0.012412,0.022005,0.019185
2223,0.035379,0.006231,-0.024086
2224,0.012412,0.006231,-0.009662
2225,0.012412,-0.009543,-0.009662
2226,-0.033523,-0.009543,-0.009662
2227,0.012412,-0.041091,-0.009662
2228,-0.010555,-0.056865,0.004761
2229,-0.05649,-0.025317,-0.009662
2230,-0.033523,-0.025317,0.004761
2231,-0.010555,-0.009543,0.004761
2232,-0.05649,0.006231,0.019185
2233,-0.148358,0.006231,0.004761
2234,-0.079457,-0.009543,0.004761
2235,-0.05649,-0.025317,0.004761
2236,-0.079457,-0.041091,-0.009662
2237,-0.010555,-0.041091,0.004761
2238,0.081313,-0.009543,-0.009662
2239,0.150215,-0.009543,-0.009662
2240,0.127248,0.006231,-0.009662
2241,0.081313,0.006231,-0.009662
2242,0.10428,-0.009543,-0.024086
2243,0.081313,-0.009543,-0.009662
2244,0.012412,-0.009543,0.004761
2245,0.035379,-0.025317,-0.009662
2246,0.035379,-0.025317,-0.024086
2247,0.035379,0.006231,-0.009662
2248,-0.010555,-0.009543,0.004761
2249,0.012412,0.006231,-0.009662
2250,0.058346,-0.025317,-0.009662
2251,0.035379,-0.009543,-0.009662
2252,-0.010555,-0.009543,-0.009662
2253,-0.05649,-0.009543,0.004761
2254,0.058346,0.006231,0.004761
2255,0.035379,0.006231,0.004761
2256,-0.010555,0.006231,0.019185
2257,-0.05649,-0.009543,0.004761
2258,-0.033523,-0.009543,0.004761
2259,-0.033523,-0.025317,0.004761
2260,-0.010555,-0.025317,0.004761
2261,0.012412,-0.009543,-0.009662
2262,-0.033523,-0.025317,-0.009662
2263,-0.010555,-0.025317,-0.03851
2264,-0.033523,-0.025317,-0.03851
2265,0.012412,-0.025317,-0.009662
2266,0.012412,-0.025317,-0.009662
2267,-0.033523,-0.009543,-0.009662
2268,0.012412,0.006231,-0.009662
2269,0.012412,-0.009543,-0.009662
2270,0.058346,-0.009543,-0.009662
2271,0.012412,-0.025317,0.019185
2272,0.012412,-0.025317,0.004761
2273,0.081313,-0.009543,0.019185
2274,0.081313,-0.009543,-0.009662
2275,0.012412,-0.009543,-0.024086
2276,0.035379,-0.009543,-0.009662
2277,0.081313,-0.009543,0.004761
2278,-0.010555,0.006231,0.019185
2279,0.012412,-0.009543,0.004761
2280,0.035379,0.006231,0.004761
2281,0.058346,0.006231,0.004761
2282,0.035379,-0.009543,0.004761
2283,0.012412,-0.025317,-0.009662
2284,-0.033523,-0.025317,-0.009662
2285,-0.010555,-0.009543,0.004761
2286,-0.102424,-0.025317,-0.009662
2287,-0.05649,-0.009543,-0.009662
2288,-0.05649,-0.009543,-0.009662
2289,-0.05649,-0.009543,-0.009662
2290,-0.010555,-0.009543,-0.009662
2291,-0.05649,-0.025317,-0.009662
2292,-0.010555,-0.025317,-0.009662
2293,-0.033523,-0.025317,-0.009662
2294,-0.05649,0.006231,0.004761
2295,0.012412,0.006231,-0.009662
2296,0.012412,0.006231,-0.024086
2297,-0.010555,-0.041091,-0.024086
2298,0.012412,-0.025317,-0.009662
2299,0.035379,-0.009543,0.004761
2300,-0.010555,-0.009543,0.019185
2301,0.012412,-0.025317,0.033609
2302,0.012412,-0.025317,0.004761
2303,0.012412,-0.025317,-0.009662
2304,0.035379,-0.009543,0.004761
2305,0.035379,0.022005,-0.009662
2306,-0.033523,0.006231,-0.009662
2307,0.012412,-0.025317,-0.009662
2308,0.058346,-0.009543,-0.009662
2309,0.035379,-0.009543,-0.024086
2310,-0.010555,-0.009543,0.004761
2311,0.012412,-0.009543,-0.009662
2312,0.012412,0.006231,0.019185
2313,0.012412,-0.009543,-0.009662
2314,0.058346,-0.009543,-0.03851
2315,-0.010555,0.022005,-0.024086
2316,-0.010555,0.022005,0.004761
2317,-0.102424,0.022005,0.048033
2318,-0.079457,-0.009543,0.004761
2319,-0.033523,-0.009543,0.004761
2320,0.012412,-0.056865,0.004761
2321,-0.033523,-0.056865,0.004761
2322,-0.033523,-0.041091,0.004761
2323,0.012412,-0.009543,-0.009662
2324,-0.033523,0.006231,0.004761
2325,-0.010555,-0.009543,0.004761
2326,0.035379,-0.009543,-0.024086
2327,0.035379,-0.009543,-0.009662
2328,0.012412,-0.025317,-0.024086
2329,-0.010555,0.006231,-0.009662
2330,0.035379,-0.009543,-0.009662
2331,0.058346,-0.009543,0.004761
2332,0.10428,-0.009543,-0.009662
2333,-0.010555,-0.009543,0.004761
2334,0.012412,-0.009543,-0.024086
2335,-0.033523,-0.009543,-0.009662
2336,-0.010555,-0.025317,0.004761
2337,-0.010555,-0.025317,0.004761
2338,0.035379,-0.009543,0.019185
2339,0.012412,-0.009543,0.004761
2340,-0.010555,0.006231,0.004761
2341,0.035379,-0.009543,0.004761
2342,0.058346,0.006231,0.004761
2343,0.058346,-0.009543,-0.009662
2344,-0.010555,-0.041091,-0.024086
2345,-0.010555,-0.025317,-0.03851
2346,-0.010555,-0.025317,-0.024086
2347,-0.033523,-0.025317,-0.024086
2348,-0.05649,-0.025317,-0.03851
2349,-0.010555,-0.025317,-0.009662
2350,0.058346,-0.009543,-0.024086
2351,0.035379,-0.009543,-0.009662
2352,-0.102424,-0.025317,0.004761
2353,-0.010555,-0.009543,0.019185
2354,-0.010555,0.006231,0.004761
2355,0.012412,-0.009543,0.004761
2356,-0.010555,0.022005,0.004761
2357,-0.05649,0.006231,-0.009662
2358,0.058346,-0.025317,-0.009662
2359,0.058346,-0.041091,-0.024086
2360,0.035379,-0.009543,-0.009662
2361,0.081313,-0.009543,-0.009662
2362,0.035379,0.006231,0.004761
2363,-0.010555,-0.009543,0.019185
2364,0.012412,0.006231,0.019185
2365,0.058346,0.006231,-0.03851
2366,0.035379,0.006231,0.004761
2367,0.081313,0.006231,-0.009662
2368,0.012412,0.006231,-0.009662
2369,0.058346,0.022005,-0.009662
2370,-0.010555,-0.041091,-0.009662
2371,-0.05649,-0.072639,-0.009662
2372,-0.125391,-0.009543,0.004761
2373,-0.05649,-0.025317,0.004761
2374,-0.102424,-0.025317,-0.009662
2375,-0.05649,-0.009543,0.004761
2376,-0.010555,-0.009543,-0.024086
2377,0.10428,-0.025317,-0.009662
2378,0.058346,-0.025317,-0.024086
2379,0.058346,-0.009543,-0.009662
2380,0.081313,-0.009543,0.004761
2381,0.035379,0.006231,0.004761
2382,0.012412,-0.009543,-0.024086
2383,0.035379,-0.009543,-0.03851
2384,0.035379,-0.025317,-0.024086
2385,0.012412,0.006231,-0.009662
2386,-0.079457,0.006231,0.019185
2387,-0.010555,0.006231,0.004761
2388,0.012412,-0.025317,0.033609
2389,0.012412,0.006231,0.019185
2390,0.012412,-0.009543,0.019185
2391,0.012412,-0.025317,-0.009662
2392,0.035379,-0.009543,-0.009662
2393,-0.010555,-0.009543,-0.009662
2394,-0.010555,-0.009543,0.004761
2395,0.012412,-0.009543,-0.009662
2396,0.012412,-0.009543,-0.009662
2397,-0.010555,-0.009543,-0.009662
2398,-0.010555,-0.009543,0.004761
2399,0.012412,-0.025317,0.019185
2400,0.058346,0.006231,0.004761
2401,0.035379,-0.025317,0.019185
2402,0.058346,0.006231,0.004761
2403,-0.102424,-0.025317,-0.024086
2404,-0.033523,0.006231,-0.009662
2405,-0.010555,-0.009543,0.004761
2406,-0.033523,-0.009543,0.004761
2407,-0.033523,-0.009543,-0.009662
2408,0.081313,-0.009543,0.004761
2409,0.012412,-0.009543,0.004761
2410,-0.05649,-0.025317,-0.009662
2411,-0.033523,-0.009543,-0.009662
2412,-0.010555,-0.025317,-0.009662
2413,-0.033523,-0.009543,-0.024086
2414,0.012412,-0.025317,-0.009662
2415,0.035379,-0.025317,0.004761
2416,-0.010555,-0.009543,-0.009662
2417,-0.010555,-0.025317,0.004761
2418,0.012412,0.006231,0.004761
2419,0.035379,-0.009543,0.004761
2420,0.058346,-0.009543,0.019185
2421,0.012412,-0.009543,-0.009662
2422,0.035379,-0.025317,-0.024086
2423,0.058346,-0.025317,-0.009662
2424,0.035379,0.006231,0.004761
2425,-0.010555,-0.009543,0.004761
2426,0.058346,-0.009543,0.004761
2427,-0.010555,-0.009543,0.004761
2428,0.035379,0.006231,0.004761
2429,0.012412,0.022005,0.004761
2430,0.012412,0.022005,0.004761
2431,0.035379,-0.009543,0.019185
2432,-0.010555,-0.009543,0.004761
2433,-0.010555,-0.041091,-0.009662
2434,-0.102424,-0.056865,-0.024086
2435,-0.033523,-0.056865,0.004761
2436,-0.05649,-0.041091,-0.009662
2437,-0.010555,-0.025317,-0.024086
2438,0.012412,-0.025317,-0.024086
2439,0.058346,-0.056865,-0.009662
2440,-0.010555,-0.009543,0.004761
2441,-0.010555,0.006231,0.004761
2442,0.012412,-0.009543,0.033609
2443,0.081313,-0.025317,0.004761
2444,-0.010555,-0.009543,0.004761
2445,-0.033523,0.006231,-0.009662
2446,-0.010555,0.006231,-0.009662
2447,0.012412,-0.009543,0.019185
2448,-0.010555,0.006231,0.019185
2449,-0.033523,-0.025317,-0.009662
2450,0.012412,-0.025317,-0.009662
2451,0.035379,-0.041091,-0.009662
2452,0.035379,-0.009543,-0.024086
2453,0.012412,-0.009543,-0.009662
2454,0.058346,-0.009543,-0.009662
2455,0.035379,-0.009543,0.004761
2456,-0.010555,-0.009543,-0.024086
2457,0.058346,-0.009543,0.004761
2458,-0.010555,-0.009543,-0.009662
2459,0.012412,-0.025317,-0.009662
2460,0.035379,-0.009543,-0.009662
2461,0.012412,-0.009543,-0.009662
2462,0.012412,-0.009543,-0.009662
2463,-0.033523,-0.025317,-0.009662
2464,-0.079457,-0.025317,-0.024086
2465,-0.010555,-0.009543,-0.009662
2466,-0.010555,-0.025317,0.004761
2467,-0.102424,-0.025317,-0.009662
2468,-0.033523,-0.009543,0.019185
2469,-0.010555,-0.009543,0.004761
2470,0.012412,-0.009543,0.004761
2471,0.012412,0.006231,0.004761
2472,-0.010555,0.022005,0.004761
2473,-0.010555,-0.009543,-0.009662
2474,0.012412,-0.025317,-0.009662
2475,-0.033523,-0.025317,0.048033
2476,-0.033523,-0.025317,0.004761
2477,0.012412,0.006231,0.004761
2478,0.035379,0.006231,0.004761
2479,-0.010555,-0.009543,0.004761
2480,0.012412,-0.025317,-0.009662
2481,0.035379,-0.025317,-0.024086
2482,0.058346,-0.025317,-0.009662
2483,0.012412,-0.009543,0.004761
2484,0.081313,0.006231,0.004761
2485,0.035379,-0.025317,0.004761
2486,-0.010555,-0.009543,-0.009662
2487,-0.05649,0.006231,-0.024086
2488,0.035379,-0.009543,0.004761
2489,-0.010555,-0.009543,-0.009662
2490,-0.033523,-0.025317,-0.009662
2491,0.012412,-0.009543,-0.009662
2492,0.012412,0.006231,-0.009662
2493,0.035379,-0.025317,0.019185
2494,0.012412,-0.009543,0.004761
2495,-0.05649,-0.009543,0.004761
2496,-0.079457,-0.009543,0.019185
2497,-0.010555,0.006231,0.004761
2498,-0.033523,0.022005,-0.024086
2499,-0.033523,-0.025317,-0.024086
2500,0.035379,0.006231,0.004761
2501,0.012412,-0.041091,-0.03851
2502,-0.033523,-0.072639,-0.009662
2503,-0.010555,-0.041091,-0.009662
2504,-0.010555,-0.025317,0.004761
2505,0.058346,-0.009543,0.004761
2506,0.012412,-0.009543,0.004761
2507,0.035379,0.006231,-0.024086
2508,0.035379,0.006231,-0.009662
2509,0.058346,-0.009543,0.004761
2510,0.035379,-0.025317,-0.009662
2511,0.058346,-0.041091,-0.009662
2512,0.035379,0.006231,0.004761
2513,0.012412,-0.009543,0.004761
2514,-0.033523,-0.009543,-0.009662
2515,-0.010555,-0.009543,-0.024086
2516,-0.010555,-0.025317,-0.009662
2517,-0.010555,-0.009543,-0.024086
2518,-0.05649,-0.009543,-0.009662
2519,-0.033523,-0.009543,0.019185
2520,-0.05649,-0.025317,-0.009662
2521,-0.05649,-0.009543,0.004761
2522,-0.05649,-0.025317,0.004761
2523,0.012412,0.006231,-0.024086
2524,0.035379,0.022005,-0.009662
2525,0.012412,0.006231,-0.024086
2526,0.012412,0.006231,-0.009662
2527,0.012412,-0.009543,0.004761
2528,0.081313,-0.009543,0.004761
2529,-0.05649,-0.009543,-0.024086
2530,-0.033523,-0.009543,-0.009662
2531,-0.010555,0.006231,0.004761
2532,0.058346,-0.025317,-0.009662
2533,0.035379,-0.025317,0.004761
2534,0.058346,-0.025317,0.004761
2535,0.058346,-0.025317,-0.009662
2536,-0.010555,0.006231,-0.009662
2537,0.012412,-0.009543,-0.009662
2538,0.035379,0.006231,0.004761
2539,0.012412,-0.025317,0.004761
2540,0.012412,-0.009543,-0.009662
2541,0.012412,-0.009543,-0.009662
2542,0.012412,-0.009543,-0.024086
2543,0.012412,-0.009543,-0.009662
2544,-0.033523,0.022005,0.004761
2545,-0.033523,-0.009543,0.004761
2546,0.058346,-0.025317,-0.024086
2547,-0.010555,-0.025317,0.004761
2548,-0.010555,-0.009543,-0.024086
2549,-0.033523,-0.009543,-0.024086
2550,-0.033523,-0.025317,-0.009662
2551,-0.010555,0.006231,0.019185
2552,-0.05649,-0.009543,0.004761
2553,-0.05649,-0.009543,0.004761
2554,0.012412,-0.025317,-0.009662
2555,-0.033523,-0.025317,-0.009662
2556,-0.033523,-0.009543,-0.024086
2557,-0.033523,-0.009543,-0.009662
2558,0.012412,-0.009543,0.004761
2559,-0.010555,-0.025317,-0.009662
2560,0.012412,-0.009543,0.004761
2561,0.035379,-0.009543,0.004761
2562,0.035379,-0.009543,0.004761
2563,-0.010555,0.006231,0.004761
2564,0.035379,0.03778,-0.009662
2565,0.035379,0.006231,0.004761
2566,0.035379,-0.009543,-0.009662
2567,-0.010555,0.006231,-0.009662
2568,0.035379,-0.056865,-0.009662
2569,0.035379,-0.056865,-0.009662
2570,-0.010555,-0.025317,-0.009662
2571,0.012412,-0.025317,0.004761
2572,0.035379,-0.009543,-0.009662
2573,0.035379,-0.009543,-0.009662
2574,-0.033523,-0.025317,-0.009662
2575,-0.033523,-0.025317,0.004761
2576,-0.033523,0.006231,0.048033
2577,0.012412,-0.009543,-0.024086
2578,-0.05649,-0.009543,-0.009662
2579,-0.05649,-0.025317,-0.009662
2580,0.012412,-0.025317,-0.009662
2581,-0.010555,-0.009543,-0.009662
2582,-0.010555,-0.009543,-0.009662
2583,-0.033523,-0.025317,-0.009662
2584,0.012412,-0.025317,-0.009662
2585,0.035379,-0.009543,-0.009662
2586,-0.010555,-0.009543,0.004761
2587,-0.010555,-0.009543,0.004761
2588,-0.010555,-0.025317,0.004761
2589,0.035379,0.006231,0.004761
2590,-0.033523,0.006231,0.004761
2591,-0.010555,-0.009543,-0.009662
2592,0.012412,-0.009543,-0.009662
2593,0.081313,-0.009543,0.004761
2594,-0.010555,-0.041091,-0.009662
2595,-0.010555,-0.025317,-0.009662
2596,0.035379,-0.009543,0.004761
2597,0.012412,0.022005,0.019185
2598,-0.05649,-0.009543,0.004761
2599,0.058346,0.006231,0.019185
2600,0.012412,-0.009543,0.004761
2601,-0.05649,-0.025317,0.004761
2602,-0.033523,-0.025317,-0.009662
2603,-0.033523,-0.025317,0.004761
2604,-0.010555,-0.025317,-0.009662
2605,-0.033523,-0.025317,-0.024086
2606,-0.079457,-0.009543,-0.024086
2607,0.012412,0.022005,-0.03851
2608,-0.010555,-0.025317,-0.009662
2609,-0.033523,-0.009543,-0.024086
2610,-0.05649,-0.009543,-0.009662
2611,0.012412,-0.025317,-0.009662
2612,-0.010555,-0.009543,-0.009662
2613,-0.033523,-0.025317,-0.009662
2614,0.127248,-0.009543,0.019185
2615,0.012412,-0.025317,0.004761
2616,0.012412,-0.025317,-0.009662
2617,0.012412,-0.009543,-0.009662
2618,-0.010555,-0.025317,0.004761
2619,0.035379,-0.025317,0.004761
2620,0.058346,-0.009543,-0.009662
2621,-0.010555,0.006231,0.004761
2622,0.035379,0.006231,-0.009662
2623,0.058346,-0.009543,0.004761
2624,0.012412,0.006231,-0.024086
2625,-0.010555,-0.009543,0.004761
2626,-0.033523,-0.056865,-0.024086
2627,-0.010555,-0.056865,-0.009662
2628,-0.033523,-0.025317,0.004761
2629,-0.010555,-0.009543,0.004761
2630,-0.033523,-0.025317,0.004761
2631,-0.010555,-0.009543,0.004761
2632,-0.05649,-0.009543,0.004761
2633,-0.033523,0.006231,-0.009662
2634,-0.05649,-0.009543,-0.009662
2635,-0.010555,-0.009543,0.004761
2636,0.012412,-0.009543,0.048033
2637,0.035379,-0.025317,-0.024086
2638,0.081313,-0.025317,-0.03851
2639,0.058346,-0.041091,-0.024086
2640,-0.010555,0.006231,0.019185
2641,-0.05649,-0.009543,0.004761
2642,-0.010555,-0.009543,-0.009662
2643,-0.010555,-0.009543,0.019185
2644,-0.033523,-0.025317,-0.009662
2645,0.012412,-0.025317,-0.009662
2646,0.058346,-0.009543,-0.009662
2647,0.081313,-0.009543,-0.009662
2648,-0.010555,-0.009543,-0.009662
2649,0.035379,-0.025317,-0.009662
2650,0.012412,0.006231,-0.009662
2651,0.035379,0.006231,0.004761
2652,-0.033523,-0.009543,0.004761
2653,-0.010555,-0.009543,0.019185
2654,0.012412,-0.009543,-0.009662
2655,-0.010555,0.006231,-0.024086
2656,-0.033523,-0.009543,-0.009662
2657,0.012412,0.006231,-0.009662
2658,-0.010555,-0.009543,-0.024086
2659,0.035379,-0.025317,-0.024086
2660,-0.033523,-0.009543,0.004761
2661,0.035379,-0.009543,0.004761
2662,0.012412,-0.025317,0.004761
2663,0.012412,0.006231,-0.009662
2664,-0.010555,-0.009543,-0.009662
2665,0.012412,-0.009543,0.004761
2666,0.012412,-0.009543,0.004761
2667,0.012412,-0.009543,-0.009662
2668,-0.010555,0.006231,-0.009662
2669,-0.010555,-0.009543,-0.009662
2670,0.012412,-0.025317,-0.009662
2671,-0.010555,-0.009543,-0.009662
2672,-0.010555,-0.009543,0.004761
2673,0.035379,-0.025317,0.004761
2674,-0.010555,-0.009543,0.004761
2675,0.012412,-0.009543,-0.009662
2676,0.035379,-0.009543,-0.009662
2677,0.035379,-0.009543,0.004761
2678,-0.010555,-0.025317,-0.009662
2679,0.058346,-0.009543,-0.009662
2680,0.058346,-0.009543,-0.009662
2681,-0.033523,-0.009543,-0.009662
2682,0.012412,0.006231,0.004761
2683,0.035379,0.006231,0.004761
2684,0.058346,-0.009543,0.004761
2685,0.012412,-0.009543,0.004761
2686,0.035379,-0.009543,-0.009662
2687,-0.125391,-0.009543,-0.009662
2688,0.012412,0.03778,-0.009662
2689,-0.033523,0.006231,-0.009662
2690,-0.033523,0.006231,-0.009662
2691,-0.05649,-0.025317,-0.024086
2692,0.035379,-0.041091,-0.009662
2693,-0.033523,-0.056865,-0.024086
2694,-0.079457,-0.041091,-0.009662
2695,-0.010555,-0.025317,-0.009662
2696,0.012412,-0.009543,0.004761
2697,-0.010555,-0.009543,0.019185
2698,-0.033523,0.022005,0.019185
2699,0.012412,-0.009543,-0.024086
2700,0.012412,-0.025317,0.004761
2701,-0.05649,-0.025317,-0.024086
2702,-0.010555,-0.025317,-0.009662
2703,0.012412,-0.009543,0.004761
2704,0.035379,-0.025317,0.004761
2705,0.035379,-0.009543,0.004761
2706,-0.010555,0.069328,0.004761
2707,0.058346,0.022005,0.019185
2708,0.035379,0.006231,0.004761
2709,-0.033523,-0.009543,-0.009662
2710,0.035379,0.006231,-0.024086
2711,0.035379,0.006231,0.019185
2712,0.035379,0.006231,0.019185
2713,0.058346,-0.009543,0.004761
2714,0.10428,0.006231,-0.009662
2715,0.035379,0.006231,-0.024086
2716,0.012412,-0.009543,0.004761
2717,0.012412,-0.009543,-0.009662
2718,-0.05649,-0.009543,-0.009662
2719,0.035379,-0.009543,-0.009662
2720,0.012412,-0.025317,-0.024086
2721,-0.102424,-0.025317,-0.024086
2722,-0.033523,-0.025317,-0.009662
2723,-0.033523,0.006231,-0.024086
2724,-0.010555,-0.009543,-0.024086
2725,-0.010555,-0.009543,-0.009662
2726,0.012412,-0.009543,-0.024086
2727,0.012412,-0.009543,0.004761
2728,-0.010555,0.006231,-0.009662
2729,-0.033523,0.006231,-0.009662
2730,-0.010555,-0.009543,0.019185
2731,0.058346,-0.009543,0.004761
2732,-0.010555,0.006231,0.004761
2733,0.012412,-0.009543,0.004761
2734,0.012412,-0.025317,-0.009662
2735,0.058346,-0.009543,-0.009662
2736,0.058346,0.03778,-0.009662
2737,0.058346,-0.009543,0.004761
2738,0.012412,-0.009543,-0.009662
2739,0.035379,-0.025317,-0.03851
2740,0.035379,-0.025317,-0.009662
2741,0.012412,-0.025317,0.004761
2742,0.012412,0.006231,0.004761
2743,-0.010555,-0.009543,0.004761
2744,0.012412,-0.025317,-0.009662
2745,0.012412,-0.025317,-0.024086
2746,0.035379,0.006231,0.004761
2747,-0.010555,-0.025317,-0.009662
2748,-0.033523,0.022005,-0.009662
2749,-0.05649,-0.009543,-0.009662
2750,-0.010555,0.006231,-0.009662
2751,-0.05649,-0.009543,0.004761
2752,-0.033523,0.006231,0.004761
2753,-0.010555,-0.009543,-0.009662
2754,-0.010555,0.006231,0.004761
2755,-0.079457,0.03778,0.004761
2756,-0.010555,0.022005,0.004761
2757,0.012412,0.022005,0.004761
2758,0.10428,-0.009543,-0.009662
2759,0.035379,-0.041091,0.004761
2760,-0.010555,-0.041091,-0.009662
2761,0.012412,-0.025317,-0.009662
2762,0.058346,-0.009543,-0.024086
2763,0.012412,-0.025317,0.048033
2764,0.012412,-0.025317,-0.009662
2765,0.035379,-0.009543,0.004761
2766,0.035379,0.006231,0.004761
2767,0.012412,0.022005,0.004761
2768,0.012412,0.006231,-0.009662
2769,-0.010555,-0.009543,-0.009662
2770,0.035379,-0.009543,-0.009662
2771,0.012412,0.006231,-0.024086
2772,0.012412,-0.009543,-0.024086
2773,-0.010555,-0.009543,-0.009662
2774,-0.033523,0.006231,0.019185
2775,-0.010555,-0.009543,0.004761
2776,-0.010555,-0.009543,0.004761
2777,0.035379,-0.009543,-0.009662
2778,-0.010555,-0.009543,0.004761
2779,0.012412,0.006231,0.033609
2780,-0.033523,-0.025317,-0.009662
2781,-0.05649,-0.025317,-0.009662
2782,-0.010555,-0.025317,0.004761
2783,0.035379,-0.025317,0.004761
2784,-0.010555,-0.041091,-0.024086
2785,-0.010555,-0.009543,-0.024086
2786,0.012412,-0.025317,-0.024086
2787,0.012412,-0.041091,-0.009662
2788,-0.033523,-0.025317,-0.009662
2789,-0.010555,-0.009543,0.004761
2790,-0.033523,-0.009543,-0.009662
2791,-0.033523,-0.025317,0.004761
2792,0.035379,-0.009543,-0.009662
2793,-0.010555,0.006231,-0.009662
2794,-0.010555,0.006231,-0.009662
2795,0.035379,0.022005,0.004761
2796,0.035379,-0.025317,0.004761
2797,0.012412,-0.025317,-0.009662
2798,0.058346,-0.025317,-0.009662
2799,0.012412,-0.009543,0.004761
2800,0.012412,0.006231,0.004761
2801,-0.010555,-0.025317,-0.009662
2802,0.012412,-0.025317,-0.024086
2803,0.035379,-0.009543,-0.024086
2804,-0.010555,-0.041091,-0.009662
2805,-0.033523,-0.025317,-0.009662
2806,-0.010555,0.006231,0.004761
2807,0.012412,-0.009543,-0.024086
2808,-0.010555,-0.009543,-0.009662
2809,-0.033523,0.006231,0.004761
2810,-0.010555,-0.009543,0.004761
2811,-0.010555,0.006231,-0.009662
2812,-0.010555,-0.025317,0.004761
2813,0.012412,-0.025317,0.004761
2814,-0.05649,-0.009543,0.004761
2815,0.081313,0.006231,0.019185
2816,0.012412,-0.009543,0.019185
2817,-0.010555,-0.009543,-0.009662
2818,-0.033523,-0.025317,-0.024086
2819,0.012412,-0.041091,-0.009662
2820,-0.010555,-0.025317,-0.009662
2821,-0.033523,-0.025317,-0.009662
2822,0.035379,0.022005,-0.024086
2823,0.058346,-0.009543,-0.009662
2824,-0.010555,-0.009543,-0.024086
2825,0.012412,-0.025317,0.004761
2826,0.012412,0.022005,-0.009662
2827,0.035379,0.022005,-0.03851
2828,-0.033523,0.022005,0.004761
2829,0.035379,0.03778,0.004761
2830,0.012412,0.006231,0.004761
2831,0.012412,-0.025317,0.004761
2832,-0.010555,-0.072639,-0.009662
2833,-0.033523,-0.041091,0.004761
2834,-0.010555,-0.056865,0.004761
2835,-0.033523,-0.009543,0.004761
2836,-0.033523,-0.009543,-0.009662
2837,-0.033523,-0.009543,0.004761
2838,-0.010555,-0.009543,-0.009662
2839,-0.05649,-0.041091,-0.009662
2840,-0.033523,-0.009543,-0.024086
2841,0.058346,0.006231,0.004761
2842,-0.033523,-0.009543,-0.009662
2843,-0.05649,-0.009543,0.004761
2844,0.035379,-0.009543,-0.024086
2845,0.012412,-0.009543,-0.009662
2846,-0.010555,-0.009543,-0.009662
2847,0.012412,0.006231,0.004761
2848,0.058346,-0.009543,-0.009662
2849,0.035379,0.006231,-0.009662
2850,0.058346,0.006231,0.004761
2851,0.035379,-0.025317,0.004761
2852,0.012412,-0.025317,0.004761
2853,0.035379,-0.025317,0.004761
2854,0.035379,-0.009543,-0.009662
2855,0.012412,-0.025317,-0.009662
2856,0.012412,-0.041091,0.004761
2857,0.035379,0.006231,-0.009662
2858,-0.033523,-0.009543,-0.009662
2859,-0.05649,0.006231,-0.009662
2860,0.012412,0.022005,0.004761
2861,0.012412,0.006231,0.004761
2862,-0.010555,-0.009543,0.004761
2863,-0.033523,-0.025317,-0.009662
2864,-0.033523,-0.009543,-0.009662
2865,-0.010555,-0.025317,-0.024086
2866,-0.05649,-0.009543,-0.009662
2867,-0.033523,-0.025317,-0.009662
2868,0.058346,-0.009543,-0.009662
2869,-0.033523,-0.025317,0.004761
2870,-0.079457,-0.009543,0.004761
2871,-0.033523,-0.009543,0.004761
2872,0.035379,-0.009543,0.004761
2873,0.058346,-0.009543,0.004761
2874,-0.033523,-0.025317,-0.024086
2875,0.012412,-0.025317,0.004761
2876,0.035379,-0.025317,-0.024086
2877,-0.010555,-0.009543,-0.009662
2878,0.058346,-0.009543,-0.024086
2879,0.012412,-0.009543,-0.009662
2880,-0.010555,-0.009543,0.004761
2881,0.012412,-0.025317,0.004761
2882,0.035379,-0.009543,0.019185
2883,0.012412,-0.009543,0.004761
2884,0.035379,-0.009543,-0.024086
2885,0.012412,-0.009543,-0.009662
2886,-0.010555,-0.009543,-0.009662
2887,0.058346,-0.025317,-0.009662
2888,-0.010555,-0.009543,-0.009662
2889,-0.010555,-0.025317,-0.009662
2890,-0.05649,-0.009543,0.004761
2891,-0.010555,-0.009543,-0.009662
2892,-0.010555,-0.009543,-0.009662
2893,0.012412,-0.025317,-0.009662
2894,0.012412,-0.025317,-0.009662
2895,0.012412,0.006231,0.019185
2896,-0.05649,-0.025317,-0.009662
2897,-0.033523,-0.009543,-0.009662
2898,-0.033523,0.006231,-0.009662
2899,-0.010555,-0.009543,0.004761
2900,-0.033523,-0.009543,-0.009662
2901,-0.010555,-0.009543,-0.009662
2902,0.012412,0.006231,-0.009662
2903,0.058346,-0.025317,0.004761
2904,0.012412,-0.009543,0.004761
2905,0.012412,-0.009543,-0.009662
2906,0.012412,0.006231,-0.009662
2907,0.035379,-0.009543,-0.009662
2908,0.035379,-0.025317,0.004761
2909,-0.010555,-0.009543,0.004761
2910,0.035379,0.022005,0.004761
2911,0.058346,0.022005,-0.009662
2912,0.058346,0.022005,0.004761
2913,-0.010555,0.022005,0.004761
2914,0.012412,-0.025317,-0.009662
2915,-0.033523,-0.072639,-0.024086
2916,-0.010555,-0.056865,0.004761
2917,-0.05649,-0.041091,0.019185
2918,0.012412,-0.025317,0.019185
2919,-0.010555,-0.009543,0.004761
2920,-0.010555,-0.009543,0.004761
2921,-0.033523,0.006231,-0.009662
2922,0.012412,-0.009543,-0.009662
2923,-0.010555,-0.025317,-0.009662
2924,-0.05649,-0.025317,-0.009662
2925,-0.033523,-0.041091,-0.009662
2926,0.012412,-0.041091,-0.024086
2927,-0.010555,-0.025317,-0.024086
2928,-0.010555,-0.009543,-0.009662
2929,0.035379,-0.025317,-0.009662
2930,0.127248,-0.009543,-0.024086
2931,0.035379,0.006231,-0.009662
2932,0.058346,-0.025317,-0.009662
2933,0.012412,-0.025317,0.004761
2934,0.012412,-0.009543,0.004761
2935,-0.033523,-0.009543,0.004761
2936,-0.033523,-0.009543,-0.024086
2937,-0.010555,-0.025317,0.004761
2938,-0.010555,-0.009543,0.004761
2939,0.012412,-0.025317,-0.009662
2940,0.012412,-0.009543,0.019185
2941,-0.010555,-0.009543,-0.009662
2942,-0.010555,-0.025317,0.004761
2943,-0.05649,-0.009543,0.004761
2944,0.012412,-0.009543,-0.009662
2945,-0.010555,0.006231,-0.009662
2946,-0.010555,-0.009543,-0.009662
2947,-0.033523,-0.009543,-0.009662
2948,-0.010555,0.006231,0.004761
2949,0.035379,-0.025317,-0.024086
2950,-0.033523,-0.009543,0.004761
2951,0.012412,-0.009543,0.004761
2952,0.081313,-0.009543,-0.009662
2953,0.012412,-0.025317,0.004761
2954,-0.05649,0.006231,0.004761
2955,-0.05649,0.022005,0.004761
2956,-0.010555,-0.009543,0.004761
2957,0.012412,-0.009543,0.004761
2958,-0.033523,0.006231,0.019185
2959,-0.010555,-0.009543,0.004761
2960,0.035379,-0.041091,-0.024086
2961,-0.033523,-0.025317,-0.024086
2962,-0.033523,-0.009543,0.004761
2963,-0.010555,-0.041091,0.004761
2964,-0.010555,-0.009543,-0.009662
2965,0.012412,-0.025317,-0.024086
2966,0.035379,-0.025317,-0.024086
2967,0.035379,-0.009543,-0.024086
2968,0.012412,-0.009543,0.004761
2969,-0.010555,0.006231,-0.009662
2970,-0.033523,-0.009543,-0.009662
2971,0.058346,-0.009543,0.004761
2972,0.035379,0.006231,0.004761
2973,-0.010555,-0.025317,0.004761
2974,-0.010555,0.006231,0.004761
2975,-0.05649,-0.025317,-0.009662
2976,-0.010555,-0.009543,0.004761
2977,-0.010555,-0.009543,0.004761
2978,-0.033523,-0.009543,0.004761
2979,-0.05649,-0.025317,0.004761
2980,-0.033523,0.006231,0.004761
2981,-0.033523,-0.009543,0.004761
2982,0.012412,-0.009543,-0.009662
2983,0.012412,-0.009543,-0.009662
2984,0.012412,-0.009543,-0.009662
2985,-0.033523,0.022005,0.019185
2986,-0.010555,-0.025317,0.019185
2987,0.035379,-0.009543,0.019185
2988,0.058346,0.022005,0.004761
2989,0.012412,0.006231,0.004761
2990,0.012412,0.006231,-0.009662
2991,0.035379,-0.009543,0.004761
2992,0.012412,0.006231,0.004761
2993,-0.033523,-0.041091,-0.024086
2994,-0.010555,-0.056865,0.004761
2995,0.035379,-0.041091,-0.024086
2996,0.035379,-0.025317,-0.03851
2997,-0.010555,-0.025317,-0.024086
2998,0.012412,-0.025317,0.004761
2999,-0.010555,-0.009543,-0.009662
3000,0.012412,-0.009543,0.004761
3001,0.012412,-0.025317,-0.009662
3002,0.035379,0.006231,0.004761
3003,0.035379,-0.025317,0.004761
3004,-0.033523,-0.025317,-0.009662
3005,-0.010555,-0.025317,-0.009662
3006,-0.033523,-0.025317,-0.009662
3007,0.035379,-0.009543,-0.024086
3008,-0.033523,-0.009543,-0.024086
3009,-0.05649,-0.041091,0.004761
3010,-0.010555,-0.025317,-0.024086
3011,-0.010555,-0.009543,0.004761
3012,-0.010555,-0.025317,-0.009662
3013,-0.033523,-0.009543,-0.009662
3014,-0.033523,-0.009543,-0.009662
3015,-0.033523,-0.025317,0.004761
3016,-0.010555,-0.025317,-0.009662
3017,0.035379,-0.009543,0.019185
3018,-0.033523,-0.009543,0.004761
3019,0.012412,-0.009543,0.004761
3020,-0.010555,0.006231,0.004761
3021,0.058346,-0.009543,-0.009662
3022,0.012412,-0.025317,-0.009662
3023,0.035379,-0.009543,-0.024086
3024,-0.033523,-0.009543,-0.009662
3025,0.035379,-0.025317,-0.009662
3026,0.058346,-0.041091,0.004761
3027,0.012412,-0.025317,-0.024086
3028,-0.033523,0.006231,-0.009662
3029,0.012412,0.006231,0.004761
3030,0.012412,-0.009543,0.019185
3031,0.035379,-0.009543,0.004761
3032,-0.010555,-0.009543,0.004761
3033,0.012412,-0.041091,0.004761
3034,0.012412,-0.009543,0.004761
3035,-0.010555,-0.009543,-0.009662
3036,-0.033523,-0.009543,-0.009662
3037,0.012412,0.006231,-0.009662
3038,-0.033523,-0.009543,-0.009662
3039,-0.010555,-0.009543,0.004761
3040,0.035379,-0.009543,-0.009662
3041,0.012412,0.006231,-0.024086
3042,-0.102424,-0.009543,-0.009662
3043,-0.079457,-0.041091,-0.024086
3044,0.012412,-0.009543,-0.009662
3045,0.012412,-0.041091,-0.009662
3046,-0.079457,-0.009543,-0.024086
3047,0.012412,-0.009543,-0.009662
3048,-0.033523,-0.009543,0.004761
3049,0.058346,-0.009543,0.004761
3050,0.058346,0.006231,0.004761
3051,0.035379,-0.009543,0.004761
3052,0.035379,-0.009543,0.004761
3053,0.035379,-0.025317,0.004761
3054,0.012412,-0.025317,-0.009662
3055,0.012412,0.006231,-0.024086
3056,0.081313,-0.009543,-0.009662
3057,-0.010555,-0.009543,-0.009662
3058,0.012412,0.006231,0.019185
3059,-0.010555,-0.009543,0.004761
3060,0.035379,0.006231,0.004761
3061,0.012412,-0.041091,-0.024086
3062,0.012412,0.006231,-0.024086
3063,-0.010555,-0.009543,-0.009662
3064,-0.010555,-0.025317,-0.009662
3065,-0.033523,-0.009543,0.004761
3066,-0.033523,0.006231,-0.009662
3067,0.035379,-0.025317,0.004761
3068,0.058346,0.006231,-0.009662
3069,-0.033523,-0.009543,0.004761
3070,0.012412,-0.009543,0.004761
3071,0.035379,-0.009543,0.004761
3072,0.035379,0.006231,0.019185
3073,-0.033523,-0.009543,0.019185
3074,0.012412,-0.025317,-0.009662
3075,0.012412,0.022005,0.004761
3076,0.058346,0.006231,0.033609
3077,-0.010555,0.03778,0.019185
3078,0.012412,-0.009543,0.019185
3079,0.035379,-0.025317,0.004761
3080,0.035379,-0.056865,0.004761
3081,0.012412,-0.072639,-0.009662
3082,0.012412,-0.056865,-0.009662
3083,0.035379,-0.041091,-0.03851
3084,0.012412,-0.009543,-0.024086
3085,0.035379,-0.009543,-0.024086
3086,-0.010555,-0.009543,-0.024086
3087,-0.010555,-0.025317,-0.03851
3088,0.035379,-0.009543,-0.009662
3089,0.012412,-0.025317,0.004761
3090,0.035379,0.022005,-0.009662
3091,-0.010555,-0.025317,0.004761
3092,-0.033523,-0.025317,-0.009662
3093,-0.010555,0.006231,-0.009662
3094,-0.010555,-0.025317,-0.024086
3095,-0.079457,-0.009543,-0.024086
3096,-0.033523,-0.041091,-0.009662
3097,0.012412,-0.009543,-0.009662
3098,0.035379,-0.025317,-0.009662
3099,0.035379,-0.025317,-0.009662
3100,-0.010555,0.006231,0.004761
3101,0.012412,-0.009543,0.004761
3102,0.035379,-0.009543,0.004761
3103,0.081313,0.006231,0.004761
3104,0.012412,-0.025317,0.019185
3105,0.035379,-0.009543,-0.009662
3106,0.058346,-0.009543,-0.024086
3107,0.012412,-0.009543,-0.009662
3108,-0.010555,-0.025317,0.004761
3109,0.012412,-0.025317,-0.009662
3110,0.012412,-0.009543,-0.024086
3111,-0.05649,-0.009543,-0.009662
3112,-0.010555,-0.009543,-0.009662
3113,0.012412,-0.009543,-0.009662
3114,0.012412,-0.009543,0.004761
3115,0.012412,-0.009543,-0.009662
3116,-0.033523,-0.041091,-0.024086
3117,-0.05649,0.006231,0.019185
3118,0.058346,-0.025317,0.004761
3119,-0.033523,0.006231,-0.009662
3120,-0.010555,-0.025317,-0.009662
3121,0.012412,0.006231,0.004761
3122,-0.033523,-0.025317,-0.009662
3123,-0.010555,-0.009543,-0.009662
3124,0.035379,-0.009543,-0.024086
3125,0.012412,0.006231,0.004761
3126,-0.033523,-0.009543,-0.009662
3127,-0.05649,-0.009543,0.004761
3128,0.012412,-0.009543,-0.024086
3129,0.081313,-0.025317,-0.024086
3130,0.012412,-0.009543,0.004761
3131,-0.033523,0.006231,0.019185
3132,-0.010555,-0.009543,0.004761
3133,-0.010555,-0.009543,0.004761
3134,0.012412,-0.009543,-0.009662
3135,-0.010555,-0.025317,-0.009662
3136,-0.010555,-0.009543,-0.009662
3137,0.035379,-0.025317,-0.009662
3138,0.012412,-0.009543,-0.009662
3139,0.035379,-0.025317,-0.009662
3140,0.058346,0.006231,-0.009662
3141,-0.033523,-0.009543,-0.009662
3142,-0.010555,-0.009543,-0.009662
3143,-0.033523,-0.009543,0.004761
3144,0.012412,0.006231,-0.009662
3145,-0.033523,-0.025317,0.004761
3146,0.035379,0.006231,-0.009662
3147,0.012412,-0.009543,-0.009662
3148,0.058346,-0.009543,-0.009662
3149,-0.010555,-0.009543,-0.009662
3150,-0.05649,0.006231,0.004761
3151,0.012412,0.006231,0.004761
3152,0.012412,0.022005,0.004761
3153,-0.010555,0.022005,0.019185
3154,-0.010555,0.006231,0.004761
3155,0.081313,0.006231,0.019185
3156,0.035379,0.006231,0.004761
3157,0.081313,-0.056865,-0.024086
3158,-0.010555,-0.072639,-0.024086
3159,-0.010555,-0.072639,-0.024086
3160,-0.010555,-0.025317,0.004761
3161,0.012412,0.006231,0.004761
3162,0.012412,0.006231,-0.009662
3163,0.081313,0.006231,-0.009662
3164,-0.010555,-0.025317,-0.024086
3165,-0.033523,-0.025317,0.004761
3166,0.035379,0.006231,0.019185
3167,0.035379,-0.009543,-0.009662
3168,0.012412,-0.009543,-0.024086
3169,0.012412,-0.009543,-0.009662
3170,-0.010555,-0.009543,-0.009662
3171,-0.033523,-0.009543,-0.009662
3172,-0.010555,-0.025317,-0.024086
3173,-0.05649,-0.025317,-0.009662
3174,0.035379,-0.025317,-0.024086
3175,0.012412,-0.025317,0.004761
3176,-0.05649,-0.009543,-0.024086
3177,-0.033523,-0.009543,-0.009662
3178,-0.010555,-0.009543,0.004761
3179,-0.033523,0.006231,0.004761
3180,-0.033523,-0.009543,0.004761
3181,0.012412,-0.009543,0.004761
3182,0.012412,0.022005,0.004761
3183,0.012412,-0.009543,0.004761
3184,-0.010555,-0.041091,0.004761
3185,0.012412,-0.009543,-0.009662
3186,0.035379,0.006231,0.004761
3187,0.035379,-0.009543,-0.009662
3188,0.035379,-0.025317,-0.009662
3189,0.012412,-0.009543,0.004761
3190,0.035379,0.006231,0.004761
3191,-0.010555,0.006231,-0.024086
3192,0.012412,-0.009543,0.019185
3193,0.012412,-0.009543,-0.024086
3194,0.012412,0.006231,-0.009662
3195,0.035379,-0.009543,-0.009662
3196,-0.033523,-0.009543,-0.024086
3197,0.058346,-0.009543,-0.009662
3198,0.012412,-0.009543,0.004761
3199,0.012412,0.006231,0.019185
3200,-0.033523,-0.009543,0.004761
3201,0.035379,-0.009543,-0.009662
3202,0.012412,-0.009543,-0.024086
3203,-0.010555,-0.009543,-0.009662
3204,0.012412,-0.009543,-0.024086
3205,0.012412,-0.009543,-0.009662
3206,0.035379,-0.009543,-0.009662
3207,-0.033523,-0.025317,-0.009662
3208,-0.010555,-0.041091,-0.024086
3209,-0.033523,-0.009543,0.004761
3210,-0.05649,0.022005,-0.009662
3211,-0.033523,-0.025317,0.004761
3212,0.012412,-0.025317,0.004761
3213,-0.010555,-0.009543,0.004761
3214,0.058346,-0.009543,-0.009662
3215,-0.010555,-0.025317,-0.009662
3216,0.012412,-0.009543,0.004761
3217,0.035379,-0.009543,-0.009662
3218,0.035379,-0.025317,-0.009662
3219,0.012412,-0.009543,-0.009662
3220,0.012412,-0.009543,0.004761
3221,-0.010555,0.006231,-0.009662
3222,0.012412,0.006231,-0.009662
3223,-0.010555,0.006231,-0.009662
3224,-0.010555,-0.009543,-0.009662
3225,-0.010555,-0.009543,0.004761
3226,-0.010555,0.006231,0.004761
3227,0.012412,0.006231,0.033609
3228,-0.010555,-0.009543,0.004761
3229,-0.010555,-0.009543,-0.009662
3230,-0.033523,-0.025317,-0.009662
3231,-0.010555,0.006231,0.004761
3232,0.058346,0.053554,-0.009662
3233,-0.010555,-0.009543,0.004761
3234,0.012412,-0.009543,-0.009662
3235,-0.010555,-0.041091,-0.009662
3236,0.012412,-0.056865,-0.009662
3237,-0.033523,-0.025317,0.004761
3238,-0.033523,-0.025317,0.004761
3239,0.058346,-0.009543,-0.009662
3240,0.035379,0.006231,0.004761
3241,-0.033523,0.006231,-0.009662
3242,0.012412,-0.025317,-0.009662
3243,0.081313,-0.025317,-0.009662
3244,0.012412,-0.041091,0.019185
3245,-0.010555,-0.025317,0.004761
3246,-0.010555,-0.009543,-0.009662
3247,0.012412,-0.009543,-0.009662
3248,-0.010555,0.006231,-0.009662
3249,0.012412,-0.025317,0.004761
3250,0.035379,-0.025317,0.004761
3251,-0.010555,-0.009543,0.004761
3252,0.012412,-0.025317,-0.009662
3253,-0.033523,-0.009543,0.004761
3254,-0.033523,-0.025317,0.004761
3255,-0.010555,0.006231,-0.009662
3256,0.012412,0.006231,-0.009662
3257,-0.010555,-0.009543,-0.009662
3258,-0.05649,-0.009543,-0.024086
3259,-0.033523,-0.009543,0.004761
3260,0.012412,-0.009543,-0.009662
3261,0.012412,-0.009543,0.004761
3262,0.035379,-0.009543,0.004761
3263,-0.010555,-0.009543,0.004761
3264,0.035379,0.006231,-0.009662
3265,0.012412,-0.025317,0.004761
3266,0.035379,-0.009543,0.004761
3267,0.035379,-0.009543,0.004761
3268,0.035379,-0.009543,-0.009662
3269,0.035379,0.006231,-0.009662
3270,0.058346,0.022005,0.004761
3271,0.012412,-0.009543,0.004761
3272,0.012412,-0.009543,-0.009662
3273,0.012412,-0.009543,-0.009662
3274,0.012412,-0.025317,-0.009662
3275,0.012412,-0.009543,-0.009662
3276,0.012412,-0.009543,-0.024086
3277,-0.033523,-0.041091,-0.03851
3278,-0.05649,-0.009543,-0.024086
3279,-0.033523,-0.009543,-0.024086
3280,-0.05649,-0.009543,-0.009662
3281,-0.010555,-0.009543,-0.009662
3282,0.012412,-0.009543,-0.024086
3283,0.012412,-0.009543,-0.009662
3284,-0.033523,-0.009543,0.004761
3285,-0.033523,-0.025317,0.004761
3286,-0.010555,-0.009543,-0.009662
3287,-0.010555,-0.025317,0.048033
3288,-0.033523,-0.009543,0.004761
3289,-0.010555,-0.025317,-0.009662
3290,-0.05649,-0.009543,-0.009662
3291,-0.05649,-0.009543,-0.024086
3292,-0.010555,0.006231,-0.024086
3293,0.012412,0.006231,-0.009662
3294,-0.05649,0.022005,-0.009662
3295,0.012412,0.022005,0.004761
3296,0.035379,0.006231,0.033609
3297,0.035379,-0.041091,-0.009662
3298,-0.010555,-0.056865,-0.009662
3299,0.058346,-0.041091,0.019185
3300,0.058346,-0.025317,0.004761
3301,0.058346,-0.009543,0.019185
3302,0.035379,-0.009543,0.019185
3303,0.058346,0.006231,0.004761
3304,0.035379,0.006231,0.019185
3305,0.012412,-0.009543,0.004761
3306,0.012412,-0.009543,0.019185
3307,-0.010555,-0.009543,0.004761
3308,0.035379,0.006231,0.004761
3309,0.012412,-0.009543,0.004761
3310,-0.010555,0.006231,-0.009662
3311,-0.033523,-0.025317,-0.024086
3312,-0.033523,-0.009543,-0.03851
3313,-0.010555,-0.041091,-0.009662
3314,-0.033523,-0.009543,-0.024086
3315,0.035379,-0.041091,-0.009662
3316,-0.010555,-0.009543,-0.009662
3317,-0.033523,-0.009543,-0.009662
3318,0.035379,-0.009543,-0.009662
3319,0.035379,-0.009543,-0.009662
3320,0.058346,-0.009543,-0.024086
3321,-0.010555,0.006231,-0.009662
3322,0.012412,-0.009543,0.019185
3323,0.035379,-0.009543,0.019185
3324,0.012412,0.006231,0.019185
3325,0.058346,-0.009543,-0.009662
3326,0.035379,0.022005,0.004761
3327,0.058346,0.022005,0.004761
3328,0.035379,0.006231,0.019185
3329,0.012412,0.006231,0.019185
3330,0.081313,-0.009543,0.004761
3331,0.012412,-0.025317,-0.024086
3332,-0.05649,0.006231,0.004761
3333,-0.033523,-0.025317,0.004761
3334,-0.010555,-0.009543,0.019185
3335,-0.033523,0.006231,0.004761
3336,-0.010555,-0.009543,0.004761
3337,-0.05649,-0.009543,0.004761
3338,-0.010555,-0.009543,-0.03851
3339,-0.010555,-0.041091,-0.052934
3340,-0.010555,-0.025317,-0.052934
3341,0.035379,0.006231,-0.024086
3342,-0.010555,-0.009543,-0.03851
3343,-0.079457,-0.009543,-0.009662
3344,0.012412,-0.009543,-0.024086
3345,-0.010555,0.006231,-0.024086
3346,0.035379,-0.025317,0.019185
3347,-0.010555,-0.025317,-0.009662
3348,0.012412,-0.009543,0.004761
3349,-0.010555,-0.025317,0.004761
3350,0.058346,0.006231,0.004761
3351,-0.010555,-0.009543,0.004761
3352,0.035379,0.006231,0.004761
3353,0.10428,0.006231,0.004761
3354,0.058346,0.006231,0.033609
3355,0.058346,0.006231,-0.009662
3356,0.012412,-0.009543,-0.024086
3357,-0.010555,-0.025317,0.004761
3358,0.012412,-0.009543,0.004761
3359,-0.010555,-0.009543,0.004761
3360,-0.05649,-0.009543,0.004761
3361,0.012412,-0.025317,0.004761
3362,0.012412,0.006231,-0.009662
3363,0.012412,-0.009543,0.004761
3364,-0.010555,0.006231,-0.009662
3365,0.012412,-0.025317,-0.009662
3366,-0.010555,-0.009543,-0.009662
3367,0.012412,0.006231,0.004761
3368,0.012412,0.006231,0.004761
3369,0.035379,0.006231,-0.009662
3370,0.035379,-0.025317,-0.009662
3371,0.035379,-0.009543,0.019185
3372,0.012412,0.006231,-0.009662
3373,0.012412,-0.009543,-0.009662
3374,0.012412,-0.009543,0.004761
3375,0.012412,0.006231,0.004761
3376,0.035379,-0.009543,-0.009662
3377,0.081313,-0.009543,-0.009662
3378,0.012412,-0.009543,-0.009662
3379,-0.033523,-0.009543,-0.009662
3380,-0.010555,0.006231,0.004761
3381,-0.010555,0.006231,-0.009662
3382,-0.033523,0.006231,-0.009662
3383,-0.010555,-0.009543,-0.009662
3384,0.012412,0.006231,-0.009662
3385,0.012412,0.03778,-0.009662
3386,-0.033523,-0.009543,-0.009662
3387,0.012412,0.006231,-0.009662
3388,0.012412,-0.025317,-0.009662
3389,0.012412,-0.041091,-0.009662
3390,-0.010555,-0.041091,0.004761
3391,0.012412,-0.009543,0.004761
3392,-0.010555,0.006231,-0.009662
3393,0.012412,-0.009543,-0.009662
3394,-0.033523,-0.025317,0.004761
3395,0.012412,-0.009543,0.004761
3396,0.012412,-0.025317,0.004761
3397,-0.05649,0.006231,0.004761
3398,-0.033523,-0.009543,-0.009662
3399,0.012412,-0.025317,0.004761
3400,-0.010555,-0.009543,0.004761
3401,-0.010555,-0.009543,0.004761
3402,0.012412,0.006231,0.019185
3403,0.058346,-0.009543,0.004761
3404,0.058346,0.006231,0.019185
3405,0.058346,0.006231,0.019185
3406,0.012412,-0.009543,-0.009662
3407,0.058346,-0.025317,-0.009662
3408,0.058346,-0.009543,0.019185
3409,-0.033523,0.006231,0.004761
3410,0.058346,-0.025317,0.019185
3411,-0.010555,-0.025317,0.004761
3412,-0.033523,-0.009543,-0.009662
3413,-0.010555,-0.009543,-0.009662
3414,0.012412,-0.009543,-0.009662
3415,-0.010555,-0.025317,-0.024086
3416,-0.033523,-0.009543,-0.024086
3417,-0.033523,-0.025317,-0.024086
3418,-0.05649,-0.025317,-0.009662
3419,-0.033523,-0.009543,-0.009662
3420,-0.079457,0.006231,-0.024086
3421,-0.033523,-0.009543,0.004761
3422,0.058346,-0.009543,-0.024086
3423,0.012412,-0.025317,-0.024086
3424,0.10428,-0.009543,-0.024086
3425,0.058346,0.006231,0.004761
3426,-0.010555,0.006231,0.004761
3427,-0.05649,-0.009543,0.004761
3428,-0.033523,-0.009543,-0.009662
3429,0.012412,-0.009543,-0.009662
3430,0.012412,-0.009543,0.019185
3431,0.012412,-0.009543,0.004761
3432,0.035379,-0.009543,0.004761
3433,0.035379,0.006231,-0.009662
3434,-0.033523,-0.009543,-0.009662
3435,0.012412,-0.025317,-0.009662
3436,0.035379,-0.009543,0.004761
3437,-0.010555,-0.009543,-0.009662
3438,-0.010555,-0.009543,-0.009662
3439,0.012412,-0.009543,0.004761
3440,-0.05649,-0.009543,0.004761
3441,0.012412,-0.009543,-0.009662
3442,0.035379,0.006231,-0.024086
3443,-0.010555,-0.009543,-0.009662
3444,0.035379,-0.025317,-0.009662
3445,-0.010555,-0.009543,0.019185
3446,0.012412,0.006231,-0.009662
3447,-0.033523,-0.009543,0.004761
3448,0.012412,-0.025317,-0.009662
3449,-0.033523,-0.009543,0.004761
3450,-0.05649,-0.025317,-0.009662
3451,0.012412,-0.009543,0.004761
3452,0.012412,-0.009543,-0.009662
3453,0.012412,-0.009543,-0.009662
3454,-0.010555,-0.009543,-0.009662
3455,0.012412,-0.009543,-0.009662
3456,0.012412,-0.009543,0.004761
3457,0.035379,-0.025317,0.004761
3458,0.012412,0.006231,-0.009662
3459,0.035379,-0.009543,0.019185
3460,0.058346,-0.009543,0.004761
3461,0.012412,0.006231,0.004761
3462,0.035379,0.006231,0.004761
3463,-0.010555,0.022005,-0.009662
3464,0.035379,0.006231,0.004761
3465,-0.010555,-0.009543,-0.009662
3466,-0.033523,-0.025317,0.004761
3467,-0.010555,-0.056865,0.019185
3468,-0.010555,-0.041091,0.004761
3469,0.127248,-0.009543,0.004761
3470,-0.033523,-0.009543,0.019185
3471,-0.010555,-0.025317,0.019185
3472,-0.010555,-0.025317,0.004761
3473,-0.033523,0.006231,-0.009662
3474,0.012412,-0.025317,0.004761
3475,-0.010555,0.006231,-0.009662
3476,-0.010555,-0.009543,-0.024086
3477,-0.010555,-0.025317,-0.024086
3478,-0.010555,-0.009543,-0.024086
3479,-0.033523,-0.009543,-0.024086
3480,0.012412,-0.025317,-0.024086
3481,-0.010555,-0.025317,-0.009662
3482,0.012412,-0.025317,-0.009662
3483,0.012412,0.006231,-0.009662
3484,0.012412,-0.025317,-0.009662
3485,0.012412,-0.009543,-0.009662
3486,0.081313,-0.009543,-0.009662
3487,0.035379,-0.025317,-0.009662
3488,-0.033523,-0.025317,-0.009662
3489,-0.010555,-0.009543,-0.024086
3490,0.012412,-0.009543,-0.024086
3491,-0.033523,0.022005,-0.03851
3492,-0.033523,-0.025317,0.004761
3493,-0.033523,-0.041091,-0.009662
3494,0.012412,-0.025317,-0.024086
3495,-0.010555,0.006231,-0.009662
3496,0.012412,0.006231,-0.009662
3497,-0.033523,-0.025317,-0.009662
3498,-0.010555,0.006231,0.004761
3499,-0.033523,-0.009543,0.004761
3500,-0.033523,0.006231,0.004761
3501,-0.010555,-0.025317,0.004761
3502,-0.010555,-0.009543,-0.009662
3503,-0.010555,-0.009543,0.033609
3504,-0.033523,-0.009543,0.004761
3505,-0.010555,-0.009543,0.004761
3506,0.012412,-0.009543,-0.024086
3507,0.012412,-0.025317,0.004761
3508,0.035379,-0.041091,-0.009662
3509,0.058346,-0.009543,-0.009662
3510,0.058346,-0.009543,-0.009662
3511,0.012412,-0.009543,-0.009662
3512,-0.010555,0.069328,-0.024086
3513,0.012412,-0.009543,0.004761
3514,0.012412,-0.025317,0.019185
3515,-0.010555,-0.009543,-0.024086
3516,0.081313,-0.025317,0.004761
3517,0.035379,-0.025317,-0.009662
3518,-0.033523,-0.025317,0.004761
3519,-0.05649,0.006231,-0.009662
3520,-0.010555,-0.009543,-0.009662
3521,-0.010555,-0.009543,-0.009662
3522,-0.010555,-0.025317,-0.009662
3523,-0.033523,-0.009543,0.004761
3524,0.035379,-0.009543,-0.009662
3525,-0.033523,0.006231,-0.024086
3526,-0.033523,-0.025317,-0.009662
3527,0.058346,-0.009543,0.004761
3528,-0.010555,-0.009543,-0.009662
3529,-0.010555,-0.009543,0.004761
3530,-0.05649,-0.009543,-0.009662
3531,0.012412,-0.009543,0.004761
3532,0.058346,-0.041091,-0.009662
3533,0.058346,0.006231,-0.009662
3534,0.012412,-0.025317,0.004761
3535,0.058346,-0.025317,0.019185
3536,0.035379,-0.041091,-0.009662
3537,0.035379,-0.009543,-0.009662
3538,0.035379,-0.025317,0.004761
3539,0.058346,-0.025317,0.004761
3540,0.012412,-0.009543,0.004761
3541,0.012412,0.022005,-0.009662
3542,0.035379,0.006231,-0.024086
3543,0.058346,0.069328,-0.009662
3544,0.012412,0.006231,0.004761
3545,-0.033523,-0.025317,-0.009662
3546,-0.010555,-0.041091,0.004761
3547,-0.033523,-0.041091,0.004761
3548,-0.010555,-0.041091,0.019185
3549,0.035379,-0.009543,-0.009662
3550,-0.010555,-0.025317,0.004761
3551,0.012412,-0.025317,-0.009662
3552,-0.033523,-0.009543,-0.009662
3553,-0.05649,-0.009543,-0.009662
3554,0.035379,-0.009543,-0.009662
3555,0.012412,-0.009543,-0.009662
3556,0.012412,-0.025317,-0.009662
3557,0.012412,0.006231,-0.009662
3558,-0.010555,-0.009543,-0.009662
3559,0.035379,0.006231,-0.024086
3560,-0.05649,-0.025317,0.004761
3561,-0.010555,-0.041091,-0.024086
3562,0.012412,0.006231,0.004761
3563,0.058346,-0.009543,0.004761
3564,0.035379,0.006231,0.004761
3565,0.035379,-0.025317,0.004761
3566,0.058346,-0.025317,0.004761
3567,0.035379,-0.025317,0.004761
3568,0.012412,-0.025317,-0.009662
3569,-0.033523,-0.025317,-0.009662
3570,0.058346,-0.009543,0.004761
3571,0.035379,-0.025317,-0.03851
3572,0.035379,-0.025317,-0.024086
3573,0.012412,-0.041091,-0.009662
3574,-0.033523,-0.009543,0.019185
3575,-0.033523,-0.009543,0.019185
3576,-0.102424,-0.009543,0.004761
3577,-0.079457,-0.009543,0.004761
3578,-0.010555,0.006231,0.019185
3579,0.035379,-0.009543,0.004761
3580,-0.010555,-0.009543,-0.009662
3581,-0.010555,-0.025317,-0.009662
3582,-0.010555,0.006231,0.004761
3583,-0.033523,-0.009543,-0.009662
3584,-0.033523,-0.025317,-0.009662
3585,0.035379,-0.009543,-0.009662
3586,0.035379,0.006231,-0.024086
3587,-0.010555,-0.025317,-0.024086
3588,0.035379,-0.009543,-0.024086
3589,0.012412,-0.009543,-0.009662
3590,0.035379,-0.009543,-0.009662
