# Requested Sampling Rate (Hz):,1000
# Actual Sampling Rate (Hz):,999.268
# Requested Duration (s):,5.0
# Actual Duration (s):,5.047
# REST Calibration:,831.4595862068991,832.6049655172403,833.6698965517227
# MAX Calibration:,875.0000,896.0000,903.0000
# Normalization: MVC-based  (x_norm = (x - REST) / (MAX - REST))
sample_idx,EMG1,EMG2,EMG3
0,0.012412,-0.025317,0.004761
1,-0.010555,-0.009543,-0.024086
2,-0.010555,-0.009543,-0.009662
3,0.035379,0.006231,0.004761
4,0.035379,-0.009543,-0.009662
5,-0.033523,-0.041091,-0.009662
6,0.10428,-0.025317,-0.009662
7,-0.033523,0.006231,-0.009662
8,0.035379,-0.009543,0.004761
9,-0.033523,-0.025317,0.004761
10,-0.010555,-0.025317,0.019185
11,0.035379,-0.009543,-0.009662
12,0.035379,-0.009543,-0.009662
13,0.058346,-0.009543,0.004761
14,0.012412,0.006231,0.019185
15,-0.05649,0.006231,0.004761
16,0.058346,-0.009543,0.004761
17,-0.033523,-0.009543,0.004761
18,0.012412,-0.009543,0.004761
19,-0.033523,-0.025317,-0.009662
20,0.012412,0.006231,0.004761
21,-0.010555,-0.009543,0.004761
22,-0.033523,-0.009543,-0.009662
23,-0.05649,-0.009543,-0.009662
24,-0.05649,-0.009543,-0.024086
25,-0.010555,-0.009543,-0.024086
26,-0.010555,-0.025317,-0.009662
27,0.012412,-0.025317,-0.024086
28,0.081313,-0.025317,-0.009662
29,-0.010555,-0.025317,-0.024086
30,-0.033523,-0.009543,0.004761
31,0.012412,-0.009543,0.004761
32,-0.010555,-0.009543,0.004761
33,-0.033523,0.006231,-0.009662
34,-0.05649,-0.009543,0.004761
35,-0.033523,-0.025317,0.004761
36,0.10428,-0.009543,-0.024086
37,0.035379,-0.041091,-0.009662
38,-0.010555,-0.009543,0.004761
39,0.035379,0.006231,0.004761
40,0.035379,-0.009543,-0.024086
41,-0.010555,-0.025317,0.019185
42,0.035379,-0.009543,0.004761
43,0.035379,-0.009543,0.019185
44,0.058346,-0.009543,0.019185
45,-0.010555,0.006231,0.004761
46,-0.033523,0.006231,0.004761
47,0.012412,-0.009543,0.004761
48,0.012412,-0.025317,0.004761
49,-0.033523,-0.009543,-0.009662
50,-0.05649,0.006231,-0.024086
51,0.035379,-0.009543,0.004761
52,-0.010555,-0.009543,0.004761
53,-0.05649,-0.025317,0.004761
54,-0.05649,-0.025317,-0.009662
55,0.012412,-0.025317,-0.009662
56,0.035379,0.006231,0.004761
57,0.012412,0.006231,0.004761
58,0.035379,0.006231,0.019185
59,0.012412,-0.009543,0.048033
60,-0.05649,-0.009543,0.019185
61,-0.033523,-0.041091,-0.009662
62,0.035379,-0.025317,-0.024086
63,-0.010555,-0.025317,-0.009662
64,0.035379,0.006231,-0.009662
65,0.012412,-0.025317,-0.009662
66,0.012412,-0.009543,0.004761
67,0.012412,-0.009543,-0.009662
68,0.035379,-0.025317,0.004761
69,-0.010555,-0.009543,0.004761
70,0.012412,-0.025317,-0.024086
71,0.058346,-0.025317,-0.024086
72,0.081313,-0.009543,-0.024086
73,0.035379,0.006231,-0.009662
74,0.035379,0.006231,-0.024086
75,0.058346,-0.025317,-0.03851
76,-0.010555,-0.009543,-0.024086
77,-0.010555,-0.009543,-0.024086
78,0.058346,0.006231,0.004761
79,0.012412,-0.025317,-0.024086
80,-0.010555,0.006231,0.004761
81,-0.033523,-0.009543,0.033609
82,0.012412,-0.025317,0.004761
83,-0.033523,-0.009543,-0.009662
84,-0.033523,-0.025317,-0.009662
85,-0.010555,-0.009543,-0.024086
86,0.012412,-0.025317,-0.009662
87,-0.010555,-0.009543,0.004761
88,-0.033523,-0.009543,0.004761
89,-0.010555,0.006231,0.019185
90,0.035379,-0.009543,0.004761
91,0.012412,0.006231,0.019185
92,-0.033523,-0.009543,0.004761
93,0.012412,-0.009543,0.004761
94,0.035379,-0.009543,0.004761
95,0.058346,-0.025317,0.004761
96,0.035379,-0.009543,0.004761
97,0.035379,-0.009543,0.004761
98,0.035379,-0.009543,0.019185
99,0.081313,0.006231,0.004761
100,0.035379,0.006231,0.019185
101,0.012412,-0.009543,-0.024086
102,0.035379,-0.009543,0.004761
103,-0.010555,-0.025317,-0.009662
104,0.012412,-0.025317,-0.009662
105,0.035379,-0.025317,-0.024086
106,-0.033523,-0.009543,0.004761
107,-0.010555,-0.009543,0.004761
108,-0.010555,-0.009543,0.048033
109,0.035379,-0.025317,-0.009662
110,-0.010555,-0.025317,-0.03851
111,-0.010555,-0.009543,-0.024086
112,-0.05649,-0.009543,-0.024086
113,0.012412,-0.025317,-0.03851
114,0.012412,-0.009543,-0.009662
115,-0.010555,-0.025317,0.004761
116,-0.079457,-0.009543,-0.009662
117,0.012412,-0.009543,0.004761
118,0.035379,-0.025317,0.004761
119,-0.033523,-0.025317,0.004761
120,0.012412,-0.009543,0.004761
121,-0.010555,0.006231,-0.009662
122,-0.033523,-0.009543,-0.009662
123,0.012412,-0.009543,-0.009662
124,0.012412,-0.009543,-0.009662
125,0.012412,-0.025317,0.004761
126,0.058346,-0.009543,0.004761
127,0.058346,0.006231,0.004761
128,0.012412,-0.009543,0.004761
129,0.012412,0.006231,0.004761
130,0.035379,0.022005,0.004761
131,0.058346,0.006231,0.004761
132,0.035379,0.006231,0.019185
133,0.035379,0.022005,0.019185
134,-0.033523,-0.009543,0.019185
135,-0.010555,0.006231,0.004761
136,0.058346,0.006231,0.019185
137,0.081313,-0.025317,0.004761
138,-0.033523,-0.009543,0.004761
139,-0.033523,-0.009543,0.004761
140,-0.010555,-0.009543,0.004761
141,0.012412,0.006231,0.019185
142,0.012412,0.006231,0.019185
143,-0.033523,0.006231,0.019185
144,-0.033523,-0.025317,-0.009662
145,-0.010555,-0.025317,-0.009662
146,-0.010555,-0.025317,-0.024086
147,0.035379,-0.009543,-0.024086
148,0.035379,-0.009543,-0.03851
149,-0.05649,-0.009543,-0.024086
150,-0.010555,-0.025317,-0.009662
151,-0.010555,-0.009543,-0.009662
152,-0.033523,-0.025317,-0.024086
153,-0.033523,-0.009543,-0.024086
154,0.012412,-0.009543,-0.009662
155,-0.010555,-0.025317,-0.024086
156,0.035379,-0.041091,-0.024086
157,-0.010555,-0.025317,-0.024086
158,0.035379,-0.009543,-0.009662
159,0.035379,-0.025317,-0.024086
160,0.058346,-0.025317,0.004761
161,0.012412,-0.009543,-0.009662
162,0.035379,-0.009543,0.004761
163,0.035379,0.006231,0.004761
164,0.058346,-0.009543,0.004761
165,-0.010555,0.022005,0.033609
166,0.058346,0.006231,0.033609
167,0.012412,-0.009543,0.033609
168,0.012412,0.006231,0.033609
169,0.012412,0.006231,0.033609
170,-0.010555,0.006231,0.019185
171,0.058346,0.006231,0.019185
172,-0.033523,0.006231,0.033609
173,-0.033523,0.006231,0.019185
174,-0.033523,-0.009543,0.019185
175,0.058346,0.006231,-0.009662
176,-0.010555,-0.025317,-0.03851
177,-0.010555,-0.025317,-0.052934
178,-0.033523,-0.041091,-0.052934
179,0.012412,-0.041091,-0.052934
180,-0.033523,-0.025317,-0.03851
181,-0.010555,-0.009543,-0.024086
182,0.012412,-0.025317,-0.009662
183,0.035379,-0.009543,-0.009662
184,-0.033523,-0.025317,-0.009662
185,-0.010555,-0.025317,-0.03851
186,0.035379,-0.025317,-0.03851
187,0.012412,-0.041091,-0.009662
188,-0.010555,-0.025317,-0.009662
189,-0.010555,-0.009543,-0.009662
190,0.035379,0.006231,-0.024086
191,0.035379,-0.009543,-0.009662
192,-0.010555,-0.009543,0.004761
193,0.012412,0.006231,0.019185
194,0.035379,-0.009543,0.004761
195,-0.010555,-0.009543,-0.009662
196,-0.033523,-0.009543,0.004761
197,0.058346,0.006231,0.004761
198,0.012412,-0.025317,0.004761
199,-0.010555,-0.009543,0.019185
200,-0.010555,-0.009543,0.019185
201,-0.010555,-0.009543,0.048033
202,0.058346,-0.009543,0.033609
203,0.012412,0.006231,0.048033
204,-0.033523,-0.025317,0.019185
205,-0.05649,-0.009543,0.004761
206,-0.010555,-0.025317,-0.024086
207,-0.033523,-0.025317,-0.024086
208,-0.033523,-0.025317,-0.03851
209,-0.010555,-0.025317,-0.03851
210,0.012412,-0.025317,-0.03851
211,-0.033523,0.006231,-0.009662
212,0.012412,-0.009543,0.004761
213,0.012412,0.006231,0.004761
214,0.081313,-0.009543,0.004761
215,0.012412,0.006231,0.004761
216,0.012412,0.006231,0.033609
217,-0.010555,-0.009543,0.033609
218,0.012412,-0.009543,0.033609
219,-0.05649,-0.025317,0.033609
220,0.012412,-0.009543,0.019185
221,0.012412,-0.009543,0.004761
222,0.058346,-0.009543,0.019185
223,0.012412,0.006231,0.033609
224,0.035379,-0.009543,0.004761
225,-0.05649,-0.009543,0.019185
226,-0.010555,-0.025317,-0.009662
227,-0.033523,-0.025317,-0.009662
228,0.012412,-0.009543,-0.024086
229,0.012412,-0.009543,-0.009662
230,-0.05649,-0.025317,-0.024086
231,-0.010555,-0.072639,-0.009662
232,0.012412,-0.025317,0.004761
233,0.012412,0.006231,0.019185
234,0.012412,-0.009543,0.019185
235,0.035379,-0.025317,0.033609
236,0.058346,0.006231,-0.009662
237,-0.033523,0.006231,0.004761
238,-0.033523,-0.009543,0.019185
239,-0.033523,-0.009543,0.004761
240,0.058346,-0.025317,-0.024086
241,0.012412,-0.041091,-0.03851
242,0.035379,-0.025317,0.004761
243,-0.010555,-0.009543,-0.009662
244,0.012412,-0.025317,-0.024086
245,-0.010555,0.006231,-0.03851
246,-0.010555,-0.041091,-0.03851
247,0.012412,-0.025317,-0.03851
248,0.058346,-0.041091,-0.009662
249,-0.010555,-0.025317,0.004761
250,0.012412,-0.025317,-0.009662
251,0.035379,0.006231,0.004761
252,-0.033523,-0.009543,-0.024086
253,0.012412,-0.025317,-0.009662
254,-0.010555,-0.025317,-0.024086
255,0.012412,-0.025317,-0.024086
256,0.012412,-0.025317,-0.024086
257,0.012412,-0.025317,-0.009662
258,-0.05649,-0.025317,-0.024086
259,0.012412,-0.025317,-0.009662
260,0.012412,-0.009543,-0.009662
261,-0.010555,-0.025317,-0.009662
262,0.012412,-0.009543,0.004761
263,0.081313,0.006231,0.004761
264,-0.010555,0.006231,0.019185
265,-0.05649,-0.009543,0.033609
266,0.035379,-0.009543,0.033609
267,0.081313,-0.025317,0.004761
268,0.012412,0.006231,0.004761
269,0.012412,0.022005,0.004761
270,0.012412,-0.009543,0.019185
271,0.012412,0.006231,0.019185
272,0.035379,-0.009543,0.033609
273,0.012412,0.006231,0.033609
274,-0.010555,-0.009543,0.019185
275,0.058346,-0.009543,0.019185
276,0.035379,0.006231,0.019185
277,0.081313,-0.025317,-0.024086
278,0.035379,-0.025317,-0.009662
279,0.035379,-0.009543,-0.024086
280,0.058346,-0.009543,-0.024086
281,-0.010555,-0.009543,-0.009662
282,0.012412,0.006231,0.048033
283,0.012412,0.006231,0.033609
284,-0.05649,-0.009543,0.033609
285,0.035379,-0.009543,0.019185
286,0.058346,-0.009543,-0.009662
287,0.012412,-0.009543,-0.024086
288,0.012412,-0.009543,-0.03851
289,-0.05649,-0.009543,-0.052934
290,-0.033523,-0.056865,-0.052934
291,-0.033523,-0.041091,-0.03851
292,-0.05649,-0.025317,-0.067357
293,-0.033523,-0.025317,-0.024086
294,0.012412,-0.009543,0.019185
295,-0.033523,0.022005,0.048033
296,0.012412,0.006231,0.033609
297,-0.033523,0.006231,0.004761
298,-0.010555,-0.041091,0.004761
299,-0.010555,-0.025317,-0.024086
300,0.012412,-0.009543,0.019185
301,0.035379,-0.009543,0.019185
302,0.035379,0.006231,0.048033
303,0.058346,0.022005,0.062456
304,0.012412,0.022005,0.048033
305,0.058346,0.069328,0.062456
306,0.035379,-0.009543,0.033609
307,-0.033523,-0.025317,0.004761
308,-0.010555,-0.025317,0.004761
309,0.035379,-0.009543,-0.009662
310,0.035379,-0.009543,-0.009662
311,-0.033523,-0.025317,-0.052934
312,-0.05649,-0.041091,-0.03851
313,-0.010555,-0.009543,-0.03851
314,-0.010555,-0.025317,-0.024086
315,-0.010555,-0.025317,-0.009662
316,0.058346,-0.041091,-0.009662
317,0.035379,-0.009543,-0.024086
318,-0.010555,-0.025317,-0.03851
319,-0.079457,-0.041091,-0.052934
320,-0.079457,-0.041091,-0.067357
321,0.012412,-0.025317,-0.024086
322,-0.010555,0.006231,0.033609
323,0.012412,0.006231,0.07688
324,-0.010555,0.006231,0.105728
325,0.012412,0.022005,0.105728
326,0.058346,0.03778,0.07688
327,-0.010555,-0.009543,0.033609
328,0.035379,0.006231,0.033609
329,0.035379,-0.009543,0.048033
330,-0.05649,-0.009543,0.004761
331,-0.125391,-0.041091,-0.067357
332,-0.079457,-0.041091,-0.096205
333,0.012412,-0.041091,-0.081781
334,0.035379,-0.041091,-0.03851
335,-0.033523,-0.009543,0.004761
336,0.035379,0.006231,0.07688
337,0.081313,0.006231,0.105728
338,0.058346,0.022005,0.091304
339,0.012412,0.006231,0.019185
340,-0.010555,-0.041091,-0.081781
341,-0.033523,-0.056865,-0.125052
342,0.012412,-0.056865,-0.139476
343,-0.033523,-0.056865,-0.139476
344,0.012412,-0.056865,-0.110629
345,0.035379,-0.041091,-0.009662
346,0.012412,0.03778,0.062456
347,0.012412,0.006231,0.105728
348,0.081313,0.03778,0.148999
349,0.058346,0.03778,0.134575
350,0.035379,0.022005,0.105728
351,0.058346,0.022005,0.07688
352,0.058346,0.006231,0.033609
353,-0.010555,-0.041091,0.019185
354,0.035379,0.006231,0.048033
355,-0.033523,0.022005,0.07688
356,0.012412,0.006231,0.048033
357,-0.033523,-0.009543,0.033609
358,-0.05649,-0.009543,0.048033
359,0.035379,-0.009543,0.033609
360,0.081313,-0.009543,-0.024086
361,-0.05649,-0.072639,-0.125052
362,-0.125391,-0.056865,-0.110629
363,-0.05649,-0.041091,-0.096205
364,0.012412,-0.041091,-0.081781
365,0.035379,-0.041091,-0.024086
366,-0.033523,-0.009543,0.019185
367,0.035379,0.03778,0.062456
368,0.10428,0.053554,0.120151
369,0.081313,0.053554,0.148999
370,0.081313,0.022005,0.07688
371,0.10428,0.03778,0.148999
372,0.150215,0.069328,0.19227
373,0.012412,0.053554,0.148999
374,0.035379,0.006231,-0.03851
375,-0.010555,-0.056865,-0.226019
376,-0.125391,-0.135736,-0.326985
377,-0.102424,-0.135736,-0.283714
378,-0.010555,-0.072639,-0.182747
379,-0.010555,-0.056865,-0.168324
380,-0.033523,-0.009543,-0.096205
381,0.058346,0.006231,0.004761
382,0.081313,0.022005,0.07688
383,0.10428,0.03778,0.07688
384,0.035379,-0.009543,0.120151
385,0.012412,0.006231,0.120151
386,-0.079457,-0.041091,0.091304
387,-0.010555,0.006231,0.134575
388,0.058346,0.069328,0.235541
389,0.10428,0.053554,0.148999
390,0.012412,0.006231,0.004761
391,-0.079457,-0.056865,-0.139476
392,-0.079457,-0.088413,-0.125052
393,-0.05649,-0.056865,-0.052934
394,0.012412,-0.009543,-0.009662
395,0.081313,-0.009543,0.033609
396,0.081313,-0.025317,-0.024086
397,-0.033523,-0.009543,-0.081781
398,-0.033523,-0.072639,-0.125052
399,-0.05649,-0.088413,-0.125052
400,-0.010555,-0.056865,-0.110629
401,-0.079457,-0.056865,-0.067357
402,0.035379,-0.025317,-0.081781
403,0.081313,-0.009543,-0.081781
404,0.058346,-0.009543,-0.052934
405,0.058346,-0.009543,-0.03851
406,-0.033523,-0.025317,-0.03851
407,-0.079457,-0.041091,-0.009662
408,-0.010555,-0.025317,-0.009662
409,0.012412,-0.009543,0.062456
410,0.173182,0.053554,0.177846
411,0.10428,0.085102,0.221118
412,0.10428,0.03778,0.206694
413,0.058346,0.053554,0.163423
414,0.012412,-0.009543,0.033609
415,-0.079457,-0.056865,-0.110629
416,-0.079457,-0.056865,-0.067357
417,-0.079457,-0.009543,0.019185
418,-0.033523,-0.009543,0.019185
419,-0.010555,-0.009543,-0.009662
420,-0.05649,-0.009543,0.019185
421,0.012412,-0.041091,0.019185
422,0.058346,-0.025317,-0.009662
423,0.035379,-0.009543,-0.067357
424,-0.079457,-0.088413,-0.125052
425,0.012412,-0.056865,-0.081781
426,0.035379,-0.072639,-0.096205
427,-0.010555,-0.025317,-0.052934
428,0.012412,-0.009543,0.091304
429,0.035379,0.006231,0.07688
430,0.035379,0.006231,0.07688
431,0.10428,0.006231,0.004761
432,0.035379,-0.056865,-0.096205
433,0.012412,-0.041091,-0.081781
434,-0.010555,-0.009543,0.019185
435,0.058346,-0.009543,0.07688
436,0.012412,-0.025317,0.019185
437,-0.010555,-0.041091,-0.067357
438,0.058346,-0.056865,-0.081781
439,0.012412,-0.025317,-0.067357
440,-0.033523,-0.041091,-0.096205
441,0.035379,-0.025317,-0.024086
442,0.012412,-0.025317,0.004761
443,-0.033523,-0.009543,0.048033
444,-0.05649,0.006231,0.105728
445,0.081313,0.053554,0.148999
446,0.10428,0.069328,0.163423
447,0.058346,0.069328,0.19227
448,0.035379,0.069328,0.163423
449,0.035379,0.006231,0.019185
450,-0.079457,-0.088413,-0.168324
451,-0.079457,-0.072639,-0.182747
452,-0.033523,-0.088413,-0.1539
453,-0.010555,-0.041091,-0.081781
454,-0.010555,0.006231,0.120151
455,0.012412,0.006231,0.062456
456,0.035379,-0.041091,0.004761
457,-0.033523,-0.041091,0.048033
458,-0.033523,-0.025317,-0.03851
459,-0.05649,-0.041091,-0.125052
460,0.012412,-0.025317,-0.067357
461,0.081313,0.006231,-0.009662
462,0.035379,-0.009543,-0.052934
463,-0.010555,0.006231,0.019185
464,-0.010555,0.022005,0.048033
465,0.035379,0.022005,-0.024086
466,0.081313,0.03778,0.048033
467,0.173182,0.069328,0.19227
468,0.219116,0.100876,0.249965
469,-0.010555,-0.041091,-0.024086
470,-0.171326,-0.167284,-0.211595
471,-0.05649,-0.119962,-0.283714
472,0.081313,-0.041091,-0.168324
473,0.012412,-0.041091,-0.009662
474,-0.010555,-0.041091,0.19227
475,-0.148358,-0.088413,0.033609
476,-0.125391,-0.104187,-0.125052
477,-0.033523,-0.056865,-0.139476
478,0.012412,-0.041091,-0.052934
479,0.081313,0.053554,0.148999
480,0.058346,0.053554,0.163423
481,-0.033523,0.022005,0.134575
482,0.058346,0.03778,0.177846
483,0.058346,0.053554,0.221118
484,0.081313,0.053554,0.134575
485,0.035379,0.006231,-0.067357
486,-0.05649,-0.072639,-0.1539
487,-0.079457,-0.072639,-0.139476
488,-0.05649,-0.056865,-0.096205
489,-0.010555,-0.041091,-0.081781
490,0.012412,0.006231,0.048033
491,-0.010555,-0.009543,0.134575
492,0.058346,0.03778,0.148999
493,-0.033523,-0.009543,0.062456
494,-0.148358,-0.041091,-0.009662
495,0.058346,0.03778,0.019185
496,0.150215,0.085102,0.148999
497,0.081313,0.053554,0.148999
498,-0.05649,-0.025317,-0.024086
499,-0.125391,-0.135736,-0.182747
500,-0.125391,-0.15151,-0.283714
501,-0.079457,-0.056865,-0.226019
502,0.035379,0.022005,-0.081781
503,0.035379,-0.009543,0.019185
504,0.035379,-0.025317,0.019185
505,0.012412,-0.009543,-0.067357
506,0.035379,0.022005,-0.024086
507,0.196149,0.069328,0.177846
508,0.150215,0.069328,0.206694
509,0.081313,0.053554,0.091304
510,-0.05649,0.006231,0.120151
511,-0.05649,-0.009543,0.048033
512,-0.033523,-0.056865,-0.067357
513,-0.125391,-0.135736,-0.139476
514,-0.079457,-0.104187,-0.110629
515,-0.010555,-0.041091,-0.168324
516,-0.010555,-0.056865,-0.168324
517,-0.033523,0.022005,-0.024086
518,0.012412,0.022005,0.091304
519,0.035379,0.03778,0.048033
520,0.012412,-0.009543,-0.024086
521,0.035379,0.006231,0.033609
522,-0.05649,0.006231,0.033609
523,-0.079457,0.006231,0.004761
524,0.012412,-0.041091,-0.067357
525,-0.033523,-0.025317,-0.096205
526,0.035379,-0.025317,-0.110629
527,-0.010555,-0.041091,-0.096205
528,0.012412,-0.056865,-0.125052
529,0.012412,-0.072639,-0.110629
530,-0.010555,-0.025317,-0.139476
531,0.081313,0.03778,-0.110629
532,0.10428,0.085102,0.019185
533,0.012412,0.069328,0.221118
534,0.012412,0.053554,0.134575
535,0.058346,0.053554,0.264389
536,0.081313,0.069328,0.30766
537,0.081313,0.085102,0.177846
538,0.10428,0.006231,0.019185
539,-0.010555,-0.041091,-0.009662
540,-0.010555,-0.041091,0.019185
541,0.081313,-0.025317,0.033609
542,-0.148358,-0.119962,-0.1539
543,-0.125391,-0.167284,-0.283714
544,-0.079457,-0.104187,-0.197171
545,-0.079457,-0.025317,-0.139476
546,0.058346,0.03778,0.105728
547,0.127248,0.132424,0.264389
548,0.081313,0.132424,0.278813
549,0.081313,0.069328,0.134575
550,0.012412,-0.041091,0.048033
551,-0.033523,-0.088413,-0.081781
552,-0.033523,-0.088413,-0.182747
553,-0.102424,-0.104187,-0.211595
554,-0.05649,-0.072639,-0.182747
555,0.035379,-0.056865,-0.024086
556,-0.033523,-0.041091,0.091304
557,0.081313,0.006231,0.120151
558,0.081313,0.022005,0.091304
559,0.081313,-0.009543,0.019185
560,0.035379,-0.025317,-0.009662
561,-0.033523,-0.041091,-0.110629
562,-0.033523,-0.088413,-0.139476
563,-0.033523,-0.072639,-0.067357
564,-0.010555,-0.041091,0.004761
565,0.058346,0.022005,0.120151
566,0.10428,0.03778,0.19227
567,0.10428,0.069328,0.163423
568,0.058346,0.006231,0.062456
569,-0.033523,-0.025317,0.004761
570,0.081313,0.053554,0.062456
571,0.150215,0.11665,0.033609
572,0.035379,0.069328,0.033609
573,-0.102424,-0.072639,-0.081781
574,-0.148358,-0.135736,-0.283714
575,-0.102424,-0.104187,-0.312561
576,-0.05649,-0.104187,-0.197171
577,-0.033523,-0.072639,0.004761
578,-0.033523,-0.041091,0.091304
579,-0.033523,-0.072639,0.019185
580,-0.079457,-0.041091,0.004761
581,0.058346,-0.009543,0.062456
582,0.035379,0.022005,0.091304
583,0.012412,0.03778,0.07688
584,0.035379,0.069328,0.120151
585,0.127248,0.11665,0.19227
586,0.150215,0.100876,0.235541
587,0.10428,0.100876,0.278813
588,0.058346,-0.009543,0.07688
589,-0.125391,-0.088413,-0.125052
590,-0.102424,-0.119962,-0.26929
591,-0.05649,-0.119962,-0.326985
592,-0.05649,-0.104187,-0.211595
593,-0.05649,-0.104187,-0.197171
594,-0.05649,-0.104187,-0.1539
595,0.058346,-0.009543,-0.081781
596,0.058346,-0.009543,-0.067357
597,-0.010555,-0.009543,-0.024086
598,-0.010555,0.006231,0.120151
599,0.127248,0.053554,0.163423
600,0.219116,0.163972,0.264389
601,0.10428,0.11665,0.177846
602,0.10428,0.053554,0.148999
603,0.012412,0.006231,0.048033
604,0.081313,0.03778,0.19227
605,0.219116,0.100876,0.249965
606,0.058346,0.006231,0.033609
607,-0.079457,-0.041091,-0.081781
608,-0.033523,-0.056865,-0.110629
609,-0.171326,-0.183058,-0.283714
610,-0.21726,-0.214606,-0.427951
611,-0.102424,-0.135736,-0.254866
612,-0.033523,-0.025317,-0.110629
613,0.081313,0.053554,-0.03851
614,0.081313,0.069328,0.048033
615,-0.033523,0.03778,0.033609
616,-0.125391,-0.009543,0.033609
617,-0.05649,0.006231,0.264389
618,-0.05649,-0.041091,0.048033
619,-0.033523,-0.025317,-0.182747
620,0.127248,0.006231,-0.1539
621,0.196149,0.069328,0.163423
622,0.265051,0.100876,0.293236
623,0.058346,-0.009543,0.07688
624,-0.079457,-0.135736,-0.1539
625,-0.125391,-0.135736,-0.168324
626,-0.033523,-0.072639,-0.096205
627,0.058346,0.006231,0.048033
628,0.081313,-0.009543,0.062456
629,0.035379,-0.025317,-0.081781
630,-0.05649,-0.056865,-0.168324
631,0.035379,0.006231,-0.009662
632,0.10428,0.03778,-0.024086
633,0.058346,-0.009543,0.019185
634,-0.05649,-0.025317,0.120151
635,-0.010555,0.03778,0.163423
636,0.150215,0.085102,0.105728
637,0.173182,0.11665,0.091304
638,0.081313,0.022005,0.004761
639,-0.079457,-0.056865,0.134575
640,-0.102424,-0.135736,-0.110629
641,-0.102424,-0.119962,-0.182747
642,-0.010555,-0.041091,-0.081781
643,0.058346,-0.009543,0.004761
644,0.035379,0.006231,-0.009662
645,0.012412,0.022005,0.048033
646,-0.033523,-0.041091,0.048033
647,-0.079457,-0.041091,0.062456
648,-0.079457,-0.041091,-0.009662
649,-0.010555,-0.041091,-0.182747
650,-0.033523,-0.025317,-0.110629
651,0.10428,0.022005,0.07688
652,-0.033523,-0.009543,0.120151
653,-0.033523,-0.072639,-0.052934
654,-0.033523,-0.025317,-0.052934
655,0.058346,0.022005,0.091304
656,0.058346,0.053554,0.177846
657,0.058346,0.022005,0.134575
658,0.035379,-0.056865,-0.052934
659,-0.05649,-0.104187,-0.211595
660,-0.102424,-0.135736,-0.26929
661,-0.079457,-0.056865,-0.182747
662,0.012412,0.022005,-0.052934
663,0.10428,0.03778,0.048033
664,0.127248,0.03778,0.07688
665,0.10428,-0.009543,0.048033
666,0.035379,-0.009543,0.033609
667,-0.033523,-0.009543,0.033609
668,0.012412,-0.009543,0.004761
669,0.035379,-0.025317,-0.024086
670,-0.102424,-0.088413,-0.139476
671,0.012412,-0.009543,0.019185
672,0.127248,0.11665,0.264389
673,0.242083,0.163972,0.365355
674,0.058346,0.03778,0.07688
675,-0.125391,-0.104187,-0.125052
676,-0.171326,-0.072639,-0.182747
677,-0.05649,-0.025317,-0.096205
678,0.012412,0.006231,0.048033
679,-0.079457,-0.119962,0.048033
680,-0.05649,-0.056865,-0.081781
681,-0.079457,-0.056865,-0.197171
682,-0.05649,-0.056865,-0.197171
683,-0.010555,-0.056865,-0.182747
684,0.10428,-0.025317,-0.096205
685,0.150215,0.03778,0.019185
686,0.035379,0.006231,0.019185
687,-0.05649,0.006231,0.105728
688,0.10428,0.03778,0.278813
689,0.10428,0.100876,0.365355
690,0.127248,0.03778,0.134575
691,0.081313,0.006231,0.019185
692,-0.102424,-0.056865,-0.081781
693,-0.079457,-0.072639,-0.067357
694,-0.079457,-0.072639,-0.081781
695,-0.033523,-0.072639,-0.1539
696,-0.033523,-0.072639,-0.226019
697,0.012412,-0.056865,-0.211595
698,-0.033523,-0.025317,-0.052934
699,-0.010555,0.03778,0.048033
700,0.150215,0.11665,0.221118
701,0.127248,0.085102,0.293236
702,0.196149,0.03778,0.206694
703,0.035379,-0.009543,0.148999
704,-0.079457,-0.119962,-0.096205
705,-0.079457,-0.056865,-0.1539
706,0.012412,-0.009543,-0.110629
707,-0.010555,-0.041091,-0.125052
708,-0.171326,-0.119962,-0.168324
709,-0.125391,-0.119962,-0.226019
710,-0.05649,-0.119962,-0.240442
711,0.012412,-0.009543,-0.03851
712,-0.010555,0.053554,0.105728
713,-0.033523,0.03778,0.134575
714,0.012412,0.006231,0.091304
715,-0.010555,-0.041091,-0.052934
716,-0.033523,-0.041091,-0.009662
717,0.012412,0.006231,0.134575
718,0.058346,0.03778,0.120151
719,0.058346,0.03778,0.048033
720,0.035379,0.022005,0.148999
721,0.081313,0.03778,0.07688
722,0.035379,-0.056865,-0.081781
723,0.173182,-0.072639,-0.182747
724,0.10428,-0.072639,-0.211595
725,-0.05649,-0.119962,-0.197171
726,-0.033523,-0.072639,-0.081781
727,-0.05649,0.022005,0.019185
728,0.035379,0.069328,0.148999
729,0.058346,0.085102,0.249965
730,0.058346,-0.009543,0.120151
731,-0.033523,-0.041091,-0.009662
732,-0.05649,-0.009543,-0.03851
733,0.081313,0.022005,-0.024086
734,0.081313,0.100876,0.120151
735,0.012412,0.006231,-0.009662
736,-0.148358,-0.119962,-0.139476
737,-0.194293,-0.104187,-0.139476
738,-0.010555,-0.041091,-0.067357
739,0.058346,-0.009543,-0.081781
740,0.058346,0.022005,0.004761
741,-0.010555,-0.056865,0.07688
742,-0.05649,-0.056865,0.19227
743,-0.171326,-0.088413,-0.024086
744,-0.05649,-0.025317,-0.067357
745,0.10428,0.03778,-0.024086
746,0.10428,0.022005,-0.03851
747,-0.010555,-0.009543,-0.139476
748,0.012412,-0.009543,-0.182747
749,0.012412,0.069328,-0.024086
750,0.058346,0.053554,0.19227
751,-0.079457,-0.009543,0.105728
752,-0.033523,-0.104187,-0.052934
753,-0.010555,-0.056865,-0.067357
754,0.127248,0.006231,0.048033
755,0.127248,0.053554,0.148999
756,0.127248,0.085102,0.206694
757,0.173182,0.069328,0.177846
758,0.012412,-0.072639,-0.081781
759,-0.079457,-0.088413,-0.240442
760,-0.05649,-0.072639,-0.197171
761,-0.010555,-0.072639,-0.110629
762,-0.010555,0.006231,0.07688
763,0.081313,0.069328,0.235541
764,0.196149,0.132424,0.278813
765,0.219116,0.11665,0.19227
766,-0.010555,-0.041091,-0.024086
767,-0.125391,-0.183058,-0.312561
768,-0.240227,-0.246154,-0.413527
769,-0.125391,-0.088413,-0.283714
770,-0.05649,0.022005,-0.067357
771,-0.010555,0.053554,0.048033
772,0.058346,0.022005,0.120151
773,0.035379,0.006231,0.033609
774,0.058346,0.006231,0.062456
775,0.035379,0.022005,0.048033
776,0.035379,0.022005,0.033609
777,-0.033523,-0.009543,0.091304
778,-0.033523,-0.009543,0.134575
779,-0.05649,-0.072639,-0.067357
780,-0.033523,-0.072639,-0.168324
781,-0.010555,-0.056865,-0.168324
782,-0.102424,-0.056865,-0.168324
783,-0.010555,-0.025317,-0.096205
784,0.035379,0.006231,-0.03851
785,0.035379,0.053554,0.105728
786,0.127248,0.069328,0.177846
787,0.10428,0.069328,0.062456
788,0.012412,0.022005,0.134575
789,0.012412,0.006231,0.249965
790,-0.033523,0.03778,0.264389
791,0.196149,0.085102,0.221118
792,0.196149,0.053554,0.019185
793,0.012412,-0.072639,-0.211595
794,-0.171326,-0.198832,-0.355832
795,-0.079457,-0.15151,-0.240442
796,-0.033523,-0.056865,-0.052934
797,-0.079457,-0.056865,-0.03851
798,0.035379,-0.025317,-0.009662
799,0.10428,0.03778,0.048033
800,0.173182,0.148198,0.235541
801,0.150215,0.148198,0.249965
802,0.081313,0.085102,0.466321
803,-0.102424,-0.056865,0.221118
804,-0.033523,-0.119962,-0.110629
805,-0.079457,-0.072639,-0.211595
806,-0.05649,-0.056865,-0.326985
807,0.035379,-0.072639,-0.38468
808,0.012412,-0.088413,-0.341409
809,-0.125391,-0.104187,-0.197171
810,-0.05649,-0.056865,-0.096205
811,0.035379,0.006231,-0.052934
812,0.173182,0.03778,-0.009662
813,0.081313,0.053554,0.120151
814,0.081313,0.03778,0.048033
815,0.012412,0.006231,0.134575
816,0.012412,-0.056865,-0.024086
817,-0.010555,-0.025317,0.004761
818,0.012412,0.022005,0.07688
819,-0.079457,-0.072639,0.004761
820,-0.05649,-0.088413,-0.009662
821,-0.010555,-0.041091,0.004761
822,-0.079457,-0.056865,0.004761
823,-0.010555,-0.009543,0.062456
824,0.012412,-0.009543,0.048033
825,-0.010555,-0.009543,0.033609
826,0.081313,0.006231,0.048033
827,0.081313,-0.009543,-0.009662
828,-0.010555,-0.041091,-0.009662
829,0.035379,-0.009543,-0.009662
830,0.058346,0.053554,0.033609
831,0.035379,0.03778,0.07688
832,0.012412,0.03778,0.206694
833,0.012412,0.022005,0.206694
834,0.035379,0.03778,0.004761
835,-0.05649,0.006231,-0.1539
836,-0.033523,-0.025317,-0.024086
837,0.012412,-0.025317,-0.009662
838,-0.010555,-0.056865,-0.139476
839,-0.102424,-0.072639,-0.211595
840,-0.102424,-0.056865,-0.067357
841,-0.010555,-0.041091,-0.067357
842,0.035379,0.03778,-0.067357
843,0.173182,0.100876,0.177846
844,0.127248,0.11665,0.206694
845,0.10428,0.053554,0.235541
846,-0.102424,-0.072639,0.004761
847,-0.079457,-0.088413,-0.168324
848,-0.010555,-0.009543,-0.009662
849,0.081313,-0.009543,0.062456
850,0.081313,0.022005,-0.03851
851,-0.05649,-0.072639,-0.168324
852,-0.079457,-0.119962,-0.26929
853,-0.102424,-0.104187,-0.197171
854,-0.033523,-0.041091,-0.096205
855,-0.010555,-0.056865,-0.081781
856,-0.010555,-0.025317,-0.096205
857,0.035379,0.022005,-0.009662
858,0.035379,0.03778,0.105728
859,0.173182,0.069328,0.163423
860,0.150215,0.069328,0.206694
861,-0.010555,0.053554,0.120151
862,-0.033523,-0.072639,-0.03851
863,-0.079457,-0.072639,-0.009662
864,-0.05649,-0.041091,-0.052934
865,0.012412,-0.041091,-0.081781
866,-0.010555,-0.056865,-0.024086
867,-0.010555,-0.025317,-0.009662
868,-0.033523,-0.009543,-0.067357
869,-0.010555,0.03778,0.062456
870,0.035379,0.006231,0.07688
871,-0.033523,-0.041091,-0.024086
872,-0.079457,-0.041091,0.004761
873,-0.05649,0.022005,0.048033
874,0.012412,0.006231,0.048033
875,0.035379,0.006231,0.033609
876,-0.010555,-0.025317,0.004761
877,0.012412,-0.025317,-0.009662
878,0.012412,-0.009543,-0.024086
879,0.012412,0.006231,0.033609
880,-0.010555,0.022005,0.048033
881,-0.033523,-0.009543,0.033609
882,-0.010555,-0.025317,-0.024086
883,-0.079457,-0.025317,-0.03851
884,-0.05649,-0.025317,-0.03851
885,-0.010555,-0.025317,-0.067357
886,0.035379,-0.025317,-0.03851
887,0.10428,0.03778,0.091304
888,0.150215,0.100876,0.249965
889,0.196149,0.100876,0.235541
890,0.150215,0.085102,0.120151
891,0.035379,-0.072639,-0.110629
892,-0.102424,-0.088413,-0.254866
893,-0.079457,-0.088413,-0.226019
894,0.012412,-0.041091,-0.081781
895,-0.05649,-0.025317,-0.03851
896,-0.010555,-0.025317,-0.024086
897,0.035379,-0.009543,-0.009662
898,-0.010555,-0.009543,0.048033
899,0.012412,-0.009543,0.033609
900,0.012412,0.022005,0.062456
901,-0.010555,-0.009543,0.048033
902,0.058346,0.006231,-0.009662
903,-0.125391,-0.072639,-0.110629
904,-0.079457,-0.056865,-0.067357
905,-0.05649,-0.041091,-0.081781
906,-0.033523,-0.056865,-0.182747
907,-0.102424,-0.025317,-0.168324
908,-0.010555,-0.009543,-0.139476
909,0.058346,0.006231,-0.024086
910,0.081313,0.022005,0.019185
911,0.035379,-0.041091,0.163423
912,-0.079457,-0.056865,0.033609
913,-0.033523,-0.056865,-0.067357
914,0.10428,0.006231,0.07688
915,-0.033523,-0.009543,0.048033
916,-0.010555,-0.025317,0.004761
917,0.058346,0.006231,0.004761
918,0.127248,-0.025317,-0.03851
919,-0.033523,-0.025317,-0.009662
920,-0.010555,-0.009543,0.033609
921,0.058346,0.006231,0.062456
922,0.081313,0.053554,0.091304
923,0.081313,0.03778,0.134575
924,0.081313,0.053554,0.148999
925,-0.033523,-0.009543,0.105728
926,0.081313,0.022005,0.062456
927,0.058346,0.022005,0.062456
928,0.035379,0.006231,0.048033
929,0.035379,-0.025317,-0.03851
930,-0.079457,-0.104187,-0.168324
931,-0.125391,-0.072639,-0.1539
932,-0.079457,-0.056865,-0.096205
933,0.035379,-0.025317,-0.03851
934,0.035379,-0.025317,-0.024086
935,-0.033523,-0.041091,-0.052934
936,0.012412,-0.009543,0.033609
937,0.058346,0.006231,0.033609
938,0.012412,-0.009543,0.033609
939,-0.010555,-0.009543,0.019185
940,-0.010555,0.006231,0.004761
941,0.081313,0.006231,0.004761
942,0.058346,0.022005,0.048033
943,-0.033523,0.006231,0.019185
944,-0.102424,-0.025317,-0.024086
945,-0.102424,-0.041091,-0.081781
946,-0.010555,-0.025317,-0.03851
947,-0.033523,-0.009543,-0.009662
948,-0.125391,-0.025317,0.019185
949,-0.194293,-0.009543,0.019185
950,-0.148358,-0.009543,0.004761
951,0.012412,-0.009543,-0.024086
952,0.081313,-0.009543,-0.009662
953,0.081313,-0.009543,-0.024086
954,0.10428,-0.041091,-0.009662
955,0.150215,-0.009543,-0.009662
956,0.173182,-0.009543,-0.024086
957,0.127248,0.006231,-0.024086
958,0.310985,0.022005,-0.009662
959,0.310985,0.006231,0.004761
960,0.379886,0.022005,0.033609
961,0.471755,0.03778,0.062456
962,0.288018,0.006231,0.062456
963,0.035379,-0.009543,-0.009662
964,0.012412,-0.009543,-0.024086
965,-0.079457,-0.025317,-0.03851
966,-0.125391,-0.025317,-0.03851
967,-0.21726,-0.056865,-0.052934
968,-0.263194,-0.041091,-0.052934
969,-0.240227,-0.056865,-0.024086
970,-0.102424,-0.041091,0.004761
971,-0.05649,0.022005,0.004761
972,0.012412,0.006231,0.048033
973,-0.033523,-0.025317,0.004761
974,-0.171326,-0.025317,-0.009662
975,-0.033523,-0.009543,-0.009662
976,0.333952,-0.009543,0.019185
977,0.540657,0.006231,0.004761
978,0.425821,0.022005,0.019185
979,0.471755,0.006231,0.019185
980,0.563624,0.03778,0.033609
981,0.402854,0.053554,0.048033
982,0.265051,0.022005,0.033609
983,-0.102424,0.006231,-0.024086
984,-0.240227,-0.025317,-0.052934
985,-0.286161,-0.056865,-0.081781
986,-0.37803,-0.025317,-0.067357
987,-0.37803,-0.009543,-0.03851
988,-0.400997,-0.056865,-0.024086
989,-0.309129,-0.041091,-0.024086
990,-0.240227,-0.041091,0.004761
991,-0.05649,-0.025317,-0.009662
992,0.058346,0.006231,0.004761
993,0.10428,0.006231,0.004761
994,0.150215,0.022005,0.004761
995,0.150215,-0.009543,0.019185
996,0.242083,0.006231,0.019185
997,0.196149,0.022005,0.062456
998,0.150215,0.03778,0.105728
999,0.173182,0.03778,0.091304
1000,-0.010555,-0.009543,-0.024086
1001,-0.102424,-0.041091,-0.03851
1002,-0.148358,-0.009543,-0.052934
1003,-0.171326,-0.041091,-0.03851
1004,-0.148358,-0.041091,-0.03851
1005,-0.263194,-0.072639,-0.096205
1006,-0.5388,-0.009543,-0.03851
1007,-0.768472,-0.025317,0.004761
1008,-0.607702,-0.009543,0.004761
1009,-0.400997,-0.009543,-0.009662
1010,-0.194293,-0.025317,-0.009662
1011,0.150215,-0.025317,-0.024086
1012,0.402854,-0.041091,-0.009662
1013,0.448788,-0.025317,-0.009662
1014,0.471755,0.006231,-0.009662
1015,0.563624,0.006231,0.048033
1016,0.609558,0.03778,0.033609
1017,0.494722,0.022005,0.048033
1018,0.517689,0.03778,0.07688
1019,0.356919,0.03778,0.062456
1020,0.196149,0.006231,-0.009662
1021,-0.010555,-0.009543,-0.024086
1022,0.035379,-0.041091,-0.067357
1023,0.081313,-0.056865,-0.096205
1024,-0.033523,-0.041091,-0.096205
1025,-0.148358,-0.041091,-0.081781
1026,-0.033523,-0.025317,-0.024086
1027,0.035379,-0.025317,-0.009662
1028,0.058346,-0.025317,0.004761
1029,-0.010555,-0.025317,-0.009662
1030,-0.033523,-0.009543,0.004761
1031,-0.102424,-0.009543,-0.024086
1032,-0.079457,-0.025317,0.004761
1033,-0.102424,-0.009543,0.004761
1034,-0.010555,0.006231,0.004761
1035,-0.05649,0.03778,0.004761
1036,-0.05649,0.022005,0.004761
1037,-0.05649,0.006231,0.019185
1038,-0.010555,-0.009543,0.019185
1039,-0.033523,0.006231,-0.009662
1040,-0.010555,0.022005,-0.024086
1041,-0.033523,-0.009543,0.004761
1042,-0.033523,-0.009543,0.004761
1043,-0.05649,-0.009543,0.004761
1044,-0.033523,0.006231,-0.009662
1045,-0.010555,-0.025317,0.004761
1046,0.012412,-0.009543,0.004761
1047,0.012412,-0.025317,0.004761
1048,-0.033523,0.006231,0.033609
1049,0.012412,-0.009543,0.019185
1050,0.012412,0.006231,0.019185
1051,0.012412,-0.041091,-0.009662
1052,-0.010555,-0.025317,-0.03851
1053,-0.010555,-0.041091,-0.024086
1054,0.012412,-0.025317,-0.024086
1055,-0.010555,-0.025317,-0.009662
1056,0.035379,-0.009543,-0.009662
1057,0.012412,0.006231,0.004761
1058,0.035379,-0.009543,-0.009662
1059,0.081313,-0.025317,-0.009662
1060,-0.05649,-0.009543,-0.009662
1061,0.035379,-0.009543,-0.009662
1062,-0.033523,0.006231,-0.009662
1063,-0.033523,0.006231,-0.024086
1064,-0.102424,0.022005,-0.009662
1065,-0.05649,-0.009543,-0.009662
1066,-0.05649,-0.009543,0.004761
1067,-0.033523,-0.025317,0.019185
1068,0.012412,-0.025317,0.004761
1069,-0.010555,-0.009543,0.019185
1070,0.058346,-0.009543,0.019185
1071,0.058346,-0.009543,-0.009662
1072,0.150215,-0.025317,-0.009662
1073,0.242083,-0.025317,-0.024086
1074,0.173182,-0.009543,-0.009662
1075,0.10428,-0.009543,-0.024086
1076,-0.010555,-0.025317,-0.024086
1077,-0.125391,-0.025317,0.019185
1078,-0.194293,-0.041091,0.019185
1079,-0.194293,0.006231,0.048033
1080,-0.102424,0.006231,0.019185
1081,-0.079457,-0.025317,-0.009662
1082,0.012412,-0.009543,-0.03851
1083,-0.010555,-0.009543,-0.052934
1084,0.058346,0.022005,0.004761
1085,0.058346,0.022005,0.019185
1086,0.127248,0.006231,0.048033
1087,0.310985,0.006231,0.019185
1088,0.310985,0.006231,0.048033
1089,0.242083,-0.009543,0.004761
1090,0.150215,-0.056865,-0.024086
1091,0.10428,-0.041091,-0.03851
1092,0.150215,-0.009543,-0.03851
1093,0.012412,-0.009543,-0.03851
1094,-0.125391,-0.041091,-0.03851
1095,-0.125391,-0.009543,-0.024086
1096,0.081313,-0.025317,-0.03851
1097,0.173182,0.006231,-0.024086
1098,0.081313,-0.009543,0.019185
1099,0.012412,-0.025317,0.033609
1100,-0.033523,0.006231,0.019185
1101,-0.079457,-0.025317,0.004761
1102,-0.05649,-0.009543,-0.009662
1103,-0.102424,-0.009543,-0.009662
1104,-0.079457,0.006231,-0.03851
1105,-0.125391,0.006231,-0.024086
1106,-0.102424,-0.025317,-0.024086
1107,0.012412,0.006231,0.004761
1108,-0.079457,-0.009543,-0.009662
1109,-0.05649,-0.025317,-0.009662
1110,-0.033523,-0.009543,0.004761
1111,-0.010555,-0.025317,0.004761
1112,0.012412,-0.025317,-0.009662
1113,0.012412,-0.009543,-0.009662
1114,0.012412,-0.025317,0.004761
1115,0.081313,0.006231,0.004761
1116,0.127248,-0.025317,-0.009662
1117,0.035379,-0.025317,-0.009662
1118,0.058346,0.006231,-0.009662
1119,0.058346,-0.025317,0.004761
1120,0.012412,0.006231,0.004761
1121,0.035379,-0.025317,-0.009662
1122,-0.033523,-0.009543,-0.009662
1123,0.058346,-0.009543,-0.009662
1124,0.012412,-0.009543,-0.009662
1125,0.081313,-0.025317,-0.009662
1126,0.058346,-0.009543,-0.009662
1127,0.035379,-0.009543,-0.009662
1128,0.081313,-0.041091,-0.009662
1129,0.058346,0.006231,-0.009662
1130,0.012412,-0.041091,-0.024086
1131,-0.079457,-0.009543,-0.009662
1132,-0.079457,-0.009543,-0.009662
1133,-0.033523,-0.009543,0.004761
1134,-0.05649,0.006231,-0.009662
1135,0.081313,-0.009543,-0.024086
1136,0.10428,0.022005,-0.009662
1137,0.012412,-0.025317,-0.009662
1138,0.035379,0.006231,-0.009662
1139,-0.033523,-0.009543,0.048033
1140,-0.079457,-0.025317,-0.024086
1141,-0.102424,-0.025317,0.004761
1142,-0.010555,-0.009543,-0.009662
1143,0.035379,-0.009543,-0.024086
1144,0.012412,-0.009543,0.004761
1145,-0.033523,0.006231,-0.024086
1146,-0.010555,-0.009543,0.004761
1147,-0.125391,-0.009543,-0.009662
1148,-0.125391,-0.009543,-0.009662
1149,-0.010555,-0.009543,-0.009662
1150,0.058346,0.006231,-0.009662
1151,0.150215,0.006231,0.004761
1152,0.10428,0.022005,0.019185
1153,0.012412,0.006231,0.004761
1154,0.058346,0.006231,-0.024086
1155,0.10428,-0.025317,-0.009662
1156,0.012412,-0.009543,-0.024086
1157,0.012412,-0.025317,-0.009662
1158,0.035379,-0.025317,-0.009662
1159,0.035379,-0.009543,-0.009662
1160,0.035379,0.022005,-0.024086
1161,0.035379,-0.009543,-0.009662
1162,-0.033523,-0.025317,-0.009662
1163,-0.033523,-0.025317,-0.009662
1164,-0.05649,-0.009543,-0.009662
1165,-0.010555,0.006231,-0.024086
1166,-0.010555,-0.009543,-0.024086
1167,0.012412,-0.009543,-0.009662
1168,0.081313,0.006231,0.004761
1169,0.10428,-0.009543,0.004761
1170,0.012412,0.022005,-0.024086
1171,0.012412,-0.025317,-0.024086
1172,-0.010555,-0.009543,-0.009662
1173,0.035379,0.006231,-0.024086
1174,0.012412,-0.009543,0.033609
1175,0.10428,0.022005,0.004761
1176,0.058346,-0.009543,0.019185
1177,0.10428,-0.041091,0.004761
1178,0.127248,-0.041091,0.004761
1179,0.173182,-0.025317,0.004761
1180,0.563624,0.006231,0.004761
1181,0.540657,-0.009543,-0.009662
1182,0.288018,-0.025317,-0.024086
1183,0.196149,-0.041091,-0.03851
1184,0.035379,-0.025317,-0.052934
1185,0.012412,-0.025317,-0.03851
1186,-0.21726,0.006231,-0.024086
1187,-0.37803,-0.009543,-0.024086
1188,-0.469899,-0.009543,-0.024086
1189,-0.194293,-0.009543,-0.009662
1190,-0.05649,0.006231,-0.009662
1191,0.012412,0.006231,0.004761
1192,0.035379,-0.009543,0.004761
1193,-0.079457,-0.041091,0.004761
1194,-0.148358,-0.041091,-0.024086
1195,-0.240227,-0.025317,-0.009662
1196,-0.263194,0.006231,0.004761
1197,-0.102424,-0.009543,0.004761
1198,-0.05649,-0.009543,-0.009662
1199,0.058346,-0.009543,-0.009662
1200,0.127248,-0.009543,0.004761
1201,0.127248,0.006231,0.004761
1202,0.173182,-0.009543,0.004761
1203,0.288018,0.006231,0.019185
1204,0.265051,0.006231,0.004761
1205,0.219116,0.006231,0.004761
1206,0.10428,0.006231,0.004761
1207,-0.033523,0.022005,0.004761
1208,-0.194293,0.006231,0.004761
1209,-0.355063,-0.009543,0.004761
1210,-0.171326,-0.009543,-0.009662
1211,-0.010555,-0.009543,0.004761
1212,-0.010555,0.006231,-0.009662
1213,0.058346,-0.025317,-0.024086
1214,0.219116,-0.041091,-0.009662
1215,0.494722,-0.025317,-0.009662
1216,0.563624,0.03778,-0.009662
1217,0.471755,-0.009543,-0.009662
1218,0.035379,-0.041091,-0.024086
1219,-0.309129,-0.041091,0.004761
1220,-0.05649,-0.025317,-0.009662
1221,0.012412,-0.009543,0.019185
1222,-0.171326,-0.009543,0.004761
1223,-0.171326,-0.009543,0.004761
1224,-0.171326,0.006231,0.004761
1225,-0.05649,-0.009543,0.004761
1226,-0.05649,-0.025317,-0.009662
1227,-0.05649,-0.025317,-0.024086
1228,-0.05649,-0.009543,0.019185
1229,-0.010555,-0.009543,-0.009662
1230,-0.033523,-0.025317,-0.024086
1231,-0.079457,-0.009543,-0.009662
1232,-0.079457,-0.009543,0.019185
1233,-0.102424,-0.009543,-0.009662
1234,-0.05649,-0.025317,-0.024086
1235,-0.033523,-0.009543,-0.009662
1236,0.012412,-0.009543,0.004761
1237,0.035379,-0.009543,0.004761
1238,-0.010555,-0.009543,0.004761
1239,0.035379,0.006231,-0.009662
1240,0.035379,-0.009543,-0.009662
1241,0.10428,-0.009543,0.004761
1242,0.058346,0.006231,0.004761
1243,0.058346,-0.009543,-0.009662
1244,-0.010555,-0.025317,-0.03851
1245,-0.010555,-0.041091,-0.009662
1246,-0.079457,-0.041091,-0.009662
1247,0.035379,-0.009543,-0.009662
1248,0.012412,-0.009543,-0.009662
1249,0.012412,-0.009543,0.019185
1250,-0.033523,-0.009543,-0.009662
1251,-0.010555,-0.009543,-0.009662
1252,0.012412,0.006231,-0.009662
1253,0.035379,0.03778,-0.024086
1254,0.035379,0.03778,-0.009662
1255,-0.033523,0.022005,0.004761
1256,0.035379,0.022005,0.004761
1257,0.012412,-0.009543,-0.009662
1258,0.035379,-0.009543,-0.009662
1259,0.035379,-0.009543,-0.024086
1260,0.058346,0.006231,-0.009662
1261,-0.010555,0.006231,-0.009662
1262,-0.125391,-0.009543,-0.009662
1263,-0.010555,0.006231,0.004761
1264,-0.05649,-0.025317,-0.009662
1265,-0.102424,-0.009543,-0.009662
1266,-0.033523,-0.009543,-0.009662
1267,0.10428,-0.025317,0.004761
1268,0.081313,-0.025317,0.004761
1269,0.10428,-0.009543,0.004761
1270,0.150215,-0.009543,-0.009662
1271,0.173182,0.006231,0.004761
1272,-0.010555,-0.025317,0.004761
1273,-0.102424,-0.025317,-0.009662
1274,-0.05649,-0.009543,-0.024086
1275,-0.010555,-0.009543,0.004761
1276,0.012412,-0.009543,0.004761
1277,-0.010555,-0.009543,-0.009662
1278,-0.010555,-0.009543,-0.009662
1279,0.058346,-0.009543,0.004761
1280,0.035379,0.006231,-0.009662
1281,0.058346,0.022005,-0.009662
1282,0.150215,0.022005,-0.024086
1283,0.127248,0.006231,-0.009662
1284,0.10428,-0.009543,0.004761
1285,0.081313,-0.025317,0.019185
1286,-0.079457,-0.072639,-0.009662
1287,-0.240227,-0.041091,0.004761
1288,-0.21726,-0.009543,0.004761
1289,-0.148358,-0.041091,-0.024086
1290,-0.102424,-0.041091,-0.009662
1291,-0.079457,-0.009543,0.004761
1292,-0.010555,-0.009543,0.004761
1293,0.058346,0.006231,-0.009662
1294,0.150215,-0.025317,-0.009662
1295,0.173182,0.006231,-0.009662
1296,0.10428,-0.009543,-0.009662
1297,0.081313,-0.025317,-0.009662
1298,0.012412,-0.025317,-0.009662
1299,0.035379,0.022005,0.019185
1300,-0.05649,-0.009543,0.019185
1301,0.035379,0.006231,0.004761
1302,0.035379,0.006231,-0.009662
1303,0.035379,-0.009543,-0.009662
1304,-0.010555,0.006231,-0.009662
1305,-0.010555,-0.009543,0.004761
1306,-0.010555,-0.025317,0.004761
1307,0.012412,0.022005,-0.009662
1308,0.012412,-0.009543,-0.009662
1309,-0.010555,-0.009543,-0.009662
1310,0.058346,-0.025317,-0.024086
1311,0.081313,-0.009543,-0.009662
1312,0.081313,-0.009543,-0.009662
1313,0.012412,-0.041091,-0.009662
1314,-0.010555,-0.025317,-0.009662
1315,-0.079457,-0.025317,-0.009662
1316,-0.033523,-0.025317,-0.009662
1317,-0.033523,0.006231,-0.009662
1318,0.081313,-0.025317,0.004761
1319,0.035379,-0.025317,-0.009662
1320,-0.010555,-0.009543,-0.009662
1321,-0.033523,0.006231,0.004761
1322,-0.010555,-0.009543,0.019185
1323,-0.079457,0.006231,-0.009662
1324,-0.05649,-0.009543,-0.024086
1325,-0.010555,0.006231,-0.009662
1326,-0.05649,-0.025317,0.004761
1327,-0.010555,-0.041091,0.019185
1328,0.035379,-0.009543,0.004761
1329,0.081313,0.006231,0.004761
1330,-0.010555,-0.025317,0.004761
1331,-0.05649,-0.009543,-0.009662
1332,0.035379,-0.025317,-0.009662
1333,0.012412,0.006231,0.004761
1334,0.058346,-0.009543,0.004761
1335,0.012412,-0.009543,0.004761
1336,0.012412,-0.025317,-0.009662
1337,0.058346,-0.009543,-0.024086
1338,0.035379,-0.009543,-0.009662
1339,0.035379,-0.025317,-0.03851
1340,0.012412,-0.009543,0.004761
1341,0.058346,-0.009543,-0.024086
1342,0.035379,-0.009543,-0.009662
1343,0.012412,-0.009543,-0.024086
1344,0.081313,0.022005,0.004761
1345,0.035379,0.006231,0.004761
1346,-0.033523,-0.025317,-0.009662
1347,-0.05649,-0.009543,-0.009662
1348,-0.010555,-0.009543,-0.009662
1349,-0.010555,-0.041091,-0.009662
1350,-0.010555,-0.009543,-0.024086
1351,-0.05649,-0.009543,0.004761
1352,0.081313,-0.009543,0.019185
1353,0.173182,0.006231,0.004761
1354,0.150215,0.022005,0.004761
1355,0.127248,0.022005,-0.009662
1356,0.058346,0.022005,-0.009662
1357,-0.125391,-0.009543,-0.009662
1358,-0.171326,-0.009543,-0.009662
1359,-0.079457,-0.041091,-0.009662
1360,-0.033523,-0.072639,-0.009662
1361,-0.033523,-0.041091,0.004761
1362,0.012412,-0.025317,0.004761
1363,0.035379,-0.025317,0.004761
1364,0.012412,0.006231,0.004761
1365,-0.010555,-0.025317,0.004761
1366,-0.05649,-0.025317,0.004761
1367,0.012412,-0.009543,-0.009662
1368,0.035379,0.006231,-0.009662
1369,0.035379,-0.009543,0.004761
1370,0.035379,0.006231,0.004761
1371,0.012412,-0.009543,0.004761
1372,0.012412,0.006231,-0.009662
1373,0.035379,-0.009543,-0.009662
1374,0.058346,-0.025317,0.004761
1375,0.10428,-0.009543,-0.009662
1376,0.035379,-0.009543,-0.009662
1377,0.035379,-0.009543,-0.009662
1378,-0.010555,-0.009543,0.004761
1379,0.012412,-0.009543,-0.009662
1380,0.035379,0.006231,-0.009662
1381,-0.010555,0.006231,-0.009662
1382,-0.010555,0.006231,0.004761
1383,0.012412,-0.009543,0.019185
1384,0.058346,-0.009543,-0.009662
1385,-0.010555,-0.025317,-0.009662
1386,-0.033523,0.022005,0.004761
1387,-0.033523,-0.025317,-0.009662
1388,-0.05649,-0.009543,-0.009662
1389,-0.148358,0.022005,0.019185
1390,-0.079457,-0.025317,-0.009662
1391,-0.010555,-0.025317,-0.009662
1392,-0.033523,-0.009543,0.004761
1393,-0.033523,0.006231,0.004761
1394,0.10428,-0.009543,0.004761
1395,0.150215,-0.009543,-0.009662
1396,0.10428,-0.025317,0.004761
1397,0.10428,-0.041091,-0.009662
1398,0.058346,-0.025317,0.004761
1399,0.035379,-0.025317,-0.024086
1400,0.150215,-0.025317,0.004761
1401,0.035379,0.006231,-0.009662
1402,0.058346,-0.009543,0.004761
1403,0.10428,0.03778,-0.024086
1404,0.035379,0.022005,-0.009662
1405,0.058346,0.006231,0.004761
1406,0.058346,0.006231,-0.009662
1407,0.012412,-0.009543,-0.009662
1408,0.058346,-0.009543,0.004761
1409,0.081313,0.022005,0.004761
1410,0.035379,-0.009543,-0.009662
1411,-0.033523,-0.009543,-0.009662
1412,0.012412,-0.009543,0.004761
1413,-0.010555,-0.041091,0.004761
1414,-0.010555,-0.025317,-0.024086
1415,0.058346,-0.009543,-0.009662
1416,-0.05649,-0.009543,-0.024086
1417,-0.079457,-0.041091,0.004761
1418,-0.010555,-0.009543,-0.009662
1419,0.058346,-0.009543,0.004761
1420,-0.033523,-0.025317,0.004761
1421,-0.033523,-0.025317,0.004761
1422,0.058346,-0.009543,-0.009662
1423,0.081313,0.006231,0.019185
1424,0.035379,-0.009543,0.004761
1425,0.012412,-0.009543,-0.009662
1426,0.035379,-0.025317,0.004761
1427,0.058346,0.006231,-0.024086
1428,0.035379,-0.009543,-0.009662
1429,0.035379,-0.009543,0.004761
1430,-0.033523,-0.025317,0.004761
1431,-0.010555,-0.025317,-0.009662
1432,-0.010555,0.006231,0.019185
1433,0.035379,-0.009543,-0.009662
1434,0.035379,-0.025317,0.019185
1435,0.012412,-0.009543,0.004761
1436,0.012412,-0.009543,0.019185
1437,0.081313,0.006231,0.004761
1438,0.035379,0.006231,0.004761
1439,0.10428,0.006231,-0.009662
1440,0.035379,0.006231,0.004761
1441,0.035379,-0.025317,0.004761
1442,0.035379,-0.009543,-0.024086
1443,0.035379,0.006231,-0.009662
1444,-0.079457,-0.025317,-0.009662
1445,-0.102424,-0.025317,-0.024086
1446,-0.148358,-0.025317,-0.009662
1447,0.012412,-0.009543,0.004761
1448,0.10428,0.006231,0.004761
1449,0.081313,0.022005,0.004761
1450,0.081313,0.006231,0.004761
1451,-0.05649,0.03778,0.019185
1452,0.012412,-0.025317,-0.009662
1453,0.012412,-0.072639,-0.009662
1454,0.058346,-0.025317,0.004761
1455,0.012412,-0.025317,0.019185
1456,-0.033523,0.006231,0.019185
1457,0.058346,-0.009543,-0.009662
1458,0.035379,0.006231,-0.009662
1459,0.035379,-0.041091,0.004761
1460,0.012412,-0.009543,-0.009662
1461,0.058346,-0.009543,0.048033
1462,0.058346,-0.025317,0.004761
1463,-0.033523,-0.009543,-0.009662
1464,0.012412,-0.009543,0.004761
1465,0.035379,-0.025317,-0.009662
1466,0.012412,-0.009543,0.019185
1467,0.035379,-0.009543,0.004761
1468,0.058346,-0.009543,0.004761
1469,0.035379,-0.009543,-0.009662
1470,0.012412,-0.025317,-0.009662
1471,-0.079457,-0.009543,0.004761
1472,0.012412,-0.025317,0.048033
1473,0.012412,-0.025317,-0.009662
1474,-0.05649,-0.009543,-0.024086
1475,-0.010555,-0.025317,0.004761
1476,0.012412,-0.009543,0.004761
1477,-0.033523,-0.041091,0.004761
1478,0.035379,0.006231,-0.009662
1479,0.058346,0.006231,0.004761
1480,0.127248,0.022005,0.004761
1481,0.058346,0.006231,0.004761
1482,0.081313,0.022005,-0.009662
1483,0.035379,-0.009543,-0.024086
1484,0.058346,-0.009543,-0.009662
1485,-0.010555,-0.025317,-0.009662
1486,-0.010555,-0.025317,0.019185
1487,0.081313,0.006231,-0.009662
1488,0.035379,-0.025317,-0.024086
1489,0.012412,-0.025317,-0.009662
1490,0.012412,-0.009543,0.004761
1491,0.035379,0.022005,0.004761
1492,0.058346,-0.009543,0.004761
1493,0.012412,0.006231,0.004761
1494,-0.033523,0.006231,0.004761
1495,-0.033523,-0.009543,-0.009662
1496,0.081313,-0.009543,-0.009662
1497,0.127248,-0.009543,-0.009662
1498,0.173182,-0.009543,-0.009662
1499,0.173182,-0.009543,0.004761
1500,0.127248,-0.009543,0.004761
1501,0.058346,0.006231,0.019185
1502,-0.171326,-0.025317,-0.024086
1503,-0.194293,-0.025317,0.004761
1504,-0.079457,-0.009543,0.004761
1505,0.012412,-0.009543,0.004761
1506,-0.102424,-0.025317,-0.024086
1507,0.127248,-0.025317,0.004761
1508,-0.010555,-0.009543,-0.009662
1509,-0.033523,0.006231,-0.009662
1510,-0.125391,0.006231,0.004761
1511,-0.102424,-0.009543,0.019185
1512,-0.05649,0.006231,0.004761
1513,0.012412,-0.041091,-0.009662
1514,0.035379,-0.009543,-0.009662
1515,0.081313,-0.041091,-0.009662
1516,0.10428,-0.025317,-0.009662
1517,0.150215,-0.025317,-0.024086
1518,0.150215,-0.009543,-0.009662
1519,0.150215,-0.009543,0.004761
1520,0.058346,-0.009543,0.004761
1521,0.058346,-0.025317,-0.009662
1522,0.012412,-0.009543,-0.009662
1523,0.012412,0.006231,-0.009662
1524,0.012412,-0.041091,0.004761
1525,-0.05649,-0.009543,0.019185
1526,0.012412,-0.041091,-0.009662
1527,-0.010555,-0.009543,-0.009662
1528,-0.05649,-0.009543,-0.024086
1529,0.035379,-0.009543,-0.009662
1530,-0.010555,-0.009543,0.004761
1531,0.035379,0.022005,-0.009662
1532,0.012412,0.022005,0.004761
1533,0.035379,0.022005,0.004761
1534,0.035379,0.022005,0.004761
1535,-0.033523,-0.009543,0.019185
1536,0.012412,-0.072639,-0.009662
1537,-0.05649,-0.041091,0.019185
1538,0.058346,-0.025317,0.004761
1539,0.012412,-0.009543,0.004761
1540,-0.079457,-0.025317,0.004761
1541,-0.033523,0.006231,0.004761
1542,0.035379,0.006231,0.004761
1543,0.035379,-0.025317,-0.024086
1544,0.035379,-0.009543,-0.009662
1545,0.035379,-0.041091,-0.009662
1546,0.058346,0.006231,-0.009662
1547,-0.033523,-0.025317,-0.009662
1548,0.035379,0.006231,0.004761
1549,0.012412,0.006231,-0.009662
1550,-0.033523,-0.009543,-0.009662
1551,-0.033523,-0.009543,0.004761
1552,-0.05649,-0.025317,-0.009662
1553,-0.010555,0.006231,-0.009662
1554,0.012412,-0.025317,0.004761
1555,0.035379,-0.009543,0.004761
1556,-0.010555,-0.009543,0.004761
1557,-0.010555,-0.009543,-0.009662
1558,-0.010555,-0.009543,0.019185
1559,0.035379,-0.009543,0.019185
1560,0.012412,-0.009543,-0.024086
1561,-0.010555,-0.009543,-0.009662
1562,-0.05649,-0.025317,-0.009662
1563,0.012412,-0.025317,-0.009662
1564,0.012412,-0.009543,-0.009662
1565,0.081313,-0.025317,-0.009662
1566,-0.033523,0.006231,-0.024086
1567,0.012412,-0.025317,-0.009662
1568,0.035379,-0.009543,0.004761
1569,0.035379,-0.009543,-0.009662
1570,0.035379,-0.009543,0.004761
1571,0.035379,-0.025317,-0.009662
1572,-0.010555,0.006231,-0.009662
1573,0.012412,0.006231,0.004761
1574,0.035379,0.006231,0.004761
1575,0.012412,-0.009543,-0.009662
1576,0.058346,0.006231,0.004761
1577,-0.033523,0.006231,-0.024086
1578,-0.05649,-0.025317,-0.009662
1579,0.058346,-0.025317,-0.024086
1580,0.012412,-0.025317,0.004761
1581,0.012412,-0.009543,-0.009662
1582,0.012412,0.006231,0.004761
1583,0.012412,0.006231,0.004761
1584,0.035379,-0.025317,-0.009662
1585,0.035379,0.022005,0.004761
1586,-0.010555,0.006231,0.004761
1587,-0.033523,-0.009543,0.004761
1588,-0.033523,0.006231,0.004761
1589,0.012412,-0.025317,-0.009662
1590,-0.010555,-0.009543,0.004761
1591,-0.010555,0.006231,0.004761
1592,-0.010555,-0.009543,-0.009662
1593,-0.010555,-0.009543,0.004761
1594,-0.033523,0.006231,-0.009662
1595,0.035379,0.006231,0.004761
1596,0.058346,-0.009543,-0.024086
1597,-0.010555,-0.025317,0.004761
1598,-0.033523,-0.009543,0.004761
1599,0.035379,-0.009543,0.004761
1600,0.081313,0.006231,0.004761
1601,-0.010555,-0.009543,0.004761
1602,0.012412,0.006231,-0.009662
1603,0.035379,0.006231,0.004761
1604,0.058346,-0.009543,-0.009662
1605,0.035379,-0.009543,-0.009662
1606,0.035379,-0.009543,-0.009662
1607,0.012412,-0.025317,0.004761
1608,0.035379,0.006231,0.004761
1609,0.058346,0.006231,-0.009662
1610,0.035379,0.006231,0.004761
1611,-0.033523,-0.025317,-0.024086
1612,-0.010555,-0.009543,0.004761
1613,-0.010555,-0.009543,-0.009662
1614,-0.05649,-0.025317,-0.009662
1615,0.012412,-0.025317,-0.009662
1616,0.012412,-0.009543,-0.009662
1617,-0.033523,-0.009543,0.004761
1618,0.012412,-0.009543,-0.009662
1619,0.035379,-0.009543,0.019185
1620,-0.010555,0.006231,0.019185
1621,0.035379,-0.025317,0.019185
1622,-0.05649,-0.009543,0.019185
1623,-0.079457,-0.025317,0.004761
1624,-0.033523,-0.009543,0.004761
1625,-0.010555,-0.025317,-0.009662
1626,0.012412,-0.025317,-0.009662
1627,0.058346,-0.009543,0.004761
1628,-0.010555,-0.009543,-0.009662
1629,-0.010555,-0.009543,0.004761
1630,0.012412,-0.009543,-0.009662
1631,0.012412,-0.041091,-0.024086
1632,0.035379,-0.025317,-0.009662
1633,0.012412,-0.009543,-0.009662
1634,0.035379,-0.025317,-0.009662
1635,0.012412,-0.041091,-0.024086
1636,-0.010555,-0.025317,0.004761
1637,0.058346,0.006231,-0.009662
1638,0.012412,0.006231,-0.009662
1639,-0.010555,-0.009543,-0.009662
1640,-0.033523,-0.009543,-0.009662
1641,0.081313,-0.009543,-0.009662
1642,-0.010555,-0.009543,-0.009662
1643,0.035379,-0.009543,-0.009662
1644,0.081313,-0.009543,-0.009662
1645,0.012412,-0.025317,0.019185
1646,-0.010555,-0.056865,0.004761
1647,-0.079457,-0.041091,-0.009662
1648,-0.079457,-0.009543,-0.024086
1649,-0.033523,-0.009543,-0.03851
1650,-0.010555,0.006231,0.004761
1651,-0.079457,0.006231,0.004761
1652,-0.033523,-0.025317,0.004761
1653,0.035379,-0.009543,0.004761
1654,0.012412,-0.041091,0.004761
1655,-0.05649,-0.009543,-0.009662
1656,-0.033523,-0.025317,-0.024086
1657,-0.010555,-0.025317,-0.024086
1658,-0.010555,0.006231,-0.009662
1659,0.035379,-0.009543,0.004761
1660,0.058346,0.022005,-0.009662
1661,0.035379,0.006231,-0.009662
1662,0.012412,0.006231,0.004761
1663,-0.010555,0.006231,0.004761
1664,-0.010555,0.006231,0.004761
1665,0.081313,-0.009543,-0.024086
1666,0.012412,-0.056865,-0.024086
1667,0.012412,-0.025317,0.019185
1668,0.058346,-0.009543,-0.009662
1669,0.058346,-0.009543,0.004761
1670,0.012412,-0.025317,-0.009662
1671,-0.010555,-0.009543,0.004761
1672,0.012412,-0.009543,0.004761
1673,0.012412,-0.025317,-0.009662
1674,-0.079457,-0.009543,-0.009662
1675,-0.033523,-0.009543,0.004761
1676,-0.010555,-0.009543,0.004761
1677,0.012412,-0.009543,-0.009662
1678,-0.05649,-0.009543,-0.009662
1679,0.012412,0.006231,-0.024086
1680,-0.033523,-0.009543,-0.009662
1681,-0.010555,-0.009543,-0.009662
1682,-0.05649,0.006231,-0.009662
1683,-0.010555,0.006231,0.004761
1684,0.058346,-0.009543,0.004761
1685,-0.010555,-0.009543,-0.009662
1686,-0.033523,-0.009543,0.004761
1687,-0.010555,-0.009543,-0.009662
1688,-0.033523,-0.009543,0.004761
1689,0.012412,-0.041091,0.048033
1690,-0.010555,-0.009543,-0.009662
1691,0.035379,-0.025317,0.004761
1692,-0.010555,0.006231,0.004761
1693,0.035379,-0.009543,0.004761
1694,0.058346,-0.009543,-0.009662
1695,0.058346,-0.009543,-0.009662
1696,0.058346,0.006231,0.004761
1697,-0.010555,0.022005,0.019185
1698,0.127248,0.022005,-0.024086
1699,0.127248,-0.025317,-0.03851
1700,0.127248,-0.009543,-0.009662
1701,0.081313,-0.025317,0.004761
1702,0.10428,-0.041091,-0.009662
1703,-0.05649,-0.025317,0.004761
1704,-0.21726,-0.025317,0.004761
1705,-0.171326,-0.025317,-0.009662
1706,-0.010555,-0.009543,-0.009662
1707,0.012412,-0.009543,-0.009662
1708,-0.033523,-0.025317,0.004761
1709,0.012412,-0.009543,-0.009662
1710,0.10428,-0.009543,0.004761
1711,0.012412,-0.009543,0.019185
1712,-0.102424,-0.009543,-0.009662
1713,-0.102424,0.006231,-0.009662
1714,-0.010555,-0.009543,-0.009662
1715,-0.033523,-0.009543,-0.009662
1716,0.035379,-0.009543,-0.009662
1717,0.035379,-0.009543,0.004761
1718,0.035379,-0.009543,0.004761
1719,0.012412,-0.009543,0.004761
1720,0.012412,0.006231,0.004761
1721,0.012412,0.006231,-0.009662
1722,-0.010555,-0.009543,-0.009662
1723,0.012412,-0.041091,-0.009662
1724,-0.033523,-0.025317,-0.009662
1725,0.035379,-0.025317,-0.009662
1726,0.035379,-0.025317,0.004761
1727,0.081313,-0.025317,0.004761
1728,0.058346,0.006231,-0.009662
1729,0.035379,-0.025317,0.019185
1730,-0.033523,-0.009543,0.004761
1731,-0.05649,-0.009543,0.004761
1732,-0.033523,-0.009543,0.004761
1733,-0.010555,-0.009543,0.004761
1734,0.012412,0.006231,0.004761
1735,-0.033523,-0.009543,0.004761
1736,-0.010555,-0.009543,-0.024086
1737,-0.033523,-0.009543,-0.009662
1738,-0.033523,-0.041091,0.004761
1739,-0.010555,-0.009543,0.019185
1740,-0.010555,-0.009543,0.004761
1741,0.035379,-0.009543,0.004761
1742,0.035379,0.022005,-0.009662
1743,0.012412,0.006231,-0.009662
1744,0.012412,-0.009543,0.004761
1745,0.081313,-0.025317,-0.009662
1746,0.012412,-0.025317,0.004761
1747,0.035379,-0.009543,-0.009662
1748,-0.010555,-0.009543,0.019185
1749,-0.010555,-0.025317,0.004761
1750,0.035379,0.006231,0.004761
1751,0.035379,0.006231,0.004761
1752,0.012412,-0.009543,0.033609
1753,0.035379,0.022005,0.004761
1754,-0.010555,-0.009543,-0.024086
1755,-0.010555,-0.025317,-0.024086
1756,-0.033523,-0.025317,-0.024086
1757,-0.010555,-0.009543,-0.024086
1758,-0.033523,-0.025317,-0.024086
1759,-0.033523,-0.009543,-0.024086
1760,-0.010555,-0.009543,-0.03851
1761,-0.010555,0.006231,-0.024086
1762,-0.033523,-0.025317,-0.009662
1763,-0.010555,-0.009543,-0.009662
1764,0.012412,-0.009543,-0.009662
1765,-0.033523,-0.009543,-0.009662
1766,0.012412,-0.041091,-0.024086
1767,0.035379,-0.009543,0.004761
1768,0.035379,-0.009543,-0.009662
1769,-0.033523,0.022005,0.004761
1770,0.012412,-0.009543,0.004761
1771,0.012412,-0.009543,-0.009662
1772,0.035379,0.006231,0.004761
1773,-0.033523,-0.025317,0.004761
1774,0.012412,-0.009543,0.019185
1775,0.058346,-0.025317,0.019185
1776,0.035379,0.006231,0.004761
1777,-0.033523,-0.009543,-0.024086
1778,0.012412,-0.025317,0.004761
1779,-0.033523,-0.009543,0.004761
1780,0.012412,0.006231,-0.009662
1781,-0.010555,-0.009543,-0.009662
1782,-0.033523,-0.025317,-0.024086
1783,0.012412,0.006231,-0.009662
1784,0.035379,0.022005,-0.009662
1785,-0.033523,0.022005,0.004761
1786,-0.033523,0.022005,0.004761
1787,0.012412,-0.009543,0.019185
1788,-0.010555,-0.056865,-0.009662
1789,-0.05649,-0.072639,-0.009662
1790,0.012412,-0.056865,-0.009662
1791,0.035379,-0.009543,-0.024086
1792,0.012412,-0.009543,-0.009662
1793,-0.010555,-0.009543,-0.009662
1794,0.012412,0.006231,-0.009662
1795,0.035379,-0.009543,0.019185
1796,-0.079457,0.006231,0.004761
1797,-0.05649,-0.025317,0.004761
1798,0.058346,0.006231,0.004761
1799,0.035379,-0.025317,-0.009662
1800,0.058346,-0.025317,0.004761
1801,-0.010555,0.006231,-0.009662
1802,0.10428,-0.009543,-0.009662
1803,0.012412,-0.009543,0.004761
1804,-0.010555,-0.009543,-0.009662
1805,0.058346,0.006231,-0.009662
1806,0.035379,-0.009543,-0.009662
1807,-0.010555,-0.009543,-0.009662
1808,-0.05649,-0.009543,-0.009662
1809,0.012412,-0.041091,-0.009662
1810,0.035379,-0.009543,0.004761
1811,-0.033523,0.006231,0.004761
1812,-0.033523,-0.009543,-0.009662
1813,-0.010555,-0.025317,-0.009662
1814,-0.033523,-0.009543,-0.024086
1815,-0.010555,-0.009543,-0.009662
1816,0.035379,-0.025317,0.004761
1817,0.012412,-0.009543,0.019185
1818,0.035379,-0.025317,-0.009662
1819,-0.010555,-0.009543,0.004761
1820,-0.033523,0.022005,0.004761
1821,0.012412,-0.009543,0.019185
1822,0.035379,0.006231,0.019185
1823,-0.010555,-0.025317,0.004761
1824,-0.010555,-0.009543,-0.009662
1825,-0.033523,0.006231,-0.009662
1826,-0.010555,-0.025317,0.004761
1827,-0.010555,-0.009543,0.004761
1828,-0.05649,-0.009543,-0.009662
1829,-0.033523,-0.009543,-0.024086
1830,0.081313,-0.009543,-0.009662
1831,-0.033523,-0.009543,-0.024086
1832,0.012412,-0.025317,-0.009662
1833,0.012412,-0.025317,-0.024086
1834,-0.033523,-0.009543,-0.009662
1835,-0.033523,-0.009543,-0.009662
1836,0.035379,-0.025317,0.004761
1837,0.012412,-0.025317,-0.009662
1838,0.035379,0.006231,0.004761
1839,0.081313,-0.009543,0.004761
1840,0.058346,-0.025317,-0.009662
1841,0.012412,0.006231,-0.009662
1842,-0.010555,0.006231,-0.009662
1843,-0.05649,-0.025317,-0.009662
1844,0.012412,-0.009543,-0.009662
1845,0.081313,-0.009543,0.004761
1846,-0.05649,0.006231,-0.009662
1847,-0.05649,-0.009543,0.004761
1848,0.012412,-0.009543,0.004761
1849,-0.010555,0.006231,0.019185
1850,-0.010555,-0.009543,-0.009662
1851,-0.033523,-0.056865,0.004761
1852,-0.010555,0.006231,-0.009662
1853,0.058346,0.006231,0.004761
1854,-0.010555,-0.009543,0.004761
1855,0.058346,-0.009543,-0.009662
1856,0.012412,-0.009543,0.004761
1857,0.012412,-0.009543,0.004761
1858,0.035379,-0.009543,0.004761
1859,0.081313,-0.009543,-0.009662
1860,-0.033523,0.006231,0.019185
1861,0.035379,0.006231,-0.024086
1862,-0.05649,0.006231,0.004761
1863,0.035379,-0.009543,-0.009662
1864,0.058346,-0.009543,-0.009662
1865,0.012412,-0.009543,-0.024086
1866,0.058346,-0.009543,-0.024086
1867,0.058346,0.006231,-0.009662
1868,0.012412,-0.009543,-0.024086
1869,-0.033523,-0.009543,-0.024086
1870,0.012412,-0.025317,-0.024086
1871,0.035379,-0.009543,-0.024086
1872,-0.010555,-0.009543,-0.009662
1873,-0.033523,-0.025317,-0.009662
1874,-0.033523,0.006231,0.019185
1875,-0.05649,-0.009543,-0.009662
1876,-0.033523,-0.025317,-0.009662
1877,-0.033523,-0.009543,0.004761
1878,-0.033523,-0.009543,-0.009662
1879,-0.033523,-0.025317,-0.009662
1880,0.012412,-0.025317,-0.009662
1881,0.012412,-0.009543,-0.024086
1882,-0.033523,0.006231,-0.009662
1883,0.012412,-0.025317,-0.009662
1884,0.058346,0.006231,0.004761
1885,0.10428,-0.009543,0.004761
1886,0.150215,-0.009543,0.019185
1887,0.173182,-0.009543,0.004761
1888,0.173182,0.006231,0.019185
1889,0.081313,-0.025317,-0.009662
1890,-0.194293,-0.009543,0.004761
1891,-0.171326,-0.025317,0.004761
1892,-0.010555,-0.009543,-0.024086
1893,-0.033523,0.006231,-0.009662
1894,-0.033523,-0.009543,-0.009662
1895,0.035379,-0.025317,0.004761
1896,0.012412,0.006231,-0.009662
1897,-0.05649,-0.009543,-0.024086
1898,0.012412,-0.025317,-0.024086
1899,0.081313,-0.009543,-0.024086
1900,-0.010555,-0.025317,-0.009662
1901,-0.079457,0.022005,-0.009662
1902,0.012412,0.03778,0.004761
1903,0.058346,0.022005,0.033609
1904,0.012412,-0.009543,-0.009662
1905,-0.033523,0.006231,-0.024086
1906,-0.05649,-0.025317,0.004761
1907,0.012412,-0.056865,-0.009662
1908,-0.05649,-0.041091,0.004761
1909,-0.102424,-0.025317,0.004761
1910,-0.010555,-0.025317,0.004761
1911,0.012412,-0.025317,-0.009662
1912,-0.010555,-0.025317,-0.009662
1913,-0.033523,-0.009543,0.004761
1914,0.012412,0.006231,-0.009662
1915,0.035379,-0.009543,0.004761
1916,-0.010555,-0.025317,-0.009662
1917,-0.010555,0.006231,0.004761
1918,0.012412,-0.009543,-0.009662
1919,0.012412,-0.009543,0.004761
1920,-0.033523,-0.025317,-0.009662
1921,-0.010555,-0.009543,-0.009662
1922,0.035379,-0.009543,0.004761
1923,0.081313,-0.025317,-0.009662
1924,0.012412,0.006231,0.004761
1925,-0.010555,-0.009543,0.004761
1926,-0.033523,-0.009543,0.048033
1927,-0.05649,0.022005,0.004761
1928,-0.033523,-0.009543,-0.009662
1929,-0.05649,-0.009543,0.019185
1930,-0.010555,-0.025317,0.004761
1931,0.058346,-0.009543,-0.009662
1932,0.10428,0.006231,-0.024086
1933,0.150215,-0.025317,-0.024086
1934,0.081313,-0.009543,0.004761
1935,0.081313,-0.009543,-0.009662
1936,0.035379,-0.025317,0.004761
1937,-0.033523,-0.025317,-0.009662
1938,-0.033523,-0.009543,-0.009662
1939,0.012412,-0.041091,-0.009662
1940,0.012412,-0.009543,-0.009662
1941,0.127248,-0.009543,0.004761
1942,-0.010555,0.006231,0.004761
1943,-0.05649,0.022005,-0.024086
1944,-0.010555,0.006231,0.004761
1945,0.012412,-0.025317,0.004761
1946,-0.010555,-0.009543,0.004761
1947,-0.010555,0.006231,0.004761
1948,0.012412,0.006231,0.004761
1949,0.058346,0.006231,0.004761
1950,-0.010555,-0.041091,-0.009662
1951,-0.033523,-0.009543,0.004761
1952,-0.033523,-0.009543,-0.009662
1953,-0.033523,-0.025317,-0.009662
1954,0.035379,-0.041091,0.004761
1955,-0.05649,-0.009543,-0.009662
1956,0.058346,-0.009543,-0.009662
1957,0.10428,-0.025317,0.019185
1958,0.10428,-0.025317,0.004761
1959,0.081313,-0.009543,-0.009662
1960,0.10428,-0.009543,-0.009662
1961,0.012412,-0.025317,-0.024086
1962,-0.05649,-0.025317,0.004761
1963,-0.079457,-0.009543,-0.009662
1964,-0.033523,0.006231,0.004761
1965,-0.079457,-0.009543,-0.009662
1966,-0.033523,-0.009543,0.004761
1967,0.012412,0.006231,0.004761
1968,0.012412,0.006231,-0.009662
1969,-0.010555,-0.009543,-0.009662
1970,-0.033523,-0.009543,0.004761
1971,-0.033523,-0.009543,-0.009662
1972,0.012412,-0.025317,-0.009662
1973,-0.05649,-0.009543,0.004761
1974,-0.033523,-0.009543,-0.009662
1975,0.012412,-0.009543,0.004761
1976,0.012412,-0.009543,0.004761
1977,-0.033523,-0.009543,-0.024086
1978,-0.010555,0.006231,-0.009662
1979,-0.010555,-0.009543,-0.024086
1980,-0.033523,-0.025317,-0.024086
1981,0.035379,0.006231,-0.024086
1982,0.035379,-0.009543,-0.009662
1983,-0.010555,-0.009543,-0.009662
1984,0.012412,-0.009543,-0.009662
1985,0.012412,-0.009543,-0.009662
1986,0.012412,-0.025317,-0.009662
1987,0.012412,0.006231,0.004761
1988,0.012412,-0.009543,0.004761
1989,0.012412,-0.009543,0.004761
1990,0.012412,-0.025317,-0.009662
1991,0.058346,-0.009543,0.004761
1992,0.012412,-0.009543,0.019185
1993,0.012412,-0.009543,-0.009662
1994,0.012412,-0.009543,0.004761
1995,0.081313,-0.025317,-0.009662
1996,-0.010555,-0.025317,0.004761
1997,-0.079457,-0.041091,-0.024086
1998,-0.010555,-0.009543,-0.024086
1999,-0.010555,-0.009543,0.004761
2000,-0.010555,-0.009543,0.004761
2001,-0.010555,-0.025317,0.004761
2002,-0.125391,-0.009543,-0.009662
2003,0.012412,0.006231,-0.009662
2004,-0.010555,-0.025317,0.019185
2005,-0.033523,-0.025317,0.004761
2006,-0.033523,-0.025317,-0.024086
2007,0.012412,-0.025317,-0.009662
2008,0.012412,-0.025317,-0.009662
2009,-0.033523,-0.009543,0.004761
2010,0.012412,-0.009543,-0.009662
2011,0.035379,-0.009543,-0.024086
2012,0.035379,-0.041091,-0.009662
2013,0.012412,-0.009543,-0.024086
2014,-0.010555,-0.025317,-0.009662
2015,0.012412,0.006231,0.004761
2016,0.012412,-0.025317,-0.009662
2017,-0.010555,-0.009543,-0.009662
2018,0.058346,0.006231,-0.009662
2019,-0.010555,-0.009543,0.004761
2020,-0.010555,-0.041091,0.004761
2021,0.081313,-0.009543,0.004761
2022,0.058346,-0.009543,0.004761
2023,0.035379,-0.009543,-0.009662
2024,-0.010555,-0.009543,-0.024086
2025,-0.05649,-0.009543,-0.009662
2026,-0.010555,-0.009543,-0.009662
2027,-0.010555,-0.025317,-0.009662
2028,-0.010555,-0.025317,-0.03851
2029,0.035379,-0.009543,0.004761
2030,0.012412,0.022005,-0.009662
2031,0.058346,0.022005,-0.009662
2032,-0.010555,0.022005,-0.009662
2033,-0.010555,0.022005,0.004761
2034,0.012412,-0.009543,0.004761
2035,-0.05649,-0.056865,-0.009662
2036,-0.05649,-0.056865,-0.009662
2037,-0.010555,-0.025317,0.004761
2038,-0.010555,-0.009543,-0.024086
2039,-0.05649,0.006231,0.004761
2040,0.012412,-0.009543,-0.009662
2041,0.035379,-0.009543,0.004761
2042,0.012412,0.006231,-0.009662
2043,0.035379,-0.025317,-0.024086
2044,0.012412,-0.009543,-0.024086
2045,0.012412,-0.025317,-0.009662
2046,0.035379,-0.009543,-0.009662
2047,-0.010555,-0.009543,-0.024086
2048,-0.010555,-0.025317,0.004761
2049,0.035379,0.006231,0.004761
2050,0.035379,-0.041091,0.004761
2051,-0.010555,-0.009543,0.004761
2052,0.012412,0.006231,-0.009662
2053,0.10428,-0.009543,-0.009662
2054,-0.010555,-0.009543,0.004761
2055,0.035379,0.006231,-0.009662
2056,-0.033523,0.006231,-0.024086
2057,-0.05649,-0.009543,-0.009662
2058,0.012412,-0.009543,-0.009662
2059,-0.05649,-0.025317,0.004761
2060,-0.033523,-0.009543,0.004761
2061,0.012412,0.006231,-0.009662
2062,-0.033523,0.006231,-0.009662
2063,0.035379,-0.009543,-0.009662
2064,-0.010555,-0.009543,0.004761
2065,-0.033523,-0.009543,-0.009662
2066,-0.079457,-0.041091,-0.024086
2067,-0.010555,0.006231,-0.009662
2068,-0.010555,0.006231,-0.009662
2069,0.012412,-0.009543,-0.009662
2070,0.035379,-0.009543,-0.009662
2071,-0.010555,-0.009543,0.004761
2072,0.081313,-0.025317,0.004761
2073,-0.010555,-0.025317,-0.009662
2074,0.012412,-0.025317,0.004761
2075,0.012412,-0.025317,0.004761
2076,0.035379,0.006231,-0.009662
2077,0.012412,-0.009543,-0.024086
2078,0.012412,-0.025317,-0.024086
2079,0.012412,-0.009543,-0.009662
2080,-0.010555,-0.009543,-0.009662
2081,0.035379,-0.009543,-0.024086
2082,0.012412,0.006231,-0.009662
2083,0.081313,-0.009543,-0.009662
2084,0.035379,-0.025317,0.004761
2085,0.012412,0.022005,0.004761
2086,-0.010555,0.006231,-0.009662
2087,-0.033523,-0.009543,0.004761
2088,-0.033523,-0.009543,-0.009662
2089,-0.010555,-0.009543,0.004761
2090,-0.010555,0.006231,-0.024086
2091,0.012412,-0.025317,-0.009662
2092,0.012412,-0.009543,0.004761
2093,-0.05649,0.006231,0.004761
2094,0.012412,-0.009543,0.004761
2095,0.035379,0.022005,0.004761
2096,0.081313,0.006231,0.004761
2097,0.012412,-0.025317,0.004761
2098,0.012412,0.006231,0.019185
2099,0.035379,-0.009543,0.004761
2100,0.035379,-0.009543,0.004761
2101,-0.010555,-0.025317,-0.024086
2102,0.012412,-0.009543,-0.009662
2103,-0.010555,0.006231,-0.009662
2104,0.058346,-0.009543,0.004761
2105,-0.010555,-0.009543,0.004761
2106,0.012412,-0.009543,-0.009662
2107,0.012412,-0.009543,-0.009662
2108,-0.010555,-0.025317,-0.009662
2109,0.012412,-0.009543,-0.009662
2110,0.012412,-0.009543,0.004761
2111,0.012412,-0.009543,0.004761
2112,-0.033523,-0.009543,-0.009662
2113,-0.010555,-0.009543,-0.009662
2114,-0.033523,-0.025317,-0.009662
2115,-0.033523,0.022005,-0.009662
2116,-0.033523,-0.009543,-0.009662
2117,0.058346,-0.025317,-0.009662
2118,-0.010555,-0.009543,0.004761
2119,-0.010555,-0.025317,0.004761
2120,-0.033523,0.006231,-0.009662
2121,-0.010555,0.006231,0.004761
2122,0.012412,-0.009543,0.004761
2123,0.012412,-0.009543,0.004761
2124,-0.033523,-0.009543,0.019185
2125,0.035379,-0.009543,-0.009662
2126,0.035379,0.006231,0.004761
2127,0.012412,-0.041091,0.004761
2128,0.058346,0.006231,0.004761
2129,-0.010555,-0.009543,0.004761
2130,0.035379,-0.009543,-0.009662
2131,-0.010555,0.006231,0.019185
2132,-0.010555,0.006231,-0.024086
2133,0.081313,-0.009543,-0.024086
2134,0.035379,-0.009543,-0.024086
2135,0.012412,-0.025317,0.004761
2136,0.012412,-0.009543,-0.009662
2137,0.035379,-0.009543,-0.009662
2138,0.035379,-0.025317,-0.009662
2139,-0.033523,-0.009543,0.004761
2140,0.058346,-0.009543,0.004761
2141,-0.033523,-0.025317,-0.009662
2142,-0.010555,-0.009543,0.019185
2143,0.012412,0.006231,0.019185
2144,-0.05649,0.006231,-0.009662
2145,-0.05649,-0.009543,0.004761
2146,-0.05649,-0.009543,-0.009662
2147,-0.079457,-0.025317,-0.024086
2148,0.012412,-0.041091,-0.009662
2149,0.035379,-0.025317,-0.024086
2150,-0.010555,-0.025317,-0.009662
2151,0.012412,-0.009543,0.004761
2152,0.058346,-0.025317,-0.009662
2153,0.012412,-0.009543,-0.024086
2154,-0.010555,-0.009543,0.004761
2155,0.035379,-0.025317,-0.009662
2156,0.012412,0.006231,0.004761
2157,0.012412,-0.025317,-0.009662
2158,-0.010555,-0.025317,-0.009662
2159,-0.033523,0.006231,-0.009662
2160,-0.010555,-0.009543,-0.009662
2161,-0.033523,0.006231,0.004761
2162,0.012412,-0.009543,-0.009662
2163,0.035379,0.006231,0.004761
2164,0.035379,-0.009543,-0.009662
2165,-0.010555,-0.009543,0.004761
2166,-0.033523,0.006231,0.004761
2167,0.012412,-0.025317,0.004761
2168,0.012412,0.006231,-0.009662
2169,-0.010555,-0.025317,0.019185
2170,-0.010555,-0.009543,0.004761
2171,-0.010555,-0.025317,-0.009662
2172,-0.033523,-0.009543,0.004761
2173,0.035379,-0.009543,0.019185
2174,-0.010555,-0.025317,0.004761
2175,-0.033523,-0.009543,0.019185
2176,0.058346,0.006231,-0.009662
2177,-0.010555,-0.009543,0.004761
2178,0.035379,-0.009543,-0.009662
2179,0.035379,-0.009543,-0.009662
2180,-0.010555,-0.025317,-0.009662
2181,-0.125391,-0.041091,-0.03851
2182,-0.010555,-0.009543,-0.009662
2183,0.012412,0.006231,-0.009662
2184,0.058346,0.022005,0.004761
2185,0.058346,-0.009543,-0.009662
2186,0.012412,-0.009543,0.004761
2187,-0.033523,-0.025317,-0.009662
2188,-0.010555,-0.009543,0.004761
2189,-0.033523,-0.025317,-0.009662
2190,0.035379,-0.009543,-0.009662
2191,0.012412,-0.009543,-0.009662
2192,0.035379,0.006231,-0.009662
2193,-0.010555,-0.025317,-0.024086
2194,-0.010555,-0.009543,-0.009662
2195,0.012412,-0.025317,-0.009662
2196,-0.010555,0.006231,-0.009662
2197,-0.010555,-0.009543,-0.009662
2198,-0.010555,-0.025317,-0.009662
2199,0.012412,-0.025317,0.004761
2200,-0.033523,0.006231,0.004761
2201,0.012412,-0.025317,0.004761
2202,-0.010555,-0.025317,-0.009662
2203,-0.033523,-0.009543,-0.024086
2204,-0.033523,-0.009543,0.004761
2205,-0.010555,-0.009543,-0.009662
2206,0.012412,-0.009543,0.004761
2207,-0.010555,-0.025317,-0.009662
2208,-0.010555,-0.025317,0.004761
2209,0.035379,-0.041091,-0.009662
2210,0.058346,-0.009543,0.019185
2211,0.058346,0.006231,0.004761
2212,-0.033523,0.022005,0.019185
2213,0.012412,0.03778,-0.009662
2214,0.012412,0.006231,-0.009662
2215,0.012412,0.006231,-0.009662
2216,0.035379,-0.009543,-0.009662
2217,-0.05649,-0.072639,-0.024086
2218,-0.033523,-0.041091,0.004761
2219,0.058346,-0.025317,0.004761
2220,0.058346,-0.025317,0.004761
2221,0.081313,-0.025317,0.019185
2222,0.012412,0.006231,0.019185
2223,0.012412,-0.009543,-0.009662
2224,-0.010555,-0.025317,-0.009662
2225,-0.05649,-0.009543,0.004761
2226,0.012412,0.022005,-0.009662
2227,-0.033523,0.006231,0.004761
2228,-0.033523,-0.025317,-0.024086
2229,-0.033523,0.006231,-0.009662
2230,-0.033523,-0.041091,-0.009662
2231,-0.033523,-0.009543,0.004761
2232,0.058346,-0.009543,-0.03851
2233,-0.010555,-0.025317,-0.009662
2234,0.035379,-0.009543,-0.009662
2235,0.035379,-0.025317,-0.009662
2236,-0.010555,-0.009543,-0.009662
2237,-0.010555,-0.009543,-0.009662
2238,0.012412,-0.009543,-0.009662
2239,0.035379,-0.009543,-0.009662
2240,0.081313,0.006231,0.004761
2241,0.058346,-0.009543,-0.009662
2242,0.012412,-0.009543,-0.009662
2243,-0.010555,-0.025317,-0.024086
2244,-0.010555,-0.009543,-0.009662
2245,0.012412,-0.009543,0.004761
2246,0.012412,0.006231,-0.009662
2247,-0.033523,-0.009543,-0.009662
2248,0.035379,-0.025317,0.004761
2249,0.012412,-0.009543,0.019185
2250,0.012412,-0.025317,-0.009662
2251,-0.05649,-0.009543,-0.024086
2252,-0.010555,-0.025317,-0.009662
2253,-0.033523,-0.009543,-0.024086
2254,0.035379,-0.009543,-0.024086
2255,0.012412,-0.041091,-0.024086
2256,-0.010555,-0.009543,-0.009662
2257,0.035379,-0.009543,-0.009662
2258,-0.010555,-0.025317,0.019185
2259,-0.079457,-0.009543,0.019185
2260,0.035379,-0.009543,0.019185
2261,0.012412,-0.025317,0.004761
2262,-0.033523,-0.009543,0.004761
2263,-0.033523,-0.009543,-0.024086
2264,0.012412,-0.025317,0.004761
2265,0.035379,0.006231,0.004761
2266,-0.05649,0.006231,0.004761
2267,0.058346,0.006231,-0.009662
2268,0.035379,-0.025317,-0.024086
2269,-0.010555,-0.025317,-0.03851
2270,0.012412,-0.041091,-0.03851
2271,0.035379,-0.025317,-0.024086
2272,0.012412,0.006231,-0.009662
2273,0.012412,0.006231,0.004761
2274,-0.010555,-0.041091,-0.009662
2275,0.035379,-0.009543,0.004761
2276,0.012412,-0.009543,-0.024086
2277,-0.010555,-0.009543,-0.009662
2278,-0.010555,-0.009543,0.048033
2279,0.012412,0.006231,-0.024086
2280,0.035379,-0.009543,-0.009662
2281,-0.033523,-0.009543,0.004761
2282,-0.010555,-0.009543,-0.009662
2283,0.058346,-0.009543,0.004761
2284,-0.010555,-0.009543,-0.009662
2285,-0.010555,-0.009543,-0.009662
2286,-0.05649,0.006231,0.048033
2287,-0.010555,-0.009543,-0.009662
2288,-0.033523,0.006231,0.019185
2289,-0.033523,-0.041091,0.004761
2290,-0.05649,-0.009543,0.019185
2291,0.035379,-0.025317,0.004761
2292,0.012412,0.006231,0.004761
2293,0.012412,-0.009543,0.004761
2294,0.035379,-0.009543,0.019185
2295,0.012412,-0.009543,-0.009662
2296,-0.010555,0.006231,-0.009662
2297,-0.010555,-0.009543,-0.009662
2298,-0.033523,-0.041091,-0.009662
2299,-0.033523,-0.025317,0.004761
2300,-0.033523,-0.041091,0.004761
2301,-0.010555,-0.009543,0.004761
2302,-0.010555,-0.009543,0.004761
2303,0.081313,-0.025317,0.004761
2304,0.035379,-0.025317,0.004761
2305,0.058346,-0.041091,0.004761
2306,0.10428,-0.009543,0.004761
2307,0.081313,0.006231,0.019185
2308,0.012412,-0.009543,-0.009662
2309,-0.033523,-0.025317,0.048033
2310,0.035379,-0.009543,-0.052934
2311,0.012412,-0.009543,-0.009662
2312,0.035379,-0.025317,-0.024086
2313,0.012412,-0.009543,-0.024086
2314,-0.010555,-0.009543,-0.009662
2315,0.012412,-0.009543,0.004761
2316,-0.033523,0.006231,0.019185
2317,0.012412,-0.009543,0.004761
2318,0.035379,-0.009543,0.004761
2319,0.012412,-0.025317,-0.009662
2320,0.012412,-0.025317,-0.009662
2321,0.012412,-0.009543,0.004761
2322,0.012412,0.006231,-0.009662
2323,-0.033523,-0.009543,-0.009662
2324,-0.010555,0.006231,-0.009662
2325,-0.05649,-0.025317,-0.024086
2326,-0.05649,-0.025317,0.004761
2327,0.035379,-0.025317,-0.024086
2328,-0.010555,-0.009543,0.004761
2329,0.058346,0.022005,0.019185
2330,0.012412,-0.009543,-0.009662
2331,0.035379,-0.009543,-0.009662
2332,-0.033523,-0.009543,-0.03851
2333,0.012412,0.006231,-0.009662
2334,0.058346,-0.009543,-0.009662
2335,-0.010555,0.006231,0.033609
2336,0.012412,-0.025317,0.004761
2337,0.058346,-0.009543,0.004761
2338,0.058346,0.006231,0.019185
2339,0.035379,-0.009543,-0.009662
2340,0.012412,-0.025317,0.004761
2341,-0.033523,-0.009543,0.004761
2342,-0.010555,-0.009543,0.019185
2343,-0.033523,-0.025317,-0.009662
2344,-0.079457,-0.025317,0.004761
2345,0.012412,0.006231,-0.009662
2346,-0.033523,0.006231,0.004761
2347,-0.033523,0.006231,0.019185
2348,-0.033523,-0.025317,0.019185
2349,0.012412,-0.009543,0.004761
2350,-0.010555,-0.009543,-0.009662
2351,-0.033523,-0.056865,-0.009662
2352,0.012412,-0.025317,-0.024086
2353,0.058346,-0.009543,-0.009662
2354,-0.010555,-0.025317,-0.009662
2355,-0.05649,-0.009543,-0.009662
2356,0.035379,-0.009543,-0.009662
2357,-0.010555,-0.025317,0.004761
2358,0.035379,-0.009543,0.004761
2359,0.012412,-0.009543,0.019185
2360,-0.033523,-0.025317,0.004761
2361,0.035379,-0.009543,0.004761
2362,0.035379,-0.009543,-0.009662
2363,-0.010555,-0.009543,0.019185
2364,0.035379,-0.009543,0.004761
2365,0.012412,-0.009543,-0.009662
2366,0.012412,-0.009543,-0.009662
2367,-0.010555,0.006231,-0.024086
2368,0.035379,-0.025317,0.004761
2369,0.058346,-0.041091,-0.009662
2370,0.012412,-0.025317,0.004761
2371,-0.010555,-0.009543,0.004761
2372,0.012412,0.006231,0.019185
2373,0.035379,-0.009543,0.019185
2374,-0.010555,-0.041091,-0.009662
2375,0.012412,0.006231,-0.009662
2376,0.012412,0.006231,0.004761
2377,0.035379,-0.009543,-0.009662
2378,0.012412,-0.009543,0.004761
2379,0.058346,-0.009543,-0.009662
2380,0.035379,0.006231,-0.009662
2381,-0.010555,-0.009543,0.004761
2382,0.012412,-0.025317,-0.009662
2383,-0.010555,-0.009543,0.004761
2384,-0.033523,-0.025317,0.019185
2385,-0.05649,-0.009543,0.004761
2386,-0.033523,-0.009543,0.019185
2387,-0.033523,-0.056865,0.019185
2388,0.058346,-0.025317,0.004761
2389,0.035379,-0.025317,-0.009662
2390,-0.033523,-0.025317,0.019185
2391,0.035379,-0.009543,-0.009662
2392,-0.033523,-0.025317,-0.009662
2393,0.035379,-0.009543,-0.024086
2394,-0.05649,-0.025317,-0.009662
2395,-0.010555,-0.009543,0.004761
2396,0.012412,-0.025317,-0.009662
2397,0.035379,0.006231,0.004761
2398,0.012412,-0.009543,-0.009662
2399,-0.033523,0.006231,-0.009662
2400,0.012412,-0.009543,-0.024086
2401,0.081313,-0.009543,-0.009662
2402,0.058346,-0.009543,-0.024086
2403,0.127248,-0.009543,-0.009662
2404,0.035379,-0.025317,0.004761
2405,-0.05649,-0.025317,0.004761
2406,-0.010555,-0.009543,-0.009662
2407,0.058346,-0.009543,0.004761
2408,0.035379,-0.009543,-0.024086
2409,-0.010555,-0.025317,0.004761
2410,-0.05649,-0.025317,-0.024086
2411,-0.05649,-0.025317,-0.009662
2412,0.012412,-0.009543,-0.009662
2413,0.012412,-0.009543,-0.009662
2414,-0.033523,-0.009543,-0.009662
2415,0.012412,-0.009543,0.004761
2416,-0.033523,-0.009543,0.019185
2417,0.012412,0.006231,0.004761
2418,-0.033523,0.022005,0.004761
2419,-0.033523,0.006231,0.019185
2420,0.035379,0.006231,0.033609
2421,-0.033523,0.006231,0.019185
2422,0.035379,0.006231,0.004761
2423,0.012412,-0.009543,-0.009662
2424,0.035379,-0.025317,-0.024086
2425,-0.033523,-0.025317,-0.024086
2426,0.012412,-0.041091,-0.03851
2427,-0.033523,-0.009543,-0.024086
2428,-0.010555,0.022005,-0.03851
2429,0.012412,-0.025317,-0.024086
2430,0.058346,-0.025317,-0.024086
2431,0.035379,-0.009543,-0.024086
2432,0.012412,-0.041091,-0.009662
2433,-0.05649,-0.025317,-0.009662
2434,-0.033523,-0.025317,-0.009662
2435,-0.033523,-0.025317,-0.009662
2436,-0.010555,0.006231,0.004761
2437,-0.010555,-0.025317,0.004761
2438,0.012412,-0.009543,-0.009662
2439,0.058346,-0.009543,0.004761
2440,0.012412,-0.009543,0.019185
2441,-0.010555,-0.009543,-0.009662
2442,-0.102424,-0.009543,0.004761
2443,0.012412,0.006231,-0.009662
2444,0.012412,-0.009543,0.019185
2445,-0.079457,-0.025317,-0.024086
2446,0.058346,0.022005,0.004761
2447,-0.010555,-0.009543,0.019185
2448,-0.033523,-0.009543,0.004761
2449,-0.010555,0.006231,-0.009662
2450,0.012412,-0.025317,0.004761
2451,0.058346,0.006231,0.004761
2452,-0.079457,-0.025317,-0.009662
2453,-0.010555,0.006231,0.004761
2454,-0.010555,-0.009543,0.004761
2455,0.012412,-0.025317,0.004761
2456,0.012412,-0.009543,0.004761
2457,0.081313,-0.009543,0.004761
2458,-0.010555,-0.009543,-0.009662
2459,0.058346,-0.025317,-0.009662
2460,0.035379,-0.009543,0.004761
2461,0.035379,-0.009543,0.004761
2462,0.035379,0.006231,-0.009662
2463,0.012412,0.006231,-0.009662
2464,0.058346,0.006231,-0.009662
2465,0.058346,-0.025317,-0.024086
2466,-0.010555,-0.025317,-0.009662
2467,0.035379,-0.025317,-0.024086
2468,0.012412,-0.025317,-0.009662
2469,0.035379,-0.009543,-0.009662
2470,0.035379,-0.041091,-0.024086
2471,-0.010555,-0.009543,-0.009662
2472,-0.010555,-0.025317,-0.009662
2473,0.012412,0.006231,-0.009662
2474,0.035379,0.006231,-0.009662
2475,-0.033523,-0.025317,-0.009662
2476,-0.010555,-0.025317,-0.009662
2477,0.012412,-0.025317,0.004761
2478,-0.010555,-0.009543,0.004761
2479,-0.033523,0.006231,-0.009662
2480,-0.033523,-0.025317,-0.024086
2481,-0.033523,0.006231,-0.009662
2482,0.058346,-0.009543,0.004761
2483,-0.010555,-0.009543,-0.009662
2484,0.035379,-0.041091,0.004761
2485,-0.010555,0.022005,-0.024086
2486,0.035379,0.006231,-0.009662
2487,-0.05649,-0.009543,0.004761
2488,-0.010555,0.006231,0.019185
2489,-0.010555,-0.025317,0.004761
2490,0.035379,0.006231,-0.009662
2491,0.012412,-0.009543,-0.009662
2492,0.012412,-0.025317,-0.009662
2493,0.035379,0.006231,-0.009662
2494,0.012412,-0.009543,-0.009662
2495,-0.010555,-0.025317,-0.009662
2496,0.058346,-0.025317,0.004761
2497,0.012412,-0.009543,-0.009662
2498,0.035379,-0.009543,0.004761
2499,-0.010555,-0.009543,-0.009662
2500,0.012412,0.006231,0.004761
2501,0.035379,0.006231,-0.009662
2502,0.058346,0.006231,0.004761
2503,-0.010555,-0.025317,0.019185
2504,-0.079457,-0.009543,0.019185
2505,-0.033523,-0.025317,0.004761
2506,0.012412,-0.025317,-0.024086
2507,-0.033523,0.006231,-0.03851
2508,0.012412,-0.009543,-0.024086
2509,-0.010555,-0.025317,-0.009662
2510,0.012412,-0.009543,-0.009662
2511,0.058346,-0.009543,0.004761
2512,0.058346,-0.025317,-0.009662
2513,0.058346,0.006231,-0.009662
2514,-0.033523,0.006231,0.004761
2515,-0.033523,-0.009543,-0.009662
2516,-0.010555,-0.025317,-0.009662
2517,-0.010555,-0.009543,-0.009662
2518,-0.010555,-0.009543,0.004761
2519,0.012412,-0.009543,0.004761
2520,-0.010555,0.006231,-0.009662
2521,0.012412,-0.009543,-0.009662
2522,0.035379,-0.025317,0.004761
2523,0.035379,-0.025317,0.004761
2524,0.035379,-0.009543,0.004761
2525,-0.033523,-0.009543,0.004761
2526,-0.010555,-0.009543,-0.009662
2527,0.012412,0.006231,0.004761
2528,0.058346,0.006231,0.004761
2529,0.012412,-0.025317,0.004761
2530,-0.010555,-0.025317,-0.024086
2531,-0.010555,-0.025317,-0.009662
2532,0.012412,-0.025317,-0.009662
2533,-0.033523,-0.025317,-0.024086
2534,-0.033523,-0.009543,-0.009662
2535,0.012412,0.006231,-0.009662
2536,-0.033523,-0.009543,-0.009662
2537,-0.05649,-0.009543,-0.009662
2538,-0.033523,-0.025317,0.004761
2539,-0.010555,-0.009543,0.004761
2540,0.012412,-0.009543,-0.024086
2541,-0.05649,-0.009543,-0.009662
2542,-0.05649,-0.009543,-0.009662
2543,-0.010555,-0.025317,-0.009662
2544,0.035379,-0.009543,-0.009662
2545,0.012412,-0.009543,-0.009662
2546,-0.010555,-0.009543,0.004761
2547,0.035379,-0.025317,-0.024086
2548,-0.010555,-0.025317,-0.009662
2549,-0.010555,-0.009543,-0.024086
2550,0.012412,-0.009543,0.004761
2551,0.035379,0.006231,0.004761
2552,0.035379,-0.009543,0.004761
2553,-0.010555,-0.025317,0.004761
2554,0.058346,-0.009543,0.004761
2555,0.012412,-0.009543,-0.024086
2556,-0.05649,-0.009543,0.004761
2557,-0.010555,-0.025317,-0.009662
2558,0.058346,-0.009543,-0.009662
2559,0.035379,-0.009543,0.004761
2560,0.012412,-0.009543,-0.009662
2561,0.012412,-0.009543,0.004761
2562,0.035379,0.006231,-0.009662
2563,0.012412,-0.025317,0.004761
2564,0.012412,-0.009543,0.004761
2565,-0.033523,0.022005,0.033609
2566,-0.05649,0.006231,0.019185
2567,0.012412,-0.009543,0.019185
2568,0.035379,-0.009543,-0.009662
2569,-0.033523,0.006231,0.004761
2570,-0.033523,-0.009543,0.004761
2571,-0.033523,-0.025317,0.004761
2572,-0.033523,-0.025317,0.004761
2573,0.035379,0.006231,0.004761
2574,-0.010555,-0.009543,0.004761
2575,0.035379,0.006231,0.004761
2576,-0.033523,-0.009543,-0.024086
2577,0.012412,0.022005,-0.009662
2578,-0.05649,-0.025317,-0.009662
2579,-0.010555,-0.025317,-0.009662
2580,-0.033523,-0.009543,-0.009662
2581,0.035379,-0.025317,-0.024086
2582,0.012412,-0.009543,-0.009662
2583,0.035379,-0.041091,0.004761
2584,-0.010555,-0.025317,-0.024086
2585,-0.033523,-0.009543,-0.009662
2586,0.058346,-0.009543,-0.009662
2587,0.035379,-0.009543,0.004761
2588,-0.033523,-0.025317,0.004761
2589,0.058346,-0.009543,0.004761
2590,-0.010555,-0.025317,-0.009662
2591,0.035379,-0.025317,0.004761
2592,-0.033523,-0.025317,-0.009662
2593,0.035379,0.006231,0.004761
2594,0.012412,-0.009543,0.004761
2595,-0.033523,-0.025317,-0.009662
2596,-0.05649,-0.025317,0.004761
2597,-0.033523,0.006231,-0.009662
2598,-0.033523,0.006231,0.004761
2599,-0.033523,-0.009543,0.004761
2600,0.012412,-0.009543,0.004761
2601,-0.010555,-0.009543,-0.024086
2602,0.012412,0.006231,-0.009662
2603,-0.033523,0.006231,-0.009662
2604,-0.010555,-0.009543,0.004761
2605,0.012412,0.006231,0.004761
2606,0.012412,-0.009543,-0.009662
2607,-0.033523,-0.009543,-0.009662
2608,0.035379,-0.025317,0.004761
2609,0.058346,-0.009543,0.004761
2610,0.035379,-0.009543,0.004761
2611,0.058346,-0.025317,0.004761
2612,0.035379,-0.025317,0.004761
2613,0.012412,-0.009543,-0.009662
2614,-0.010555,-0.025317,-0.009662
2615,-0.010555,-0.009543,0.004761
2616,0.035379,0.022005,0.004761
2617,0.012412,-0.009543,0.004761
2618,-0.010555,-0.009543,-0.009662
2619,-0.010555,-0.009543,-0.009662
2620,0.035379,-0.025317,-0.024086
2621,0.012412,-0.041091,-0.024086
2622,0.081313,-0.025317,-0.009662
2623,-0.010555,-0.009543,-0.009662
2624,0.035379,-0.009543,0.004761
2625,0.012412,0.006231,0.019185
2626,-0.033523,-0.025317,0.004761
2627,-0.033523,-0.009543,-0.009662
2628,-0.010555,-0.009543,-0.009662
2629,-0.010555,-0.009543,-0.009662
2630,-0.033523,-0.009543,-0.009662
2631,-0.033523,0.022005,-0.009662
2632,-0.033523,-0.009543,0.004761
2633,-0.033523,-0.009543,0.019185
2634,-0.033523,-0.009543,0.019185
2635,-0.010555,-0.025317,-0.009662
2636,0.035379,-0.009543,-0.009662
2637,0.035379,0.006231,0.004761
2638,-0.033523,-0.009543,0.004761
2639,-0.010555,-0.025317,-0.009662
2640,-0.010555,-0.009543,-0.009662
2641,0.035379,-0.009543,0.004761
2642,0.012412,-0.009543,-0.009662
2643,0.012412,0.006231,-0.009662
2644,0.012412,-0.025317,-0.024086
2645,0.035379,-0.009543,0.019185
2646,0.035379,-0.009543,-0.024086
2647,0.012412,-0.041091,-0.024086
2648,0.012412,0.006231,-0.024086
2649,-0.033523,0.022005,-0.024086
2650,-0.010555,-0.009543,-0.009662
2651,-0.010555,-0.009543,-0.009662
2652,0.012412,-0.009543,0.004761
2653,0.035379,0.006231,-0.009662
2654,-0.033523,-0.009543,0.004761
2655,0.012412,-0.009543,0.004761
2656,0.012412,0.006231,0.004761
2657,-0.033523,-0.009543,-0.009662
2658,-0.033523,-0.009543,0.004761
2659,-0.033523,-0.025317,0.004761
2660,0.012412,-0.025317,-0.009662
2661,0.035379,-0.025317,-0.009662
2662,-0.010555,-0.025317,0.004761
2663,-0.102424,0.022005,0.004761
2664,-0.010555,-0.009543,-0.024086
2665,-0.010555,-0.009543,-0.009662
2666,-0.05649,-0.009543,0.004761
2667,-0.05649,-0.009543,-0.009662
2668,-0.010555,-0.041091,0.004761
2669,-0.079457,-0.009543,0.004761
2670,-0.033523,-0.025317,0.004761
2671,0.035379,0.006231,0.019185
2672,0.058346,0.006231,0.019185
2673,0.035379,0.022005,0.004761
2674,0.012412,-0.009543,0.004761
2675,0.012412,-0.041091,0.004761
2676,0.058346,-0.009543,-0.009662
2677,0.035379,0.006231,-0.024086
2678,0.012412,0.022005,0.004761
2679,0.035379,-0.009543,0.004761
2680,0.035379,0.006231,-0.009662
2681,-0.010555,-0.025317,-0.024086
2682,0.012412,0.006231,-0.024086
2683,0.035379,0.006231,-0.024086
2684,0.012412,-0.009543,0.004761
2685,-0.05649,-0.025317,-0.009662
2686,0.058346,-0.009543,-0.009662
2687,0.012412,-0.025317,-0.009662
2688,-0.010555,-0.009543,-0.024086
2689,-0.010555,-0.025317,0.004761
2690,-0.010555,-0.025317,-0.024086
2691,0.035379,-0.009543,0.004761
2692,0.012412,-0.009543,-0.009662
2693,0.012412,-0.025317,-0.009662
2694,-0.010555,-0.009543,-0.009662
2695,-0.033523,0.006231,0.004761
2696,-0.033523,0.006231,0.004761
2697,-0.033523,-0.009543,0.004761
2698,0.058346,-0.009543,-0.03851
2699,0.012412,0.006231,0.004761
2700,-0.079457,0.006231,-0.009662
2701,-0.010555,-0.009543,-0.009662
2702,0.012412,-0.009543,0.004761
2703,0.081313,-0.009543,-0.009662
2704,0.012412,0.006231,0.004761
2705,0.035379,-0.009543,0.004761
2706,0.012412,-0.009543,0.004761
2707,-0.010555,-0.025317,0.004761
2708,-0.033523,0.006231,-0.009662
2709,-0.010555,-0.009543,0.004761
2710,0.012412,-0.025317,0.019185
2711,0.012412,-0.009543,0.004761
2712,-0.010555,-0.009543,0.004761
2713,0.035379,-0.025317,0.019185
2714,0.058346,0.006231,-0.009662
2715,0.10428,0.006231,0.004761
2716,0.035379,0.006231,0.004761
2717,0.058346,0.006231,0.019185
2718,-0.010555,-0.025317,-0.009662
2719,0.127248,-0.009543,-0.009662
2720,-0.033523,0.006231,-0.009662
2721,0.012412,-0.009543,0.019185
2722,-0.033523,0.006231,-0.009662
2723,-0.010555,-0.009543,-0.009662
2724,-0.05649,-0.009543,-0.024086
2725,0.012412,-0.009543,-0.009662
2726,0.035379,-0.009543,-0.009662
2727,-0.010555,-0.009543,0.004761
2728,-0.033523,-0.025317,-0.024086
2729,0.012412,-0.009543,-0.024086
2730,-0.033523,-0.025317,-0.009662
2731,-0.05649,-0.009543,-0.009662
2732,0.035379,-0.025317,-0.024086
2733,0.012412,-0.025317,-0.009662
2734,0.035379,-0.009543,0.004761
2735,-0.05649,-0.009543,0.004761
2736,0.035379,0.006231,-0.009662
2737,0.035379,-0.009543,-0.009662
2738,0.058346,-0.025317,-0.009662
2739,-0.010555,-0.009543,-0.009662
2740,-0.010555,-0.009543,-0.009662
2741,0.035379,-0.025317,0.004761
2742,-0.010555,-0.009543,0.004761
2743,0.012412,0.006231,0.004761
2744,0.035379,-0.009543,-0.009662
2745,0.081313,-0.009543,0.004761
2746,0.035379,-0.009543,0.004761
2747,-0.033523,-0.009543,0.004761
2748,0.012412,-0.009543,-0.009662
2749,-0.010555,-0.009543,-0.024086
2750,-0.05649,-0.025317,-0.009662
2751,-0.010555,-0.009543,0.004761
2752,-0.102424,-0.025317,0.004761
2753,0.012412,-0.009543,0.019185
2754,-0.033523,-0.009543,0.019185
2755,-0.010555,-0.025317,0.019185
2756,-0.010555,0.022005,0.033609
2757,-0.010555,0.006231,0.004761
2758,-0.033523,0.006231,0.004761
2759,0.035379,-0.009543,0.004761
2760,0.035379,-0.025317,-0.009662
2761,0.035379,-0.025317,-0.024086
2762,0.012412,-0.009543,-0.009662
2763,0.035379,-0.025317,-0.052934
2764,-0.010555,-0.025317,-0.024086
2765,0.035379,-0.041091,-0.024086
2766,0.012412,0.006231,-0.03851
2767,0.012412,-0.009543,0.004761
2768,0.058346,0.006231,0.004761
2769,0.012412,-0.009543,-0.009662
2770,0.035379,-0.025317,0.004761
2771,-0.010555,-0.009543,0.004761
2772,0.012412,-0.009543,-0.024086
2773,-0.010555,-0.025317,-0.009662
2774,-0.079457,-0.009543,-0.009662
2775,0.058346,-0.009543,-0.024086
2776,0.012412,0.022005,0.004761
2777,0.035379,-0.025317,-0.009662
2778,0.127248,-0.009543,0.004761
2779,-0.010555,0.006231,0.004761
2780,-0.010555,0.006231,0.004761
2781,-0.05649,0.006231,0.004761
2782,-0.033523,0.006231,-0.009662
2783,0.058346,-0.025317,-0.024086
2784,-0.010555,-0.009543,0.004761
2785,-0.010555,-0.009543,0.019185
2786,-0.033523,-0.009543,0.004761
2787,-0.033523,-0.025317,0.004761
2788,0.012412,-0.009543,-0.009662
2789,0.012412,0.006231,-0.024086
2790,0.012412,-0.009543,0.004761
2791,-0.010555,-0.025317,-0.009662
2792,-0.010555,-0.025317,0.004761
2793,-0.033523,-0.009543,-0.009662
2794,0.058346,-0.025317,-0.009662
2795,0.035379,-0.009543,0.004761
2796,0.058346,-0.041091,0.004761
2797,-0.010555,0.006231,-0.009662
2798,0.012412,-0.009543,-0.009662
2799,0.035379,-0.009543,0.004761
2800,-0.033523,-0.009543,-0.009662
2801,-0.010555,-0.009543,-0.009662
2802,0.081313,0.006231,0.004761
2803,-0.033523,0.006231,0.004761
2804,-0.033523,-0.025317,-0.009662
2805,-0.033523,-0.009543,0.004761
2806,0.012412,0.006231,-0.024086
2807,-0.010555,-0.009543,-0.009662
2808,-0.010555,-0.025317,0.004761
2809,-0.033523,-0.009543,-0.009662
2810,-0.010555,0.006231,-0.024086
2811,-0.033523,-0.009543,-0.024086
2812,0.012412,-0.025317,0.004761
2813,0.035379,-0.009543,0.004761
2814,0.012412,0.006231,0.004761
2815,-0.033523,-0.009543,-0.009662
2816,-0.102424,-0.025317,-0.009662
2817,-0.05649,-0.009543,-0.009662
2818,-0.033523,-0.009543,-0.009662
2819,-0.010555,-0.025317,0.019185
2820,-0.010555,-0.025317,0.019185
2821,0.012412,0.022005,0.004761
2822,0.035379,-0.041091,0.004761
2823,0.081313,-0.025317,-0.009662
2824,0.058346,-0.009543,0.004761
2825,0.012412,-0.009543,0.004761
2826,0.035379,0.006231,0.004761
2827,0.058346,-0.009543,0.019185
2828,0.127248,0.006231,0.019185
2829,0.012412,-0.025317,-0.009662
2830,-0.010555,-0.025317,-0.024086
2831,-0.010555,-0.025317,-0.009662
2832,-0.033523,0.006231,-0.009662
2833,0.035379,-0.009543,0.004761
2834,0.012412,-0.025317,0.019185
2835,0.012412,0.006231,-0.009662
2836,-0.010555,-0.009543,0.004761
2837,0.012412,-0.009543,0.004761
2838,-0.010555,-0.009543,0.004761
2839,-0.010555,0.006231,-0.009662
2840,-0.010555,-0.025317,-0.009662
2841,-0.05649,-0.009543,0.004761
2842,-0.079457,-0.009543,-0.009662
2843,-0.010555,-0.025317,-0.009662
2844,0.012412,-0.025317,-0.009662
2845,0.058346,0.022005,-0.009662
2846,-0.033523,-0.009543,0.004761
2847,-0.010555,-0.025317,-0.009662
2848,0.035379,-0.025317,-0.009662
2849,0.035379,-0.025317,-0.009662
2850,-0.010555,-0.009543,-0.009662
2851,0.012412,-0.025317,-0.024086
2852,0.012412,-0.009543,-0.009662
2853,0.10428,-0.009543,0.019185
2854,0.012412,-0.009543,0.004761
2855,0.012412,-0.025317,-0.009662
2856,0.058346,-0.025317,-0.009662
2857,-0.033523,-0.009543,-0.024086
2858,-0.05649,-0.025317,-0.024086
2859,-0.033523,-0.025317,-0.009662
2860,0.012412,-0.009543,-0.009662
2861,0.012412,-0.009543,-0.009662
2862,-0.010555,0.006231,0.004761
2863,0.035379,-0.009543,0.004761
2864,0.012412,-0.009543,0.004761
2865,-0.033523,-0.009543,-0.009662
2866,-0.033523,0.006231,-0.009662
2867,-0.05649,-0.009543,0.004761
2868,-0.033523,0.006231,-0.024086
2869,0.035379,-0.009543,0.004761
2870,-0.05649,-0.009543,0.004761
2871,-0.033523,-0.009543,-0.009662
2872,-0.010555,-0.009543,-0.009662
2873,-0.05649,-0.025317,-0.03851
2874,-0.010555,-0.025317,-0.009662
2875,-0.010555,-0.009543,0.004761
2876,0.035379,-0.009543,-0.024086
2877,0.012412,-0.009543,-0.024086
2878,0.058346,-0.009543,-0.024086
2879,-0.010555,-0.009543,-0.024086
2880,-0.010555,0.006231,0.004761
2881,0.035379,0.022005,0.004761
2882,-0.010555,-0.009543,-0.009662
2883,0.058346,-0.009543,0.004761
2884,0.081313,-0.009543,-0.009662
2885,0.035379,-0.009543,0.004761
2886,-0.010555,-0.009543,-0.009662
2887,0.081313,-0.009543,-0.009662
2888,-0.033523,0.006231,0.004761
2889,-0.05649,-0.009543,0.004761
2890,0.035379,-0.009543,-0.009662
2891,0.012412,-0.009543,0.004761
2892,-0.010555,-0.009543,-0.009662
2893,-0.033523,-0.009543,-0.009662
2894,0.035379,-0.025317,-0.009662
2895,0.012412,0.006231,-0.024086
2896,0.012412,-0.009543,0.004761
2897,-0.033523,-0.009543,-0.009662
2898,-0.033523,-0.009543,-0.009662
2899,-0.033523,-0.025317,-0.009662
2900,-0.05649,-0.025317,0.004761
2901,-0.010555,-0.009543,0.019185
2902,-0.010555,-0.025317,0.004761
2903,0.012412,-0.025317,-0.009662
2904,-0.010555,-0.025317,0.004761
2905,0.081313,-0.009543,0.019185
2906,0.058346,0.006231,0.004761
2907,0.10428,0.006231,0.019185
2908,0.035379,0.006231,0.019185
2909,-0.010555,-0.009543,-0.024086
2910,-0.010555,-0.041091,-0.024086
2911,0.035379,-0.009543,-0.024086
2912,0.035379,-0.009543,-0.009662
2913,0.012412,-0.009543,-0.024086
2914,0.035379,-0.009543,-0.024086
2915,-0.102424,-0.009543,-0.03851
2916,-0.010555,-0.025317,-0.009662
2917,0.012412,0.006231,0.004761
2918,0.012412,-0.009543,0.048033
2919,0.035379,-0.009543,0.004761
2920,-0.010555,-0.009543,0.004761
2921,0.035379,-0.009543,0.004761
2922,0.012412,-0.025317,0.004761
2923,0.012412,-0.025317,0.004761
2924,-0.033523,-0.025317,-0.009662
2925,-0.033523,-0.009543,-0.024086
2926,-0.010555,0.006231,0.004761
2927,-0.05649,-0.009543,0.004761
2928,-0.079457,0.006231,0.004761
2929,-0.010555,-0.025317,0.004761
2930,-0.010555,-0.009543,-0.009662
2931,0.012412,-0.009543,-0.009662
2932,-0.010555,0.006231,-0.009662
2933,0.012412,-0.009543,0.004761
2934,-0.05649,-0.009543,-0.024086
2935,-0.079457,-0.009543,0.004761
2936,0.012412,-0.009543,0.004761
2937,0.012412,-0.025317,-0.009662
2938,-0.033523,-0.009543,-0.009662
2939,0.012412,-0.025317,-0.009662
2940,0.035379,-0.025317,-0.024086
2941,0.058346,0.006231,0.004761
2942,0.035379,-0.009543,0.004761
2943,0.035379,-0.009543,0.019185
2944,0.012412,-0.009543,0.004761
2945,0.035379,-0.009543,-0.009662
2946,0.012412,-0.009543,0.004761
2947,0.012412,-0.025317,-0.009662
2948,0.035379,-0.009543,-0.009662
2949,0.058346,-0.041091,-0.024086
2950,-0.033523,-0.009543,0.004761
2951,0.012412,-0.009543,0.004761
2952,0.035379,0.006231,0.004761
2953,0.058346,0.006231,0.019185
2954,0.012412,0.006231,-0.009662
2955,0.012412,0.006231,-0.009662
2956,0.012412,-0.009543,-0.009662
2957,0.012412,-0.025317,-0.024086
2958,-0.010555,-0.025317,-0.024086
2959,-0.010555,-0.009543,-0.009662
2960,-0.010555,-0.025317,0.004761
2961,-0.033523,0.006231,-0.009662
2962,-0.010555,-0.009543,0.004761
2963,0.035379,-0.009543,-0.009662
2964,0.058346,-0.025317,-0.03851
2965,-0.079457,0.006231,-0.009662
2966,-0.033523,-0.009543,-0.009662
2967,0.012412,-0.009543,0.004761
2968,0.012412,-0.009543,0.004761
2969,0.012412,-0.009543,-0.009662
2970,-0.05649,-0.025317,-0.009662
2971,-0.033523,0.069328,0.004761
2972,0.035379,-0.041091,-0.009662
2973,-0.010555,-0.025317,-0.009662
2974,-0.010555,-0.025317,0.004761
2975,0.012412,0.006231,0.004761
2976,0.012412,-0.009543,-0.009662
2977,0.035379,-0.009543,-0.009662
2978,-0.05649,-0.025317,-0.009662
2979,0.035379,-0.025317,-0.024086
2980,0.012412,-0.025317,-0.009662
2981,-0.033523,-0.009543,0.004761
2982,-0.010555,-0.009543,0.004761
2983,0.012412,-0.025317,-0.009662
2984,-0.033523,-0.009543,0.004761
2985,0.012412,-0.009543,-0.009662
2986,-0.079457,-0.025317,-0.009662
2987,-0.010555,-0.009543,-0.009662
2988,-0.010555,-0.009543,-0.009662
2989,0.035379,-0.009543,-0.009662
2990,0.012412,-0.041091,-0.009662
2991,0.035379,-0.009543,-0.009662
2992,-0.010555,0.022005,-0.024086
2993,-0.05649,-0.009543,-0.009662
2994,-0.010555,-0.009543,-0.009662
2995,0.012412,-0.025317,-0.009662
2996,-0.010555,-0.025317,-0.024086
2997,0.012412,-0.009543,-0.009662
2998,0.127248,-0.009543,0.004761
2999,0.058346,-0.025317,0.004761
3000,0.081313,-0.009543,0.019185
3001,0.012412,-0.009543,0.004761
3002,0.035379,-0.009543,0.004761
3003,0.035379,-0.025317,-0.009662
3004,0.035379,-0.009543,-0.009662
3005,-0.010555,-0.025317,-0.024086
3006,0.035379,-0.025317,0.019185
3007,0.035379,0.006231,0.004761
3008,0.035379,-0.009543,-0.009662
3009,-0.033523,-0.009543,0.004761
3010,-0.010555,-0.025317,-0.009662
3011,-0.033523,-0.025317,0.004761
3012,-0.033523,-0.009543,0.004761
3013,-0.010555,0.006231,0.019185
3014,-0.010555,0.006231,0.004761
3015,-0.010555,-0.009543,0.019185
3016,-0.010555,-0.009543,0.004761
3017,-0.010555,-0.025317,0.004761
3018,-0.033523,-0.009543,0.004761
3019,0.012412,-0.009543,0.019185
3020,-0.033523,-0.025317,0.004761
3021,-0.033523,-0.025317,0.019185
3022,0.012412,-0.009543,0.004761
3023,-0.033523,-0.009543,-0.009662
3024,-0.010555,-0.025317,0.004761
3025,-0.010555,-0.009543,0.004761
3026,0.012412,-0.025317,-0.009662
3027,-0.033523,-0.009543,0.004761
3028,0.012412,-0.009543,0.004761
3029,0.081313,0.006231,0.004761
3030,0.081313,-0.009543,0.048033
3031,0.081313,-0.009543,-0.009662
3032,0.012412,-0.009543,0.004761
3033,0.035379,0.006231,-0.009662
3034,0.058346,-0.009543,-0.009662
3035,0.012412,0.006231,0.004761
3036,-0.010555,0.006231,0.004761
3037,0.081313,-0.025317,0.004761
3038,0.035379,-0.009543,0.004761
3039,-0.010555,0.022005,-0.009662
3040,0.012412,-0.009543,-0.009662
3041,0.035379,-0.009543,-0.024086
3042,-0.033523,-0.009543,-0.024086
3043,-0.05649,-0.025317,-0.009662
3044,-0.05649,-0.041091,-0.009662
3045,-0.033523,-0.009543,0.019185
3046,-0.010555,-0.009543,0.019185
3047,-0.033523,-0.025317,0.004761
3048,-0.033523,-0.009543,0.004761
3049,0.012412,0.006231,-0.009662
3050,-0.05649,0.006231,-0.009662
3051,-0.033523,-0.009543,-0.009662
3052,-0.010555,-0.025317,0.004761
3053,0.012412,-0.025317,0.004761
3054,-0.033523,-0.009543,0.004761
3055,-0.05649,-0.025317,-0.009662
3056,-0.05649,-0.009543,-0.009662
3057,-0.033523,0.006231,-0.024086
3058,-0.010555,-0.009543,-0.009662
3059,-0.033523,0.006231,0.004761
3060,0.035379,-0.009543,0.004761
3061,-0.010555,-0.009543,0.019185
3062,0.035379,0.006231,-0.009662
3063,0.035379,-0.025317,-0.009662
3064,-0.010555,-0.009543,-0.009662
3065,0.012412,-0.009543,0.004761
3066,0.012412,-0.009543,-0.009662
3067,0.058346,-0.009543,-0.009662
3068,0.035379,-0.009543,-0.009662
3069,0.10428,-0.009543,0.004761
3070,0.035379,-0.025317,-0.009662
3071,-0.033523,-0.025317,0.019185
3072,0.012412,-0.009543,0.004761
3073,0.035379,0.006231,0.004761
3074,0.012412,-0.009543,-0.009662
3075,-0.010555,-0.009543,-0.009662
3076,0.035379,0.006231,-0.009662
3077,0.035379,-0.009543,-0.024086
3078,-0.033523,-0.041091,-0.024086
3079,-0.05649,-0.025317,-0.009662
3080,-0.05649,-0.009543,-0.009662
3081,0.012412,-0.025317,0.004761
3082,-0.033523,-0.009543,0.004761
3083,-0.033523,-0.009543,-0.009662
3084,-0.010555,-0.009543,0.004761
3085,-0.010555,0.006231,-0.009662
3086,-0.033523,-0.025317,-0.009662
3087,-0.033523,-0.009543,-0.009662
3088,0.035379,0.006231,0.004761
3089,-0.033523,-0.009543,-0.009662
3090,-0.102424,-0.009543,-0.009662
3091,-0.033523,-0.025317,-0.009662
3092,0.012412,-0.025317,-0.009662
3093,-0.033523,-0.009543,-0.009662
3094,0.012412,-0.041091,-0.024086
3095,0.012412,-0.025317,0.004761
3096,0.035379,0.006231,-0.009662
3097,0.035379,-0.009543,0.004761
3098,0.058346,0.006231,-0.009662
3099,0.012412,-0.009543,0.004761
3100,0.012412,-0.009543,-0.024086
3101,0.035379,-0.009543,-0.009662
3102,-0.010555,-0.009543,0.004761
3103,0.012412,-0.009543,0.004761
3104,-0.010555,0.006231,-0.024086
3105,-0.010555,-0.009543,-0.009662
3106,-0.079457,-0.025317,-0.009662
3107,-0.010555,-0.009543,-0.009662
3108,-0.033523,-0.009543,0.004761
3109,0.035379,-0.009543,0.004761
3110,0.012412,-0.009543,-0.009662
3111,0.012412,-0.009543,-0.009662
3112,0.012412,-0.009543,0.004761
3113,-0.010555,-0.025317,-0.009662
3114,0.012412,-0.025317,0.004761
3115,0.012412,-0.025317,0.004761
3116,0.012412,-0.009543,-0.024086
3117,-0.010555,0.006231,-0.009662
3118,-0.010555,0.022005,-0.009662
3119,0.012412,-0.009543,-0.009662
3120,-0.033523,-0.009543,-0.024086
3121,-0.033523,0.006231,-0.009662
3122,0.035379,0.006231,0.004761
3123,0.035379,-0.009543,0.019185
3124,0.012412,-0.041091,-0.009662
3125,0.035379,-0.009543,-0.009662
3126,0.012412,-0.025317,-0.009662
3127,0.058346,0.006231,0.004761
3128,-0.010555,-0.056865,-0.009662
3129,0.012412,0.006231,0.004761
3130,0.081313,0.022005,0.004761
3131,-0.010555,0.006231,0.004761
3132,0.035379,-0.025317,0.004761
3133,-0.033523,-0.009543,-0.009662
3134,-0.033523,-0.009543,-0.009662
3135,-0.033523,-0.009543,-0.009662
3136,-0.05649,-0.009543,-0.009662
3137,-0.079457,-0.009543,-0.009662
3138,0.012412,-0.009543,-0.009662
3139,-0.010555,-0.025317,-0.009662
3140,-0.010555,-0.009543,-0.009662
3141,0.035379,-0.009543,-0.009662
3142,-0.010555,-0.009543,-0.009662
3143,-0.010555,-0.009543,-0.009662
3144,-0.010555,-0.025317,0.004761
3145,-0.033523,-0.009543,0.004761
3146,-0.010555,-0.009543,0.004761
3147,-0.033523,0.006231,-0.024086
3148,0.012412,0.006231,0.004761
3149,-0.010555,-0.009543,0.019185
3150,0.035379,-0.025317,0.004761
3151,0.035379,-0.009543,0.004761
3152,0.012412,-0.009543,-0.009662
3153,0.035379,0.006231,0.004761
3154,-0.010555,-0.009543,-0.009662
3155,-0.05649,-0.025317,-0.024086
3156,-0.010555,-0.009543,-0.024086
3157,0.035379,0.022005,-0.009662
3158,0.012412,-0.009543,0.004761
3159,-0.010555,-0.025317,-0.009662
3160,0.081313,-0.025317,-0.024086
3161,0.012412,-0.009543,-0.024086
3162,-0.010555,-0.009543,0.004761
3163,0.012412,-0.009543,0.004761
3164,-0.033523,0.006231,0.004761
3165,-0.033523,-0.009543,0.004761
3166,-0.010555,-0.009543,-0.009662
3167,-0.033523,-0.009543,-0.024086
3168,-0.033523,-0.009543,0.004761
3169,0.012412,-0.025317,-0.024086
3170,-0.033523,-0.009543,-0.024086
3171,0.012412,-0.025317,-0.024086
3172,0.012412,-0.025317,-0.009662
3173,0.012412,-0.025317,0.004761
3174,-0.010555,0.006231,-0.009662
3175,-0.010555,-0.025317,-0.009662
3176,0.012412,-0.009543,-0.009662
3177,0.012412,-0.009543,0.004761
3178,-0.010555,0.022005,0.019185
3179,0.035379,-0.009543,0.004761
3180,0.035379,-0.009543,0.004761
3181,0.10428,0.006231,-0.009662
3182,-0.010555,-0.009543,-0.024086
3183,0.035379,0.006231,0.004761
3184,0.058346,-0.025317,0.004761
3185,-0.010555,-0.009543,-0.009662
3186,-0.010555,-0.009543,0.004761
3187,0.012412,-0.009543,0.004761
3188,0.058346,-0.025317,0.004761
3189,0.012412,0.006231,0.019185
3190,-0.010555,0.006231,0.004761
3191,0.10428,-0.025317,-0.009662
3192,-0.010555,-0.009543,0.004761
3193,-0.033523,0.006231,0.004761
3194,-0.010555,-0.009543,0.004761
3195,-0.033523,-0.025317,-0.024086
3196,-0.033523,-0.025317,-0.024086
3197,-0.079457,-0.009543,-0.009662
3198,-0.033523,0.006231,0.004761
3199,0.012412,-0.009543,0.004761
3200,-0.010555,-0.009543,0.004761
3201,-0.010555,-0.025317,0.004761
3202,-0.033523,-0.025317,-0.009662
3203,0.012412,-0.009543,0.004761
3204,-0.010555,-0.025317,0.004761
3205,-0.010555,-0.009543,-0.024086
3206,0.035379,-0.009543,-0.009662
3207,0.012412,-0.009543,-0.009662
3208,-0.010555,0.006231,-0.009662
3209,0.012412,-0.009543,0.048033
3210,-0.010555,-0.025317,-0.009662
3211,0.012412,0.006231,-0.009662
3212,0.058346,-0.009543,0.004761
3213,0.058346,0.006231,0.004761
3214,0.058346,0.022005,0.004761
3215,-0.010555,-0.009543,0.019185
3216,-0.010555,-0.009543,0.004761
3217,-0.05649,-0.025317,-0.009662
3218,-0.010555,-0.025317,-0.009662
3219,0.012412,0.006231,-0.024086
3220,-0.033523,0.022005,0.004761
3221,-0.010555,-0.009543,0.004761
3222,-0.010555,-0.009543,-0.009662
3223,0.035379,-0.025317,0.004761
3224,-0.010555,-0.009543,0.019185
3225,-0.010555,-0.009543,0.004761
3226,0.012412,-0.009543,0.004761
3227,0.012412,-0.009543,0.004761
3228,0.035379,-0.025317,-0.009662
3229,-0.05649,-0.009543,0.004761
3230,-0.05649,-0.025317,0.004761
3231,-0.033523,-0.025317,0.004761
3232,-0.05649,-0.025317,-0.009662
3233,-0.033523,-0.025317,-0.024086
3234,0.035379,0.006231,-0.024086
3235,0.035379,0.006231,-0.024086
3236,0.012412,-0.025317,-0.024086
3237,0.10428,-0.009543,0.048033
3238,0.058346,-0.009543,0.004761
3239,0.058346,-0.025317,0.019185
3240,-0.079457,-0.009543,0.033609
3241,-0.010555,-0.009543,0.019185
3242,0.012412,0.006231,0.004761
3243,-0.033523,-0.009543,-0.009662
3244,0.035379,-0.025317,-0.024086
3245,0.012412,-0.009543,-0.024086
3246,0.012412,-0.009543,0.004761
3247,0.012412,-0.009543,-0.009662
3248,0.035379,-0.025317,0.004761
3249,0.012412,-0.009543,-0.009662
3250,-0.010555,-0.025317,0.019185
3251,-0.010555,-0.009543,0.004761
3252,0.035379,0.006231,-0.009662
3253,0.012412,-0.025317,-0.009662
3254,0.012412,-0.025317,-0.009662
3255,-0.010555,-0.009543,0.004761
3256,-0.010555,0.006231,-0.009662
3257,-0.010555,-0.009543,0.019185
3258,0.012412,-0.009543,-0.009662
3259,-0.05649,-0.009543,-0.009662
3260,-0.010555,-0.025317,-0.024086
3261,-0.033523,-0.025317,-0.009662
3262,0.012412,-0.009543,0.004761
3263,-0.033523,0.022005,0.019185
3264,-0.010555,-0.025317,-0.009662
3265,0.058346,0.006231,-0.009662
3266,0.012412,-0.025317,0.004761
3267,0.058346,-0.009543,0.004761
3268,0.012412,0.006231,0.004761
3269,0.035379,0.022005,0.004761
3270,0.058346,0.022005,0.004761
3271,-0.010555,-0.041091,0.004761
3272,0.012412,-0.025317,0.004761
3273,0.058346,-0.025317,-0.009662
3274,0.035379,-0.009543,-0.024086
3275,0.035379,-0.009543,-0.009662
3276,0.035379,-0.041091,0.004761
3277,0.012412,0.006231,-0.009662
3278,0.012412,0.006231,-0.024086
3279,-0.079457,-0.025317,-0.024086
3280,-0.010555,0.006231,-0.009662
3281,0.058346,-0.009543,0.004761
3282,-0.010555,-0.009543,-0.009662
3283,-0.033523,0.006231,-0.009662
3284,-0.010555,-0.009543,-0.024086
3285,-0.010555,-0.041091,-0.024086
3286,-0.033523,-0.041091,0.004761
3287,0.035379,0.006231,-0.009662
3288,0.035379,-0.025317,0.019185
3289,0.012412,-0.025317,0.019185
3290,0.012412,0.006231,-0.024086
3291,-0.010555,-0.025317,0.004761
3292,0.035379,-0.009543,0.004761
3293,-0.05649,-0.009543,0.004761
3294,-0.010555,-0.009543,-0.009662
3295,0.058346,-0.009543,0.004761
3296,0.035379,0.006231,0.004761
3297,0.012412,-0.009543,-0.009662
3298,0.012412,-0.009543,0.004761
3299,0.035379,-0.009543,0.004761
3300,0.058346,0.006231,0.019185
3301,0.012412,-0.009543,0.004761
3302,0.035379,-0.009543,0.004761
3303,0.035379,-0.009543,-0.024086
3304,-0.010555,-0.009543,-0.024086
3305,-0.05649,0.006231,0.004761
3306,0.012412,-0.009543,0.004761
3307,-0.033523,0.006231,0.004761
3308,0.012412,-0.009543,-0.009662
3309,0.012412,-0.009543,-0.009662
3310,-0.010555,0.006231,0.004761
3311,-0.033523,-0.009543,0.004761
3312,-0.010555,-0.009543,-0.024086
3313,0.012412,-0.009543,-0.009662
3314,0.012412,-0.009543,0.004761
3315,0.012412,0.006231,-0.009662
3316,-0.05649,0.006231,-0.009662
3317,-0.05649,-0.009543,-0.009662
3318,-0.010555,-0.025317,-0.009662
3319,0.035379,-0.025317,-0.009662
3320,-0.010555,-0.025317,0.004761
3321,0.035379,-0.009543,-0.009662
3322,-0.033523,-0.009543,-0.009662
3323,0.012412,-0.025317,0.004761
3324,-0.033523,-0.025317,-0.009662
3325,0.012412,-0.009543,-0.009662
3326,0.035379,-0.009543,0.004761
3327,0.012412,-0.009543,-0.009662
3328,0.012412,-0.025317,-0.024086
3329,0.081313,0.006231,0.004761
3330,0.10428,0.006231,0.019185
3331,0.081313,-0.025317,0.019185
3332,-0.010555,-0.025317,-0.024086
3333,-0.010555,-0.009543,-0.024086
3334,0.058346,0.006231,0.004761
3335,-0.010555,-0.009543,0.019185
3336,-0.05649,0.006231,0.004761
3337,0.035379,-0.009543,-0.009662
3338,0.012412,-0.009543,-0.009662
3339,-0.010555,-0.025317,0.004761
3340,-0.010555,0.006231,-0.009662
3341,-0.033523,-0.041091,-0.024086
3342,0.012412,-0.025317,-0.024086
3343,0.012412,-0.025317,0.004761
3344,-0.033523,-0.025317,-0.009662
3345,0.035379,0.006231,-0.024086
3346,0.035379,-0.009543,-0.009662
3347,-0.033523,-0.025317,-0.024086
3348,0.012412,-0.009543,-0.009662
3349,-0.05649,-0.009543,0.048033
3350,0.058346,-0.009543,-0.009662
3351,-0.033523,-0.025317,-0.009662
3352,0.035379,-0.025317,-0.009662
3353,0.012412,-0.009543,-0.009662
3354,0.035379,-0.009543,0.019185
3355,-0.05649,0.006231,0.004761
3356,0.012412,-0.025317,0.004761
3357,0.035379,-0.025317,-0.009662
3358,-0.033523,-0.009543,-0.024086
3359,-0.033523,-0.009543,0.004761
3360,0.012412,-0.009543,0.004761
3361,0.035379,-0.009543,0.004761
3362,0.012412,-0.025317,-0.009662
3363,0.012412,-0.025317,-0.009662
3364,0.012412,-0.009543,0.004761
3365,0.035379,-0.025317,0.004761
3366,0.035379,-0.009543,0.004761
3367,-0.033523,-0.025317,-0.009662
3368,-0.010555,0.006231,0.004761
3369,0.058346,-0.025317,0.004761
3370,0.012412,0.006231,0.019185
3371,-0.033523,-0.009543,0.004761
3372,0.058346,-0.009543,0.033609
3373,-0.033523,-0.041091,-0.009662
3374,-0.010555,-0.025317,0.004761
3375,0.012412,0.006231,-0.024086
3376,0.012412,0.006231,-0.024086
3377,-0.010555,-0.009543,-0.024086
3378,-0.079457,-0.025317,-0.024086
3379,0.012412,-0.025317,-0.009662
3380,-0.010555,0.006231,-0.009662
3381,0.012412,-0.009543,-0.009662
3382,-0.102424,-0.025317,0.004761
3383,-0.010555,-0.009543,-0.024086
3384,-0.010555,-0.009543,-0.024086
3385,0.035379,-0.009543,-0.009662
3386,0.012412,-0.009543,-0.009662
3387,0.035379,-0.009543,-0.009662
3388,0.035379,-0.009543,-0.024086
3389,-0.010555,-0.009543,-0.009662
3390,-0.010555,0.006231,-0.024086
3391,0.012412,-0.009543,-0.009662
3392,0.035379,-0.025317,-0.009662
3393,-0.010555,-0.009543,-0.009662
3394,-0.033523,-0.025317,-0.009662
3395,-0.010555,-0.009543,-0.009662
3396,-0.033523,0.006231,-0.009662
3397,-0.010555,0.006231,0.004761
3398,-0.033523,-0.009543,0.004761
3399,-0.033523,-0.009543,0.004761
3400,0.012412,-0.025317,0.019185
3401,0.012412,-0.009543,-0.009662
3402,0.035379,-0.009543,-0.009662
3403,0.035379,-0.009543,0.004761
3404,-0.05649,-0.041091,-0.009662
3405,0.035379,0.006231,-0.009662
3406,0.081313,0.006231,0.004761
3407,0.012412,-0.009543,-0.009662
3408,0.035379,-0.056865,0.004761
3409,-0.05649,-0.009543,0.004761
3410,0.012412,-0.009543,-0.009662
3411,0.035379,-0.009543,0.019185
3412,0.012412,-0.009543,-0.024086
3413,0.012412,-0.025317,-0.024086
3414,-0.033523,-0.009543,-0.024086
3415,0.10428,-0.009543,0.004761
3416,0.081313,-0.009543,0.019185
3417,0.012412,-0.009543,-0.009662
3418,0.081313,-0.009543,-0.009662
3419,-0.033523,-0.025317,-0.009662
3420,-0.010555,-0.009543,-0.009662
3421,-0.05649,-0.009543,-0.009662
3422,-0.010555,-0.009543,-0.009662
3423,-0.05649,0.006231,0.019185
3424,0.012412,-0.009543,-0.009662
3425,-0.010555,-0.041091,-0.024086
3426,0.012412,-0.009543,-0.024086
3427,-0.033523,-0.009543,0.004761
3428,-0.033523,-0.009543,0.004761
3429,-0.010555,-0.009543,0.004761
3430,-0.033523,0.006231,-0.009662
3431,-0.033523,0.006231,-0.009662
3432,0.035379,-0.009543,0.019185
3433,-0.010555,-0.009543,0.004761
3434,0.035379,-0.009543,0.048033
3435,-0.033523,-0.041091,-0.024086
3436,0.035379,0.006231,-0.009662
3437,-0.010555,0.006231,-0.009662
3438,0.012412,-0.025317,0.004761
3439,-0.010555,-0.009543,-0.009662
3440,-0.033523,-0.009543,-0.024086
3441,0.012412,-0.009543,0.004761
3442,0.035379,-0.009543,0.004761
3443,0.035379,0.006231,0.004761
3444,0.058346,-0.009543,-0.009662
3445,0.058346,-0.009543,-0.009662
3446,-0.033523,-0.009543,0.004761
3447,0.012412,-0.025317,0.033609
3448,0.012412,-0.009543,-0.009662
3449,0.058346,-0.009543,-0.024086
3450,0.012412,-0.009543,0.004761
3451,-0.010555,-0.009543,-0.009662
3452,-0.033523,-0.009543,-0.009662
3453,0.035379,-0.025317,0.048033
3454,0.012412,-0.025317,0.004761
3455,0.035379,-0.025317,-0.009662
3456,-0.010555,-0.025317,0.004761
3457,-0.05649,-0.025317,-0.009662
3458,-0.033523,-0.009543,-0.024086
3459,-0.033523,-0.009543,-0.024086
3460,0.035379,-0.009543,-0.009662
3461,-0.033523,-0.025317,-0.024086
3462,-0.033523,-0.025317,0.004761
3463,-0.05649,-0.009543,-0.009662
3464,-0.010555,0.006231,-0.009662
3465,0.058346,0.006231,0.004761
3466,-0.102424,-0.009543,0.004761
3467,-0.010555,-0.009543,0.004761
3468,0.012412,-0.009543,-0.009662
3469,0.012412,0.006231,0.004761
3470,-0.05649,-0.009543,0.019185
3471,-0.05649,-0.041091,-0.009662
3472,0.058346,0.006231,-0.009662
3473,-0.010555,-0.009543,0.004761
3474,-0.033523,-0.009543,0.004761
3475,-0.010555,-0.025317,0.004761
3476,0.012412,-0.009543,-0.024086
3477,0.012412,-0.009543,-0.009662
3478,0.012412,-0.025317,-0.009662
3479,0.035379,-0.025317,0.004761
3480,-0.010555,-0.025317,-0.009662
3481,0.012412,-0.041091,-0.024086
3482,-0.033523,-0.025317,-0.009662
3483,-0.05649,-0.025317,-0.03851
3484,-0.05649,-0.025317,-0.009662
3485,-0.010555,-0.009543,0.048033
3486,-0.033523,-0.009543,0.004761
3487,0.035379,-0.009543,-0.009662
3488,-0.033523,-0.009543,-0.009662
3489,0.012412,-0.009543,-0.024086
3490,-0.010555,-0.009543,-0.009662
3491,0.035379,-0.009543,-0.009662
3492,-0.05649,-0.025317,0.004761
3493,-0.079457,-0.009543,0.004761
3494,0.012412,0.006231,-0.009662
3495,0.035379,0.006231,0.004761
3496,0.012412,-0.009543,0.004761
3497,-0.05649,-0.009543,-0.009662
3498,0.081313,-0.009543,-0.009662
3499,0.012412,-0.025317,0.004761
3500,0.035379,-0.009543,0.004761
3501,-0.010555,-0.025317,-0.009662
3502,0.035379,-0.025317,0.019185
3503,0.081313,-0.025317,0.004761
3504,0.012412,-0.025317,-0.009662
3505,0.012412,0.006231,0.004761
3506,0.081313,0.006231,-0.009662
3507,0.058346,0.022005,-0.024086
3508,0.012412,-0.009543,0.004761
3509,-0.05649,-0.009543,-0.009662
3510,0.035379,-0.025317,0.004761
3511,-0.010555,-0.009543,-0.009662
3512,0.012412,-0.025317,-0.009662
3513,-0.05649,-0.009543,-0.009662
3514,0.012412,-0.025317,-0.009662
3515,0.012412,-0.009543,-0.009662
3516,0.035379,-0.009543,-0.009662
3517,-0.010555,-0.025317,-0.009662
3518,-0.033523,0.006231,-0.009662
3519,0.012412,0.006231,-0.009662
3520,-0.05649,0.006231,0.004761
3521,0.035379,-0.009543,0.004761
3522,0.012412,-0.025317,0.004761
3523,-0.033523,-0.025317,-0.009662
3524,-0.033523,-0.009543,-0.009662
3525,-0.033523,-0.009543,-0.009662
3526,0.012412,-0.009543,-0.009662
3527,0.035379,-0.025317,-0.024086
3528,0.035379,-0.009543,-0.009662
3529,0.012412,-0.025317,0.019185
3530,0.058346,-0.009543,0.004761
3531,0.058346,-0.025317,0.004761
3532,-0.010555,-0.009543,-0.009662
3533,-0.033523,-0.025317,-0.009662
3534,-0.010555,-0.009543,0.004761
3535,-0.010555,-0.009543,0.019185
3536,0.012412,-0.025317,0.004761
3537,-0.010555,-0.025317,-0.009662
3538,0.035379,-0.025317,0.033609
3539,0.012412,-0.009543,0.004761
3540,-0.033523,0.006231,0.004761
3541,0.035379,-0.009543,-0.009662
3542,0.035379,-0.009543,-0.009662
3543,0.035379,-0.025317,0.004761
3544,0.035379,-0.009543,0.004761
3545,0.012412,-0.025317,0.004761
3546,-0.010555,-0.025317,-0.024086
3547,-0.102424,-0.009543,-0.024086
3548,-0.033523,-0.009543,-0.03851
3549,-0.033523,-0.025317,-0.024086
3550,-0.05649,0.006231,-0.024086
3551,-0.033523,-0.025317,-0.009662
3552,-0.05649,-0.025317,-0.009662
3553,0.012412,-0.025317,-0.009662
3554,0.035379,-0.025317,-0.024086
3555,0.058346,-0.009543,-0.009662
3556,-0.010555,-0.009543,-0.009662
3557,0.035379,-0.009543,0.004761
3558,0.035379,-0.025317,-0.009662
3559,0.012412,-0.009543,0.004761
3560,-0.010555,0.006231,-0.009662
3561,0.058346,0.022005,0.004761
3562,0.127248,0.006231,-0.009662
3563,0.012412,-0.041091,-0.009662
3564,-0.010555,-0.041091,-0.009662
3565,0.127248,-0.025317,0.004761
3566,-0.05649,-0.025317,0.019185
3567,-0.05649,-0.025317,-0.009662
3568,-0.010555,-0.009543,0.004761
3569,-0.033523,-0.009543,0.004761
3570,-0.125391,-0.009543,0.019185
3571,-0.05649,0.022005,0.004761
3572,-0.010555,0.006231,0.004761
3573,0.035379,-0.009543,-0.009662
3574,-0.010555,-0.009543,-0.024086
3575,0.058346,-0.009543,0.004761
3576,0.081313,0.006231,-0.009662
3577,-0.05649,-0.009543,-0.009662
3578,0.012412,-0.009543,-0.009662
3579,-0.010555,-0.009543,0.004761
3580,0.035379,0.022005,0.004761
3581,-0.010555,-0.025317,0.004761
3582,0.012412,-0.025317,0.004761
3583,0.012412,-0.009543,-0.009662
3584,0.081313,0.006231,0.004761
3585,0.012412,-0.009543,0.019185
3586,0.012412,-0.009543,-0.009662
3587,0.081313,-0.009543,-0.009662
3588,0.081313,-0.009543,-0.009662
3589,0.012412,-0.009543,-0.024086
3590,0.035379,-0.009543,-0.009662
3591,0.012412,0.006231,-0.009662
3592,-0.010555,-0.009543,-0.009662
3593,0.012412,-0.009543,-0.024086
3594,0.012412,-0.009543,0.004761
