# Requested Sampling Rate (Hz):,1000
# Actual Sampling Rate (Hz):,998.252
# Requested Duration (s):,5.0
# Actual Duration (s):,5.048
# REST Calibration:,831.4595862068991,832.6049655172403,833.6698965517227
# MAX Calibration:,875.0000,896.0000,903.0000
# Normalization: MVC-based  (x_norm = (x - REST) / (MAX - REST))
sample_idx,EMG1,EMG2,EMG3
0,-0.033523,0.006231,-0.009662
1,0.012412,-0.009543,-0.009662
2,-0.033523,-0.009543,-0.009662
3,0.012412,-0.009543,0.004761
4,0.081313,0.022005,-0.009662
5,0.012412,0.006231,-0.009662
6,0.012412,0.006231,-0.009662
7,0.035379,0.053554,0.004761
8,0.012412,0.148198,0.004761
9,0.012412,0.148198,0.004761
10,0.058346,0.132424,0.004761
11,0.012412,0.227069,0.004761
12,0.012412,0.211295,0.019185
13,0.012412,0.179746,0.019185
14,-0.033523,0.305939,0.004761
15,-0.079457,0.290165,0.004761
16,-0.079457,0.274391,-0.009662
17,-0.033523,0.258617,-0.009662
18,0.012412,0.100876,0.033609
19,0.035379,-0.072639,0.004761
20,0.035379,-0.246154,-0.024086
21,0.081313,-0.356573,-0.009662
22,0.127248,-0.277703,0.004761
23,0.242083,-0.119962,0.019185
24,0.356919,-0.183058,0.004761
25,0.173182,-0.198832,-0.024086
26,0.10428,-0.277703,-0.009662
27,0.127248,-0.246154,-0.009662
28,0.012412,-0.325025,0.004761
29,-0.194293,-0.356573,0.004761
30,-0.102424,-0.246154,0.004761
31,0.035379,-0.119962,-0.024086
32,0.081313,-0.009543,-0.009662
33,0.058346,0.085102,-0.024086
34,-0.079457,0.132424,-0.024086
35,-0.033523,0.227069,-0.009662
36,0.012412,0.321713,0.033609
37,0.058346,0.305939,0.004761
38,-0.079457,0.195521,0.019185
39,-0.125391,0.03778,-0.03851
40,-0.05649,-0.088413,-0.03851
41,-0.171326,-0.15151,-0.009662
42,-0.125391,-0.167284,0.004761
43,-0.309129,-0.135736,-0.009662
44,-0.21726,-0.041091,-0.009662
45,-0.010555,0.053554,0.004761
46,-0.010555,0.132424,0.004761
47,-0.033523,0.195521,0.004761
48,-0.079457,0.148198,0.004761
49,-0.125391,0.163972,0.019185
50,-0.079457,0.211295,0.019185
51,0.012412,0.148198,-0.009662
52,0.081313,0.022005,-0.024086
53,0.425821,0.03778,-0.009662
54,0.701427,0.006231,-0.009662
55,0.724394,-0.041091,0.004761
56,0.494722,-0.198832,-0.009662
57,0.288018,-0.246154,-0.009662
58,0.127248,-0.214606,-0.024086
59,-0.148358,-0.214606,-0.009662
60,-0.332096,-0.183058,-0.03851
61,-0.355063,-0.009543,0.004761
62,-0.194293,-0.009543,0.033609
63,-0.125391,-0.088413,0.062456
64,-0.079457,-0.15151,0.062456
65,-0.148358,-0.15151,0.019185
66,-0.010555,-0.183058,-0.03851
67,0.127248,-0.104187,-0.052934
68,0.288018,0.022005,-0.052934
69,0.288018,0.132424,-0.03851
70,0.219116,0.242843,-0.009662
71,-0.102424,0.258617,0.019185
72,-0.171326,0.179746,-0.009662
73,-0.240227,-0.009543,-0.024086
74,-0.309129,-0.025317,-0.009662
75,-0.171326,-0.009543,0.004761
76,-0.102424,-0.009543,-0.009662
77,-0.125391,0.022005,0.033609
78,0.081313,0.132424,0.033609
79,0.173182,0.195521,0.033609
80,0.150215,0.11665,0.019185
81,0.012412,0.100876,0.019185
82,-0.010555,-0.009543,0.019185
83,0.012412,-0.088413,0.019185
84,0.081313,-0.056865,-0.03851
85,-0.033523,0.053554,-0.052934
86,-0.102424,0.069328,-0.009662
87,-0.148358,0.100876,0.019185
88,0.127248,0.163972,0.033609
89,0.196149,0.085102,0.019185
90,0.540657,0.053554,-0.024086
91,0.747361,0.053554,-0.009662
92,0.586591,0.227069,-0.009662
93,0.10428,0.085102,-0.009662
94,-0.240227,-0.088413,-0.009662
95,-0.561767,-0.15151,0.019185
96,-0.791439,-0.309251,-0.009662
97,-1.27375,-0.261928,-0.03851
98,-1.021111,0.100876,0.004761
99,-0.676603,0.179746,0.019185
100,-0.355063,0.148198,-0.024086
101,-0.05649,0.163972,-0.024086
102,0.494722,0.085102,0.004761
103,0.862197,-0.041091,0.033609
104,1.091869,-0.183058,0.033609
105,0.862197,-0.309251,0.004761
106,0.586591,-0.403895,-0.024086
107,0.448788,-0.388121,-0.009662
108,0.310985,-0.15151,0.019185
109,-0.171326,-0.119962,-0.009662
110,-0.263194,-0.104187,0.004761
111,0.058346,-0.009543,-0.03851
112,0.150215,0.053554,-0.009662
113,0.10428,0.11665,0.004761
114,-0.079457,0.163972,-0.024086
115,-0.21726,0.274391,-0.024086
116,-0.309129,0.479454,-0.024086
117,-0.194293,0.511003,0.019185
118,-0.033523,0.637196,0.033609
119,-0.125391,0.574099,0.004761
120,-0.21726,0.148198,0.004761
121,-0.05649,-0.072639,-0.03851
122,-0.05649,-0.119962,-0.009662
123,-0.102424,-0.372347,0.004761
124,0.012412,-0.514314,-0.009662
125,0.081313,-0.435444,-0.009662
126,0.127248,-0.246154,-0.052934
127,0.173182,-0.167284,-0.052934
128,0.081313,-0.167284,-0.067357
129,-0.194293,-0.009543,-0.067357
130,-0.102424,0.132424,-0.03851
131,0.012412,0.148198,-0.009662
132,-0.033523,0.305939,0.004761
133,0.402854,0.258617,0.033609
134,0.793295,0.006231,0.048033
135,0.586591,-0.293477,0.062456
136,0.448788,-0.466992,0.033609
137,-0.033523,-0.593185,0.019185
138,-0.630669,-0.482766,0.019185
139,-1.067045,-0.214606,0.033609
140,-1.112979,-0.009543,0.033609
141,-0.791439,0.242843,0.004761
142,-0.561767,0.321713,-0.067357
143,-0.607702,0.38481,-0.081781
144,-0.171326,0.526777,-0.052934
145,0.379886,0.46368,-0.03851
146,1.344508,0.432132,-0.03851
147,1.551212,0.369036,-0.024086
148,1.390442,0.668744,-0.009662
149,1.045934,0.984226,-0.009662
150,0.67846,0.968452,0.004761
151,0.288018,0.542551,0.004761
152,-0.033523,0.085102,0.033609
153,0.058346,0.227069,0.033609
154,0.471755,-0.104187,0.033609
155,0.058346,-0.656281,0.019185
156,-0.975176,-1.287245,-0.03851
157,-1.204848,-1.602728,-0.052934
158,-1.112979,-1.161053,-0.009662
159,-0.607702,-0.277703,0.004761
160,-0.079457,0.416358,-0.052934
161,0.035379,0.637196,-0.03851
162,0.242083,0.526777,-0.052934
163,0.632525,-0.025317,-0.081781
164,0.356919,-0.403895,-0.067357
165,0.081313,-0.451218,-0.067357
166,0.058346,-0.277703,0.004761
167,0.10428,-0.198832,-0.024086
168,0.081313,-0.088413,-0.024086
169,-0.309129,0.03778,-0.009662
170,-0.515833,0.211295,0.004761
171,-0.515833,0.163972,-0.009662
172,-0.722538,0.179746,-0.009662
173,-0.69957,0.526777,-0.024086
174,-0.5388,0.526777,-0.052934
175,-0.240227,0.447906,-0.052934
176,0.035379,0.432132,-0.009662
177,0.540657,0.274391,-0.009662
178,0.724394,-0.056865,0.004761
179,0.471755,-0.388121,-0.009662
180,0.379886,-0.7667,-0.03851
181,0.379886,-0.640507,-0.03851
182,0.586591,-0.309251,-0.024086
183,0.494722,-0.088413,0.004761
184,0.10428,0.826485,0.048033
185,0.012412,1.141967,0.048033
186,0.035379,1.220837,0.033609
187,0.265051,0.747614,0.033609
188,0.333952,-0.009543,0.048033
189,-0.125391,-0.703603,-0.024086
190,-0.791439,-1.003311,-0.110629
191,-0.653636,-1.03486,-0.096205
192,-0.240227,-0.640507,-0.03851
193,-0.194293,-0.340799,0.004761
194,0.265051,-0.104187,0.062456
195,0.310985,-0.198832,-0.009662
196,0.310985,-0.198832,-0.067357
197,0.173182,-0.372347,-0.052934
198,-0.079457,-0.482766,-0.03851
199,-0.286161,-0.451218,-0.03851
200,0.242083,-0.451218,-0.096205
201,0.908131,0.069328,-0.081781
202,1.022967,0.589873,-0.067357
203,0.127248,0.889581,-0.03851
204,-0.630669,1.078871,-0.024086
205,-0.148358,1.141967,0.048033
206,-0.263194,0.905355,0.105728
207,-1.135947,0.38481,0.07688
208,-1.365618,-0.23038,0.019185
209,-0.400997,0.022005,0.019185
210,0.196149,0.526777,0.019185
211,0.724394,0.227069,0.019185
212,0.931098,-0.198832,0.004761
213,0.081313,-0.23038,-0.081781
214,-0.561767,-0.261928,-0.125052
215,-0.469899,0.400584,-0.096205
216,0.448788,0.46368,-0.024086
217,1.229672,0.242843,0.033609
218,0.494722,-0.167284,0.048033
219,0.035379,0.053554,0.091304
220,-0.240227,-0.214606,0.019185
221,-0.515833,-0.656281,-0.024086
222,-0.309129,-0.861345,-0.081781
223,-0.423964,-0.750926,-0.139476
224,-0.676603,-0.545862,-0.096205
225,-0.355063,-0.545862,-0.067357
226,-0.033523,-0.356573,-0.03851
227,-0.171326,0.11665,0.048033
228,-0.355063,0.179746,0.062456
229,-0.125391,0.321713,0.033609
230,0.494722,0.337488,-0.024086
231,0.816263,0.479454,0.033609
232,0.885164,0.353262,0.033609
233,0.632525,0.400584,0.033609
234,0.10428,0.290165,-0.081781
235,-0.05649,0.100876,-0.110629
236,-0.148358,-0.388121,-0.067357
237,-0.102424,-0.277703,0.033609
238,-0.102424,0.148198,-0.009662
239,-0.69957,0.195521,-0.052934
240,-0.69957,0.163972,-0.024086
241,-0.676603,-0.356573,-0.067357
242,-0.515833,-0.84557,-0.139476
243,0.219116,-0.908667,-0.081781
244,1.298573,-0.656281,0.019185
245,1.643081,-0.15151,0.048033
246,0.83923,0.432132,0.07688
247,1.091869,0.38481,0.033609
248,0.242083,0.211295,0.019185
249,-0.492866,-0.025317,0.062456
250,-0.561767,-0.340799,0.062456
251,-1.135947,-0.545862,0.033609
252,-1.227815,-0.15151,-0.081781
253,-1.227815,0.526777,-0.096205
254,-0.814406,0.984226,-0.081781
255,-0.676603,1.315482,0.033609
256,0.150215,1.378579,0.07688
257,0.586591,0.936904,0.019185
258,0.540657,0.305939,-0.096205
259,0.586591,0.353262,-0.1539
260,0.242083,1.378579,-0.125052
261,0.035379,1.173515,-0.009662
262,0.081313,0.305939,0.120151
263,0.333952,-0.561637,0.07688
264,0.288018,-1.334568,0.048033
265,-0.21726,-1.681598,0.033609
266,-0.332096,-1.839339,0.033609
267,-0.033523,-1.129504,0.004761
268,0.356919,-1.176827,-0.03851
269,0.540657,-0.672055,-0.096205
270,0.540657,0.179746,-0.081781
271,0.310985,0.605647,-0.03851
272,0.012412,0.763388,-0.081781
273,-0.768472,0.416358,-0.139476
274,-0.653636,0.053554,-0.081781
275,0.310985,0.085102,0.062456
276,1.298573,-0.088413,0.091304
277,1.711982,0.290165,0.019185
278,1.482311,1.031548,0.062456
279,-0.515833,0.479454,0.048033
280,-2.031666,-0.372347,0.048033
281,-0.722538,-0.84557,0.004761
282,0.219116,-0.530088,0.062456
283,-0.263194,-0.892893,-0.024086
284,-0.584735,-0.861345,-0.096205
285,-0.69957,0.46368,0.019185
286,-0.69957,1.394353,0.004761
287,1.0,1.078871,0.004761
288,1.091869,0.668744,-0.03851
289,0.471755,0.447906,-0.052934
290,-0.860341,0.274391,0.033609
291,-2.031666,0.495229,0.091304
292,-1.158914,0.637196,-0.03851
293,0.908131,-0.23038,-0.1539
294,1.0,-1.318794,-0.03851
295,1.045934,-1.38189,0.033609
296,0.701427,-1.239923,0.033609
297,-0.630669,-0.84557,0.019185
298,-0.860341,0.274391,-0.03851
299,-0.125391,1.015774,-0.03851
300,-0.400997,0.11665,-0.081781
301,0.219116,-1.019086,-0.081781
302,0.885164,-1.019086,-0.009662
303,1.666048,-1.097956,0.004761
304,1.551212,-0.656281,-0.067357
305,1.183737,0.637196,-0.067357
306,-0.492866,1.094645,-0.110629
307,-0.69957,0.637196,-0.03851
308,-1.388585,0.73184,-0.009662
309,-1.27375,1.504771,0.048033
310,-1.044078,1.299708,0.134575
311,-0.515833,0.46368,0.091304
312,0.127248,0.163972,0.07688
313,0.196149,-0.403895,0.07688
314,-0.860341,-0.861345,-0.03851
315,0.058346,-0.861345,-0.096205
316,2.125391,-0.198832,-0.067357
317,2.033523,0.810711,0.048033
318,1.344508,0.700292,0.048033
319,0.058346,-0.23038,-0.067357
320,-0.492866,-1.11373,-0.052934
321,-0.010555,-1.224149,-0.009662
322,-0.079457,-0.309251,-0.009662
323,-1.021111,0.400584,-0.024086
324,-1.893863,0.305939,-0.081781
325,-1.91683,-0.041091,-0.1539
326,-0.5388,-0.167284,-0.067357
327,1.734949,-0.987537,-0.03851
328,2.515833,-0.561637,0.033609
329,1.666048,0.132424,0.148999
330,-0.37803,0.085102,0.177846
331,-0.355063,-0.167284,0.120151
332,-0.263194,-0.198832,-0.067357
333,-0.400997,0.479454,-0.139476
334,-0.240227,1.757157,0.004761
335,-1.112979,1.694061,0.07688
336,-1.319684,0.526777,0.033609
337,-0.768472,-0.183058,0.033609
338,-0.263194,-0.388121,-0.024086
339,-0.309129,0.305939,-0.052934
340,-0.010555,0.132424,-0.009662
341,0.127248,-0.435444,-0.052934
342,-0.355063,-0.624733,-0.024086
343,-0.492866,-1.019086,-0.024086
344,0.517689,-1.760469,-0.024086
345,1.183737,-1.366116,-0.03851
346,1.390442,0.085102,-0.009662
347,1.137803,1.26816,-0.024086
348,0.586591,0.763388,-0.03851
349,-0.240227,0.211295,-0.052934
350,-0.952209,-0.545862,-0.03851
351,-1.250782,-0.640507,-0.03851
352,-0.332096,0.03778,0.033609
353,0.333952,0.968452,0.019185
354,1.298573,1.61519,0.019185
355,-0.010555,0.936904,-0.024086
356,-1.388585,-0.561637,-0.052934
357,-0.492866,-1.460761,-0.110629
358,0.793295,-0.971763,-0.067357
359,0.83923,-0.892893,0.004761
360,1.022967,-0.530088,0.062456
361,0.885164,1.173515,0.163423
362,0.655492,1.741383,0.163423
363,-0.355063,1.063096,0.07688
364,-0.240227,-0.15151,-0.081781
365,0.150215,-0.624733,-0.125052
366,0.333952,-0.861345,-0.081781
367,-0.722538,-0.104187,-0.096205
368,-1.158914,0.447906,-0.052934
369,-1.27375,1.015774,0.105728
370,-1.526388,1.425901,0.134575
371,-0.5388,-0.325025,0.048033
372,0.081313,-1.870887,-0.03851
373,0.333952,-1.38189,-0.052934
374,0.242083,-0.735152,0.019185
375,-0.033523,-0.072639,0.062456
376,0.127248,0.369036,0.004761
377,0.242083,0.179746,-0.110629
378,1.022967,-0.325025,-0.1539
379,1.252639,0.46368,-0.110629
380,1.252639,0.700292,-0.024086
381,-0.998144,0.400584,0.07688
382,-0.561767,0.11665,0.033609
383,0.242083,-0.530088,-0.03851
384,-0.102424,-0.514314,-0.067357
385,-0.263194,-0.009543,-0.024086
386,-0.05649,0.321713,-0.024086
387,0.081313,0.321713,-0.052934
388,-0.033523,0.100876,0.019185
389,-0.148358,0.305939,0.033609
390,0.356919,-0.403895,0.091304
391,0.265051,-0.7667,0.07688
392,-0.332096,-0.593185,0.004761
393,-0.423964,0.447906,-0.03851
394,-1.641224,0.369036,-0.081781
395,-1.044078,0.132424,-0.096205
396,0.379886,-0.135736,-0.067357
397,1.344508,-0.514314,-0.03851
398,1.574179,-0.167284,0.004761
399,0.655492,0.38481,-0.024086
400,0.517689,-0.15151,0.004761
401,0.724394,-0.198832,-0.024086
402,-0.033523,0.242843,-0.009662
403,-0.975176,-0.041091,0.048033
404,-0.952209,-0.119962,0.091304
405,-0.309129,1.141967,0.062456
406,-0.148358,0.936904,0.105728
407,0.563624,0.668744,0.091304
408,1.780884,0.053554,0.004761
409,0.333952,-0.561637,-0.03851
410,-0.125391,-0.798248,-0.052934
411,-2.238371,-0.388121,-0.052934
412,-3.501565,-0.545862,-0.139476
413,-1.641224,0.242843,-0.067357
414,0.471755,0.716066,-0.009662
415,1.114836,0.495229,0.019185
416,1.689015,-0.041091,0.033609
417,1.459343,-0.403895,-0.052934
418,1.413409,-0.482766,-0.1539
419,0.83923,-0.41967,-0.139476
420,0.540657,0.085102,0.004761
421,-0.125391,0.242843,0.120151
422,-0.148358,-0.656281,0.062456
423,-0.240227,-1.271471,-0.081781
424,-0.5388,-1.003311,-0.03851
425,-0.240227,-0.451218,0.048033
426,-0.446932,0.03778,0.062456
427,-0.309129,0.589873,0.033609
428,0.012412,1.488997,-0.024086
429,0.425821,1.094645,0.019185
430,-0.400997,0.432132,-0.009662
431,-0.561767,0.03778,-0.110629
432,-0.332096,0.022005,-0.110629
433,0.173182,0.447906,0.07688
434,0.816263,0.416358,0.105728
435,0.67846,-0.056865,-0.024086
436,0.724394,-0.514314,-0.067357
437,0.196149,-0.261928,0.004761
438,-0.837373,-0.309251,0.004761
439,-0.630669,-0.356573,0.004761
440,-0.125391,-0.072639,-0.009662
441,-0.400997,0.148198,0.048033
442,0.770328,0.195521,-0.024086
443,1.734949,0.558325,0.004761
444,1.367475,0.38481,-0.03851
445,-1.021111,-0.135736,-0.052934
446,-1.27375,-0.246154,0.048033
447,-0.492866,-0.577411,0.062456
448,-0.515833,-0.49854,-0.009662
449,-1.641224,-0.451218,-0.024086
450,-0.952209,-0.293477,0.019185
451,-0.286161,0.03778,-0.110629
452,0.563624,0.163972,-0.168324
453,1.0,-0.183058,-0.110629
454,0.793295,-0.135736,-0.081781
455,0.333952,0.11665,-0.052934
456,-0.079457,0.148198,0.048033
457,0.586591,0.242843,0.07688
458,0.609558,-0.198832,0.033609
459,0.219116,-0.561637,0.033609
460,-0.102424,-0.7667,0.07688
461,-0.975176,-1.444986,-0.052934
462,-1.181881,-0.435444,-0.067357
463,0.081313,1.34703,0.004761
464,0.862197,1.504771,-0.067357
465,1.229672,1.047322,-0.067357
466,0.747361,0.716066,0.004761
467,-0.21726,0.321713,-0.009662
468,-0.05649,0.447906,0.019185
469,-0.515833,-0.104187,-0.067357
470,-1.296717,-0.861345,-0.081781
471,-0.561767,-0.451218,0.033609
472,-0.286161,-0.356573,0.019185
473,-0.263194,-0.246154,-0.024086
474,-0.263194,0.305939,0.019185
475,0.265051,1.110419,0.019185
476,1.068902,0.558325,-0.052934
477,1.803851,-0.088413,-0.067357
478,1.298573,-0.356573,0.004761
479,0.150215,-0.451218,0.07688
480,-0.286161,-0.356573,0.120151
481,-0.469899,-0.277703,0.07688
482,0.83923,-0.135736,-0.009662
483,0.540657,-0.656281,-0.081781
484,-0.010555,-1.145278,-0.125052
485,-0.722538,-0.672055,-0.096205
486,-1.250782,0.211295,-0.081781
487,-0.745505,0.416358,-0.067357
488,-0.286161,1.126193,-0.03851
489,0.058346,1.646738,-0.009662
490,-0.125391,1.205063,0.004761
491,-0.745505,0.258617,0.004761
492,-0.607702,-0.403895,0.048033
493,-0.125391,-0.309251,0.048033
494,0.10428,-0.119962,-0.009662
495,-0.102424,-0.41967,-0.067357
496,-0.975176,-0.23038,-0.03851
497,-0.998144,0.305939,0.062456
498,-0.883308,-0.167284,0.062456
499,-0.355063,-0.530088,0.019185
500,0.379886,-0.451218,-0.081781
501,0.793295,-0.782474,-0.081781
502,0.954066,-0.687829,-0.067357
503,0.540657,-0.388121,-0.03851
504,0.058346,0.321713,0.033609
505,-0.079457,0.46368,0.062456
506,-0.286161,-0.183058,-0.03851
507,-0.010555,-0.135736,-0.03851
508,0.448788,0.022005,-0.024086
509,0.265051,0.511003,0.048033
510,-0.21726,-0.167284,0.134575
511,-0.21726,-0.545862,0.19227
512,0.265051,-0.466992,0.07688
513,-0.102424,-0.624733,-0.1539
514,0.379886,0.353262,-0.139476
515,1.045934,1.173515,-0.096205
516,0.127248,0.747614,-0.052934
517,-0.263194,0.179746,-0.024086
518,-0.492866,-0.309251,-0.03851
519,-0.607702,-0.624733,-0.052934
520,-0.286161,-0.15151,-0.052934
521,-0.148358,-0.088413,-0.052934
522,0.012412,0.258617,0.004761
523,0.10428,0.46368,0.004761
524,0.035379,0.258617,0.004761
525,-0.079457,0.03778,-0.009662
526,-0.148358,0.022005,0.019185
527,0.127248,0.11665,0.004761
528,0.10428,-0.056865,0.019185
529,-0.263194,-0.198832,0.033609
530,-0.21726,-0.088413,0.019185
531,-0.05649,-0.167284,-0.052934
532,0.012412,0.069328,-0.067357
533,0.219116,0.589873,-0.081781
534,0.150215,0.290165,-0.024086
535,-0.102424,-0.261928,-0.052934
536,-0.079457,-0.340799,0.004761
537,-0.194293,-0.198832,0.033609
538,-0.240227,-0.072639,-0.009662
539,-0.125391,-0.056865,0.004761
540,0.058346,-0.23038,0.004761
541,0.242083,-0.466992,-0.024086
542,-0.125391,-0.372347,0.004761
543,-0.240227,-0.104187,-0.009662
544,0.150215,0.637196,-0.052934
545,0.563624,0.73184,-0.024086
546,0.379886,0.242843,-0.081781
547,0.356919,-0.088413,0.004761
548,-0.263194,-0.372347,0.019185
549,-0.561767,-0.41967,0.004761
550,-0.332096,-0.15151,0.019185
551,-0.05649,-0.056865,0.033609
552,-0.05649,-0.104187,-0.03851
553,-0.125391,-0.041091,-0.03851
554,-0.05649,-0.009543,-0.03851
555,-0.033523,-0.025317,-0.024086
556,-0.079457,-0.104187,-0.024086
557,-0.010555,-0.088413,-0.009662
558,-0.033523,-0.041091,-0.009662
559,-0.033523,-0.056865,0.019185
560,-0.05649,-0.025317,-0.009662
561,-0.033523,-0.025317,0.004761
562,-0.079457,-0.041091,-0.009662
563,-0.010555,-0.041091,-0.009662
564,-0.033523,-0.041091,-0.009662
565,-0.010555,-0.041091,0.004761
566,-0.033523,-0.009543,0.004761
567,-0.102424,-0.009543,-0.009662
568,-0.033523,-0.056865,-0.024086
569,-0.05649,-0.056865,0.004761
570,-0.332096,0.022005,0.004761
571,-0.355063,-0.009543,-0.009662
572,-0.148358,-0.025317,-0.024086
573,0.954066,-0.041091,0.033609
574,1.16077,-0.009543,0.048033
575,0.793295,0.022005,0.004761
576,-0.079457,-0.056865,-0.024086
577,-0.837373,-0.056865,-0.024086
578,-0.630669,-0.072639,-0.024086
579,-0.21726,0.022005,-0.024086
580,0.035379,0.069328,0.004761
581,0.081313,-0.025317,0.004761
582,0.035379,-0.088413,0.019185
583,0.10428,-0.056865,0.004761
584,0.012412,-0.183058,0.019185
585,-0.05649,-0.104187,0.004761
586,0.058346,0.211295,-0.009662
587,0.058346,0.337488,0.004761
588,0.058346,0.258617,0.004761
589,-0.125391,-0.104187,-0.03851
590,-0.102424,-0.451218,-0.024086
591,0.058346,-0.214606,-0.009662
592,0.058346,0.163972,-0.03851
593,0.012412,-0.009543,-0.052934
594,0.081313,0.11665,0.004761
595,0.058346,0.132424,0.004761
596,0.012412,0.132424,0.004761
597,0.012412,0.022005,-0.009662
598,0.012412,-0.246154,-0.009662
599,-0.148358,-0.451218,-0.052934
600,-0.102424,-0.340799,0.004761
601,-0.010555,0.053554,0.048033
602,0.035379,0.447906,0.019185
603,0.035379,0.369036,0.033609
604,-0.102424,0.179746,0.019185
605,-0.194293,0.022005,-0.03851
606,-0.194293,0.03778,-0.009662
607,0.012412,0.006231,0.004761
608,0.081313,-0.009543,0.004761
609,0.035379,-0.056865,0.019185
610,0.012412,0.03778,0.019185
611,-0.05649,0.006231,-0.024086
612,-0.010555,0.163972,-0.024086
613,0.058346,0.258617,-0.024086
614,-0.010555,0.069328,-0.067357
615,-0.010555,-0.23038,-0.03851
616,-0.05649,0.022005,-0.024086
617,-0.010555,0.022005,0.019185
618,0.035379,-0.041091,0.004761
619,0.012412,-0.025317,-0.024086
620,-0.079457,-0.041091,-0.024086
621,-0.033523,-0.056865,-0.009662
622,-0.033523,-0.041091,-0.009662
623,-0.033523,0.006231,-0.009662
624,0.035379,0.022005,0.004761
625,0.012412,0.006231,0.004761
626,0.012412,-0.041091,-0.009662
627,0.012412,-0.056865,0.004761
628,-0.010555,-0.056865,0.019185
629,-0.05649,-0.041091,0.033609
630,0.012412,0.085102,0.004761
631,0.058346,0.211295,-0.009662
632,0.012412,0.148198,-0.024086
633,0.012412,0.11665,-0.03851
634,0.035379,0.022005,-0.03851
635,0.035379,-0.088413,-0.03851
636,-0.033523,-0.15151,-0.024086
637,-0.05649,-0.135736,-0.024086
638,-0.010555,-0.15151,-0.009662
639,-0.010555,-0.072639,-0.03851
640,0.035379,0.006231,-0.03851
641,-0.010555,-0.009543,-0.024086
642,0.081313,-0.041091,-0.009662
643,-0.033523,0.006231,0.019185
644,-0.010555,0.053554,0.07688
645,-0.05649,0.148198,0.033609
646,-0.010555,0.179746,0.033609
647,-0.010555,0.132424,0.019185
648,-0.033523,0.085102,0.019185
649,-0.079457,-0.088413,-0.024086
650,-0.010555,-0.214606,-0.03851
651,-0.010555,-0.056865,-0.009662
652,-0.033523,-0.135736,-0.024086
653,-0.010555,-0.056865,0.004761
654,0.058346,-0.009543,0.004761
655,0.012412,0.006231,-0.024086
656,-0.033523,-0.009543,-0.024086
657,-0.010555,-0.009543,-0.009662
658,0.012412,-0.009543,-0.03851
659,0.012412,0.006231,0.004761
660,-0.079457,0.006231,-0.009662
661,-0.033523,0.006231,-0.009662
662,-0.010555,-0.009543,-0.009662
663,0.012412,-0.009543,-0.024086
664,-0.010555,-0.009543,0.004761
665,0.012412,0.03778,0.033609
666,0.035379,0.022005,0.019185
667,0.058346,0.022005,0.004761
668,0.012412,0.006231,-0.024086
669,0.012412,0.022005,-0.009662
670,-0.010555,-0.009543,-0.009662
671,0.012412,-0.025317,0.004761
672,0.012412,0.006231,-0.009662
673,0.012412,0.022005,0.004761
674,-0.010555,0.006231,0.004761
675,-0.033523,0.022005,-0.009662
676,-0.033523,0.022005,-0.009662
677,0.012412,0.006231,0.004761
678,0.035379,0.022005,0.004761
679,0.012412,0.006231,0.004761
680,0.012412,0.022005,-0.009662
681,-0.010555,-0.009543,-0.009662
682,0.012412,-0.009543,-0.009662
683,-0.033523,0.006231,0.004761
684,-0.010555,-0.009543,-0.009662
685,-0.033523,-0.009543,-0.009662
686,0.035379,0.006231,0.004761
687,-0.010555,0.022005,0.019185
688,-0.010555,0.006231,0.019185
689,-0.079457,0.006231,0.004761
690,-0.033523,-0.009543,-0.009662
691,-0.033523,-0.009543,-0.009662
692,-0.05649,-0.009543,-0.009662
693,-0.033523,-0.009543,-0.024086
694,0.058346,0.006231,-0.009662
695,-0.033523,-0.056865,-0.03851
696,-0.102424,-0.072639,0.004761
697,-0.010555,0.022005,0.048033
698,0.012412,0.006231,0.019185
699,-0.010555,-0.025317,0.004761
700,-0.05649,0.022005,0.004761
701,-0.010555,0.053554,0.004761
702,-0.010555,0.022005,-0.009662
703,-0.05649,-0.009543,-0.024086
704,-0.033523,-0.025317,-0.009662
705,0.012412,0.022005,-0.009662
706,0.012412,0.006231,-0.009662
707,0.012412,0.006231,-0.009662
708,-0.05649,-0.009543,-0.024086
709,-0.010555,-0.009543,-0.009662
710,0.058346,-0.009543,-0.009662
711,0.035379,-0.009543,0.019185
712,0.012412,0.022005,0.033609
713,0.012412,0.006231,0.019185
714,0.035379,-0.009543,0.019185
715,0.058346,-0.025317,-0.009662
716,0.012412,-0.009543,0.004761
717,0.058346,0.006231,0.019185
718,-0.010555,-0.009543,-0.009662
719,-0.010555,-0.025317,-0.024086
720,-0.010555,-0.041091,-0.03851
721,0.012412,-0.025317,-0.03851
722,0.035379,-0.009543,-0.024086
723,0.012412,-0.009543,-0.024086
724,-0.033523,-0.025317,-0.052934
725,-0.010555,-0.041091,-0.067357
726,-0.010555,-0.009543,-0.009662
727,0.012412,0.006231,0.033609
728,-0.033523,0.03778,0.033609
729,0.012412,0.022005,0.033609
730,0.035379,0.022005,0.019185
731,0.012412,0.022005,0.019185
732,-0.010555,-0.025317,0.004761
733,-0.010555,-0.009543,-0.009662
734,0.012412,-0.009543,0.004761
735,0.012412,0.022005,0.019185
736,-0.033523,0.03778,-0.009662
737,-0.033523,0.006231,-0.024086
738,0.012412,0.006231,-0.024086
739,-0.05649,-0.009543,-0.009662
740,-0.05649,-0.009543,-0.024086
741,-0.010555,0.006231,0.004761
742,0.058346,0.006231,0.004761
743,-0.010555,0.006231,0.019185
744,-0.033523,0.006231,-0.009662
745,0.012412,0.006231,-0.024086
746,-0.010555,-0.009543,-0.009662
747,0.035379,-0.009543,0.004761
748,0.012412,0.006231,-0.009662
749,0.035379,0.006231,0.004761
750,0.035379,0.006231,0.004761
751,0.035379,0.03778,0.019185
752,-0.010555,-0.009543,0.004761
753,0.012412,-0.025317,-0.009662
754,0.035379,-0.056865,-0.024086
755,0.012412,-0.041091,-0.009662
756,0.035379,-0.009543,-0.009662
757,0.035379,-0.025317,-0.024086
758,0.012412,-0.009543,-0.024086
759,-0.033523,-0.009543,-0.024086
760,-0.010555,0.006231,0.004761
761,0.012412,0.006231,0.019185
762,-0.010555,0.006231,0.004761
763,-0.010555,-0.009543,0.004761
764,-0.010555,0.006231,0.004761
765,0.012412,0.022005,0.004761
766,0.012412,0.006231,0.019185
767,-0.010555,-0.025317,0.004761
768,-0.010555,-0.025317,0.004761
769,-0.010555,-0.009543,-0.009662
770,0.012412,0.006231,-0.009662
771,-0.010555,-0.009543,-0.024086
772,-0.010555,-0.009543,0.019185
773,-0.010555,-0.009543,0.004761
774,0.035379,0.006231,-0.009662
775,-0.033523,-0.025317,-0.009662
776,0.012412,-0.009543,-0.024086
777,-0.010555,-0.009543,0.004761
778,-0.010555,0.006231,-0.009662
779,-0.033523,-0.009543,0.004761
780,-0.010555,0.006231,0.004761
781,-0.033523,0.006231,-0.024086
782,-0.010555,0.006231,0.004761
783,-0.033523,0.006231,0.004761
784,0.012412,0.006231,-0.009662
785,0.035379,-0.009543,-0.009662
786,-0.010555,-0.009543,-0.024086
787,-0.05649,-0.025317,-0.03851
788,0.012412,-0.009543,0.004761
789,0.035379,0.006231,0.004761
790,-0.033523,-0.009543,-0.009662
791,-0.05649,-0.041091,-0.009662
792,-0.010555,0.006231,0.019185
793,0.035379,0.022005,0.048033
794,0.035379,0.006231,0.048033
795,0.058346,-0.009543,0.033609
796,0.012412,0.006231,0.033609
797,0.035379,-0.009543,0.004761
798,0.035379,0.006231,-0.024086
799,0.012412,-0.009543,-0.024086
800,-0.05649,-0.025317,-0.024086
801,0.012412,-0.009543,-0.009662
802,0.058346,0.069328,-0.009662
803,-0.05649,-0.009543,0.004761
804,0.012412,-0.009543,-0.009662
805,0.058346,-0.009543,0.004761
806,-0.010555,0.006231,-0.009662
807,-0.010555,-0.009543,-0.009662
808,-0.033523,0.022005,-0.009662
809,0.058346,0.006231,0.004761
810,0.012412,-0.009543,-0.024086
811,-0.010555,-0.009543,-0.009662
812,-0.010555,0.006231,0.004761
813,0.012412,-0.009543,0.004761
814,-0.010555,-0.009543,0.004761
815,-0.010555,-0.009543,0.033609
816,-0.033523,-0.009543,0.004761
817,-0.05649,-0.009543,-0.024086
818,0.012412,0.006231,-0.024086
819,0.012412,0.006231,0.004761
820,-0.079457,-0.009543,-0.009662
821,-0.010555,-0.041091,0.004761
822,-0.033523,0.006231,0.004761
823,-0.010555,-0.009543,-0.009662
824,-0.033523,0.006231,-0.009662
825,-0.010555,-0.009543,-0.024086
826,0.012412,-0.009543,0.004761
827,-0.010555,0.022005,0.019185
828,-0.033523,-0.009543,0.033609
829,0.012412,-0.009543,0.004761
830,0.035379,0.006231,0.004761
831,-0.010555,0.006231,0.004761
832,-0.033523,-0.009543,0.004761
833,-0.079457,-0.025317,-0.009662
834,0.012412,-0.025317,-0.024086
835,-0.033523,-0.025317,-0.024086
836,-0.010555,-0.009543,-0.009662
837,0.012412,-0.009543,-0.009662
838,-0.010555,-0.009543,0.004761
839,-0.033523,-0.009543,0.004761
840,-0.010555,-0.025317,0.019185
841,0.035379,-0.009543,0.004761
842,0.035379,0.022005,0.019185
843,0.012412,-0.009543,0.033609
844,0.012412,-0.009543,0.033609
845,0.012412,0.006231,0.019185
846,-0.010555,0.006231,0.019185
847,0.012412,0.006231,0.019185
848,0.012412,0.006231,-0.009662
849,0.035379,-0.025317,-0.009662
850,-0.033523,0.006231,-0.009662
851,0.035379,0.006231,-0.024086
852,-0.010555,-0.025317,-0.009662
853,0.035379,-0.009543,0.019185
854,0.012412,-0.009543,-0.009662
855,-0.010555,-0.009543,-0.009662
856,0.012412,-0.009543,-0.024086
857,0.012412,-0.009543,-0.009662
858,-0.010555,-0.009543,-0.009662
859,-0.05649,-0.009543,-0.009662
860,-0.010555,-0.009543,-0.009662
861,-0.010555,-0.009543,-0.009662
862,-0.010555,0.006231,-0.009662
863,-0.010555,-0.009543,0.004761
864,-0.05649,0.006231,0.004761
865,-0.010555,-0.009543,0.004761
866,-0.033523,-0.009543,-0.009662
867,-0.05649,-0.009543,0.004761
868,-0.05649,-0.009543,0.004761
869,-0.010555,0.006231,-0.009662
870,-0.033523,-0.009543,-0.009662
871,-0.05649,-0.009543,0.004761
872,-0.010555,-0.009543,0.004761
873,-0.010555,-0.009543,0.004761
874,-0.010555,-0.009543,0.019185
875,-0.05649,0.006231,-0.009662
876,-0.010555,-0.009543,-0.009662
877,-0.010555,-0.009543,-0.009662
878,0.012412,-0.009543,0.048033
879,-0.05649,0.022005,0.048033
880,0.012412,-0.009543,0.019185
881,-0.010555,-0.009543,0.019185
882,0.012412,0.006231,0.033609
883,-0.010555,0.006231,0.019185
884,0.012412,0.006231,0.019185
885,0.012412,-0.025317,-0.024086
886,0.035379,-0.009543,-0.03851
887,-0.010555,-0.025317,-0.024086
888,0.035379,-0.009543,0.004761
889,0.058346,-0.025317,-0.03851
890,0.012412,-0.009543,-0.024086
891,-0.010555,-0.009543,-0.024086
892,-0.05649,-0.025317,0.004761
893,-0.010555,-0.041091,-0.009662
894,-0.033523,-0.025317,0.004761
895,-0.033523,-0.009543,0.004761
896,0.035379,-0.009543,0.004761
897,-0.033523,-0.025317,0.004761
898,-0.010555,0.006231,0.004761
899,-0.033523,-0.025317,0.004761
900,-0.033523,-0.009543,-0.009662
901,-0.05649,-0.009543,-0.009662
902,0.035379,-0.009543,-0.009662
903,-0.010555,-0.009543,0.019185
904,-0.010555,-0.009543,0.019185
905,0.012412,-0.009543,0.004761
906,-0.010555,0.006231,0.004761
907,-0.05649,-0.009543,-0.009662
908,-0.010555,-0.009543,-0.009662
909,-0.033523,-0.025317,-0.024086
910,-0.033523,0.006231,-0.024086
911,-0.010555,-0.009543,-0.009662
912,-0.010555,0.006231,0.019185
913,0.035379,0.006231,0.033609
914,-0.010555,0.006231,0.033609
915,-0.033523,-0.009543,0.019185
916,0.012412,0.006231,0.019185
917,-0.010555,0.006231,0.048033
918,-0.010555,-0.009543,0.019185
919,-0.010555,0.006231,0.019185
920,0.012412,-0.009543,-0.024086
921,0.012412,-0.025317,-0.009662
922,0.058346,-0.009543,-0.024086
923,-0.05649,-0.009543,-0.024086
924,-0.033523,-0.009543,-0.024086
925,-0.033523,-0.025317,0.004761
926,0.012412,0.006231,0.019185
927,0.012412,0.006231,0.004761
928,0.035379,0.006231,0.004761
929,-0.010555,0.006231,0.004761
930,0.012412,-0.009543,0.004761
931,-0.010555,-0.025317,0.004761
932,0.012412,-0.025317,-0.024086
933,0.012412,-0.009543,-0.009662
934,-0.033523,0.006231,0.004761
935,-0.010555,-0.025317,0.004761
936,0.012412,0.006231,-0.009662
937,-0.010555,-0.009543,0.004761
938,0.012412,-0.009543,0.019185
939,-0.033523,-0.025317,0.004761
940,0.035379,-0.009543,0.004761
941,0.012412,-0.009543,0.004761
942,0.035379,-0.009543,0.004761
943,-0.010555,-0.009543,0.004761
944,-0.05649,-0.009543,0.019185
945,0.012412,-0.009543,0.004761
946,-0.010555,-0.025317,0.004761
947,-0.05649,-0.009543,0.004761
948,-0.05649,-0.009543,0.019185
949,-0.05649,-0.025317,0.019185
950,-0.010555,-0.009543,0.004761
951,-0.033523,0.022005,0.004761
952,-0.010555,-0.009543,0.004761
953,0.012412,-0.009543,-0.009662
954,-0.010555,-0.025317,-0.009662
955,-0.033523,-0.009543,-0.009662
956,0.035379,-0.009543,-0.009662
957,-0.010555,-0.009543,0.019185
958,-0.010555,0.006231,0.019185
959,-0.05649,-0.009543,0.019185
960,0.012412,-0.009543,0.004761
961,0.012412,-0.025317,0.019185
962,-0.033523,-0.009543,0.004761
963,-0.033523,0.006231,0.033609
964,0.012412,0.006231,0.033609
965,0.012412,-0.009543,0.019185
966,0.035379,0.006231,0.019185
967,-0.033523,0.006231,0.019185
968,0.012412,-0.009543,0.048033
969,0.035379,-0.009543,0.019185
970,0.035379,0.006231,0.004761
971,0.035379,-0.009543,-0.009662
972,-0.010555,-0.009543,-0.03851
973,0.035379,-0.009543,0.004761
974,-0.010555,-0.009543,-0.024086
975,0.012412,-0.025317,-0.024086
976,-0.010555,-0.025317,-0.009662
977,0.035379,0.006231,0.004761
978,0.035379,-0.025317,-0.009662
979,-0.010555,-0.025317,0.004761
980,0.012412,-0.025317,0.019185
981,-0.033523,-0.009543,0.004761
982,-0.010555,-0.009543,-0.009662
983,-0.033523,-0.009543,0.004761
984,0.035379,-0.009543,0.004761
985,-0.010555,0.006231,0.004761
986,-0.010555,-0.009543,-0.009662
987,-0.05649,-0.009543,0.019185
988,0.012412,0.006231,0.004761
989,0.012412,-0.009543,0.019185
990,-0.010555,-0.009543,0.004761
991,-0.033523,-0.009543,-0.009662
992,-0.033523,0.006231,-0.009662
993,-0.033523,-0.025317,0.004761
994,-0.033523,-0.025317,0.004761
995,-0.05649,-0.009543,0.019185
996,-0.033523,-0.009543,0.004761
997,-0.010555,-0.025317,0.019185
998,-0.010555,-0.025317,-0.024086
999,-0.010555,-0.009543,-0.009662
1000,0.035379,-0.009543,0.004761
1001,-0.010555,-0.009543,0.004761
1002,0.012412,-0.009543,0.004761
1003,0.035379,-0.009543,0.019185
1004,0.012412,-0.009543,0.004761
1005,0.012412,-0.009543,-0.024086
1006,-0.033523,-0.025317,0.004761
1007,0.012412,-0.025317,0.019185
1008,0.012412,0.006231,0.004761
1009,0.012412,-0.009543,-0.009662
1010,0.058346,0.006231,0.004761
1011,0.035379,-0.009543,0.019185
1012,0.081313,-0.009543,0.019185
1013,0.058346,0.006231,0.033609
1014,0.012412,0.006231,-0.009662
1015,-0.033523,-0.025317,-0.009662
1016,0.035379,-0.009543,-0.009662
1017,0.035379,-0.009543,-0.009662
1018,0.012412,-0.009543,0.004761
1019,0.035379,-0.009543,0.019185
1020,0.081313,0.006231,0.004761
1021,0.035379,-0.025317,-0.009662
1022,0.012412,-0.025317,0.004761
1023,0.012412,-0.025317,0.004761
1024,0.035379,-0.009543,0.004761
1025,0.012412,0.006231,0.004761
1026,0.012412,-0.009543,0.004761
1027,-0.010555,0.006231,0.004761
1028,0.035379,-0.025317,-0.009662
1029,0.035379,-0.009543,-0.009662
1030,0.012412,-0.009543,0.004761
1031,-0.010555,-0.009543,0.004761
1032,0.012412,-0.009543,0.004761
1033,-0.010555,-0.009543,0.004761
1034,0.012412,0.006231,0.019185
1035,-0.033523,-0.025317,0.019185
1036,0.035379,0.006231,0.019185
1037,-0.010555,0.006231,0.019185
1038,-0.033523,-0.009543,0.004761
1039,0.012412,0.006231,0.019185
1040,-0.033523,0.006231,-0.009662
1041,-0.010555,-0.009543,-0.024086
1042,-0.05649,-0.025317,-0.024086
1043,0.012412,0.006231,0.004761
1044,0.012412,0.006231,0.004761
1045,0.012412,0.006231,0.004761
1046,-0.033523,-0.009543,0.004761
1047,-0.033523,0.006231,0.019185
1048,0.035379,-0.009543,0.004761
1049,0.035379,-0.009543,-0.009662
1050,0.012412,-0.009543,0.004761
1051,0.012412,0.022005,0.048033
1052,0.035379,-0.009543,0.019185
1053,0.012412,0.006231,0.019185
1054,-0.010555,-0.009543,-0.009662
1055,0.035379,-0.009543,0.004761
1056,0.012412,0.006231,-0.009662
1057,0.058346,0.006231,-0.009662
1058,0.012412,0.006231,0.004761
1059,-0.010555,-0.009543,0.004761
1060,0.035379,-0.009543,0.004761
1061,0.035379,0.006231,0.004761
1062,0.035379,0.022005,0.004761
1063,0.012412,-0.009543,0.004761
1064,0.058346,-0.009543,0.004761
1065,0.012412,0.006231,0.019185
1066,-0.010555,-0.009543,0.004761
1067,0.012412,-0.009543,0.004761
1068,0.058346,0.006231,0.019185
1069,-0.010555,-0.009543,0.004761
1070,-0.033523,-0.009543,0.004761
1071,-0.010555,0.022005,0.004761
1072,0.012412,0.022005,0.019185
1073,0.035379,-0.009543,0.019185
1074,-0.05649,0.006231,0.004761
1075,-0.033523,0.006231,0.019185
1076,-0.010555,0.006231,0.004761
1077,-0.033523,-0.009543,0.004761
1078,-0.010555,-0.009543,-0.009662
1079,-0.033523,-0.009543,-0.009662
1080,0.012412,-0.009543,-0.024086
1081,-0.05649,0.006231,-0.009662
1082,-0.05649,-0.009543,-0.009662
1083,-0.033523,-0.025317,-0.009662
1084,0.012412,-0.009543,0.004761
1085,0.012412,0.006231,0.004761
1086,-0.05649,0.006231,0.019185
1087,-0.05649,0.006231,0.019185
1088,-0.033523,-0.009543,0.004761
1089,-0.033523,0.022005,0.004761
1090,-0.010555,0.006231,0.004761
1091,-0.010555,0.006231,0.004761
1092,-0.010555,-0.009543,-0.024086
1093,0.012412,-0.009543,-0.024086
1094,-0.033523,-0.009543,-0.009662
1095,0.012412,-0.009543,-0.009662
1096,0.035379,-0.009543,-0.009662
1097,0.058346,-0.025317,-0.009662
1098,0.035379,0.006231,0.019185
1099,0.012412,-0.009543,0.004761
1100,0.012412,-0.009543,0.004761
1101,-0.033523,-0.009543,0.019185
1102,-0.010555,-0.009543,0.004761
1103,0.012412,0.006231,-0.009662
1104,0.035379,0.006231,0.004761
1105,-0.010555,0.006231,0.019185
1106,-0.010555,-0.025317,-0.009662
1107,0.012412,0.006231,-0.009662
1108,0.012412,-0.025317,-0.03851
1109,0.012412,-0.009543,-0.009662
1110,0.012412,0.022005,0.004761
1111,0.012412,0.006231,0.019185
1112,0.012412,-0.009543,-0.009662
1113,-0.010555,0.006231,0.004761
1114,-0.010555,0.006231,0.004761
1115,-0.010555,0.006231,0.004761
1116,0.012412,-0.009543,0.004761
1117,-0.010555,0.006231,-0.009662
1118,-0.033523,-0.009543,-0.024086
1119,-0.033523,-0.025317,-0.009662
1120,0.012412,0.006231,-0.009662
1121,-0.010555,0.006231,0.004761
1122,-0.033523,0.006231,0.033609
1123,-0.010555,-0.009543,0.033609
1124,-0.010555,-0.009543,0.048033
1125,-0.033523,0.006231,0.048033
1126,-0.010555,0.03778,0.019185
1127,-0.010555,0.006231,0.019185
1128,0.012412,0.006231,0.004761
1129,-0.05649,0.006231,-0.024086
1130,-0.010555,0.006231,0.004761
1131,0.012412,-0.025317,-0.009662
1132,0.012412,-0.009543,-0.009662
1133,-0.033523,-0.025317,-0.024086
1134,-0.010555,-0.009543,-0.024086
1135,-0.010555,-0.009543,-0.024086
1136,-0.033523,0.006231,-0.009662
1137,0.012412,-0.009543,-0.009662
1138,-0.033523,-0.009543,0.004761
1139,0.058346,-0.009543,0.004761
1140,0.035379,0.006231,0.004761
1141,-0.033523,0.006231,-0.009662
1142,-0.033523,-0.009543,0.019185
1143,-0.010555,-0.009543,-0.009662
1144,0.035379,-0.025317,-0.009662
1145,0.012412,0.006231,-0.009662
1146,0.035379,0.006231,0.004761
1147,0.058346,0.022005,0.004761
1148,0.012412,-0.009543,0.019185
1149,0.012412,-0.009543,0.004761
1150,-0.010555,-0.041091,0.004761
1151,0.035379,0.006231,-0.009662
1152,0.058346,0.022005,0.004761
1153,-0.010555,0.006231,0.019185
1154,0.012412,-0.009543,-0.009662
1155,0.035379,-0.009543,0.004761
1156,0.012412,0.006231,0.004761
1157,0.012412,0.006231,0.004761
1158,-0.033523,0.006231,0.004761
1159,0.012412,0.006231,0.004761
1160,0.012412,0.006231,0.033609
1161,-0.010555,0.022005,0.019185
1162,-0.05649,-0.009543,-0.009662
1163,-0.033523,-0.009543,-0.009662
1164,0.012412,-0.009543,-0.024086
1165,-0.05649,-0.009543,-0.024086
1166,-0.033523,-0.009543,-0.024086
1167,0.012412,-0.025317,-0.009662
1168,0.012412,-0.009543,-0.009662
1169,-0.010555,0.006231,0.019185
1170,-0.033523,0.006231,0.004761
1171,-0.033523,-0.009543,0.033609
1172,0.035379,-0.009543,0.019185
1173,-0.033523,0.006231,0.004761
1174,-0.010555,0.022005,-0.024086
1175,0.012412,0.006231,-0.009662
1176,0.012412,0.006231,-0.009662
1177,-0.010555,-0.009543,0.004761
1178,-0.010555,0.006231,0.004761
1179,0.035379,0.022005,0.019185
1180,0.035379,-0.009543,0.033609
1181,0.035379,0.006231,0.019185
1182,0.012412,0.006231,0.033609
1183,0.058346,0.006231,0.033609
1184,-0.010555,-0.009543,0.033609
1185,0.035379,-0.009543,0.004761
1186,0.012412,-0.009543,0.004761
1187,0.035379,0.022005,0.004761
1188,0.035379,0.022005,-0.009662
1189,0.012412,-0.009543,-0.009662
1190,-0.033523,-0.025317,-0.009662
1191,-0.010555,-0.009543,-0.03851
1192,0.012412,-0.009543,-0.024086
1193,-0.010555,-0.009543,-0.009662
1194,0.012412,-0.009543,-0.009662
1195,0.035379,0.006231,-0.024086
1196,-0.010555,0.006231,-0.009662
1197,-0.033523,0.006231,-0.009662
1198,-0.079457,0.006231,0.004761
1199,0.012412,0.022005,0.004761
1200,0.012412,0.022005,0.004761
1201,0.012412,0.006231,0.004761
1202,-0.010555,0.022005,0.004761
1203,0.035379,0.006231,-0.009662
1204,-0.010555,0.006231,-0.009662
1205,-0.033523,0.006231,-0.009662
1206,-0.05649,-0.025317,-0.009662
1207,-0.010555,-0.009543,0.004761
1208,-0.033523,-0.009543,0.004761
1209,-0.033523,-0.009543,-0.009662
1210,-0.010555,0.006231,-0.009662
1211,0.012412,0.006231,0.019185
1212,-0.010555,0.006231,0.019185
1213,0.012412,0.006231,0.004761
1214,0.035379,0.006231,-0.009662
1215,0.012412,-0.009543,0.019185
1216,-0.033523,0.006231,0.004761
1217,0.012412,-0.009543,0.004761
1218,0.012412,-0.009543,-0.009662
1219,-0.010555,-0.009543,0.004761
1220,0.035379,0.022005,-0.009662
1221,0.035379,0.006231,0.004761
1222,0.035379,0.006231,0.004761
1223,0.058346,0.069328,0.004761
1224,-0.033523,-0.009543,0.004761
1225,0.012412,-0.009543,0.004761
1226,0.058346,-0.009543,-0.009662
1227,0.012412,-0.009543,-0.009662
1228,0.035379,-0.009543,-0.009662
1229,0.012412,-0.009543,-0.009662
1230,0.035379,-0.009543,0.004761
1231,-0.010555,-0.025317,-0.009662
1232,-0.033523,-0.009543,0.004761
1233,-0.033523,0.006231,0.004761
1234,0.012412,0.022005,0.004761
1235,-0.010555,0.006231,-0.009662
1236,-0.033523,-0.009543,0.004761
1237,-0.033523,-0.009543,-0.009662
1238,-0.05649,0.006231,-0.009662
1239,-0.010555,-0.009543,0.004761
1240,0.012412,0.006231,-0.024086
1241,-0.033523,-0.009543,-0.024086
1242,-0.079457,-0.009543,0.004761
1243,-0.010555,-0.009543,-0.009662
1244,-0.05649,-0.009543,-0.009662
1245,-0.010555,-0.025317,0.004761
1246,0.035379,0.006231,0.004761
1247,0.012412,-0.009543,0.004761
1248,0.012412,-0.009543,0.004761
1249,-0.010555,-0.009543,0.004761
1250,-0.033523,-0.009543,0.019185
1251,0.035379,-0.009543,0.004761
1252,-0.010555,0.006231,0.004761
1253,-0.033523,0.022005,-0.009662
1254,0.012412,0.006231,-0.009662
1255,0.035379,-0.009543,0.004761
1256,0.012412,0.006231,0.004761
1257,-0.010555,-0.025317,0.004761
1258,0.035379,-0.009543,0.019185
1259,-0.010555,-0.009543,0.004761
1260,-0.010555,0.006231,-0.009662
1261,0.012412,0.006231,0.004761
1262,0.035379,0.006231,0.004761
1263,-0.010555,0.006231,0.004761
1264,0.012412,-0.009543,0.019185
1265,0.012412,0.022005,0.004761
1266,0.058346,0.006231,0.019185
1267,0.035379,0.006231,0.004761
1268,-0.033523,-0.009543,0.004761
1269,-0.010555,-0.025317,0.004761
1270,-0.010555,0.006231,-0.009662
1271,-0.010555,0.006231,-0.024086
1272,-0.033523,-0.009543,-0.024086
1273,0.012412,-0.009543,-0.009662
1274,-0.010555,0.006231,-0.009662
1275,-0.010555,-0.025317,0.004761
1276,-0.05649,-0.009543,-0.009662
1277,-0.033523,-0.009543,0.019185
1278,-0.033523,0.006231,0.004761
1279,-0.033523,0.006231,-0.009662
1280,-0.010555,-0.009543,0.004761
1281,0.012412,-0.009543,0.004761
1282,-0.033523,-0.009543,0.019185
1283,-0.05649,0.006231,0.048033
1284,-0.079457,-0.025317,0.019185
1285,-0.010555,-0.009543,0.019185
1286,0.012412,-0.025317,-0.009662
1287,-0.033523,-0.009543,-0.024086
1288,-0.033523,-0.009543,-0.03851
1289,0.035379,0.006231,-0.024086
1290,0.012412,-0.009543,-0.009662
1291,-0.010555,-0.009543,-0.009662
1292,-0.033523,-0.025317,0.004761
1293,0.058346,0.069328,-0.009662
1294,0.035379,-0.009543,0.004761
1295,-0.010555,-0.025317,0.004761
1296,0.035379,-0.009543,0.004761
1297,0.058346,0.006231,-0.009662
1298,0.012412,0.006231,0.019185
1299,0.012412,-0.009543,-0.024086
1300,0.012412,-0.009543,-0.009662
1301,-0.010555,-0.009543,0.004761
1302,0.058346,-0.009543,0.019185
1303,0.035379,-0.009543,0.019185
1304,0.035379,-0.009543,-0.009662
1305,0.058346,0.006231,0.019185
1306,0.012412,0.006231,0.019185
1307,-0.010555,0.006231,0.004761
1308,0.012412,0.006231,-0.009662
1309,0.012412,0.006231,-0.024086
1310,0.012412,-0.041091,-0.024086
1311,0.012412,-0.009543,-0.009662
1312,-0.05649,0.006231,-0.009662
1313,-0.010555,0.006231,0.004761
1314,0.035379,0.006231,0.019185
1315,-0.010555,0.006231,0.004761
1316,-0.010555,-0.009543,0.004761
1317,0.012412,-0.009543,-0.009662
1318,-0.033523,-0.009543,-0.009662
1319,-0.010555,-0.025317,-0.024086
1320,-0.05649,-0.009543,-0.024086
1321,0.012412,-0.009543,-0.009662
1322,-0.033523,-0.025317,-0.009662
1323,-0.010555,-0.009543,-0.009662
1324,-0.010555,-0.009543,0.004761
1325,-0.010555,-0.009543,0.004761
1326,-0.010555,-0.025317,0.004761
1327,0.012412,-0.009543,-0.009662
1328,0.058346,0.006231,-0.009662
1329,0.035379,-0.009543,0.004761
1330,-0.079457,0.006231,0.019185
1331,-0.010555,0.006231,0.019185
1332,0.012412,-0.025317,0.019185
1333,-0.010555,-0.009543,0.004761
1334,0.081313,-0.009543,0.004761
1335,0.012412,0.006231,0.019185
1336,0.058346,0.006231,0.004761
1337,0.058346,-0.025317,-0.009662
1338,0.012412,-0.009543,-0.024086
1339,-0.010555,-0.025317,-0.009662
1340,0.035379,-0.009543,0.019185
1341,0.035379,0.006231,0.004761
1342,0.012412,-0.009543,0.004761
1343,-0.010555,-0.009543,0.004761
1344,0.058346,-0.009543,-0.009662
1345,0.012412,0.006231,0.004761
1346,0.012412,-0.009543,0.004761
1347,-0.010555,-0.009543,-0.009662
1348,0.035379,-0.009543,0.004761
1349,0.012412,-0.025317,0.004761
1350,0.058346,0.006231,-0.009662
1351,0.012412,-0.009543,-0.024086
1352,-0.05649,-0.009543,0.004761
1353,-0.010555,-0.009543,-0.009662
1354,-0.05649,0.022005,-0.009662
1355,-0.010555,0.006231,-0.009662
1356,0.012412,0.006231,0.004761
1357,-0.010555,-0.041091,0.004761
1358,0.035379,-0.009543,-0.024086
1359,-0.033523,0.022005,-0.024086
1360,-0.033523,0.006231,0.004761
1361,0.012412,0.022005,0.004761
1362,-0.010555,0.006231,0.019185
1363,0.012412,-0.009543,0.019185
1364,0.012412,-0.009543,0.019185
1365,0.012412,-0.009543,0.004761
1366,-0.033523,-0.009543,-0.03851
1367,-0.033523,-0.025317,-0.009662
1368,-0.05649,0.006231,0.004761
1369,0.012412,-0.009543,0.004761
1370,-0.033523,-0.009543,0.019185
1371,0.035379,0.006231,0.019185
1372,0.035379,0.006231,0.004761
1373,0.035379,-0.009543,0.004761
1374,0.012412,-0.025317,-0.009662
1375,-0.010555,-0.009543,0.019185
1376,0.035379,-0.009543,-0.009662
1377,0.012412,-0.009543,-0.024086
1378,0.035379,0.006231,-0.024086
1379,0.058346,-0.025317,-0.009662
1380,0.035379,-0.041091,0.004761
1381,0.035379,-0.009543,0.004761
1382,-0.010555,0.006231,0.004761
1383,0.035379,0.022005,0.004761
1384,0.012412,-0.009543,0.004761
1385,0.081313,0.006231,-0.009662
1386,-0.010555,-0.009543,0.004761
1387,-0.010555,-0.009543,-0.009662
1388,0.012412,-0.025317,-0.009662
1389,0.035379,0.006231,0.004761
1390,-0.033523,-0.009543,0.004761
1391,-0.033523,-0.009543,0.033609
1392,0.081313,0.006231,0.019185
1393,0.012412,0.022005,0.033609
1394,-0.033523,-0.009543,-0.009662
1395,-0.010555,-0.025317,-0.03851
1396,0.081313,-0.009543,-0.03851
1397,0.012412,-0.009543,-0.009662
1398,-0.010555,-0.009543,-0.009662
1399,-0.033523,-0.009543,-0.009662
1400,-0.05649,-0.009543,0.019185
1401,-0.010555,-0.025317,-0.009662
1402,-0.010555,0.006231,0.019185
1403,-0.010555,0.006231,-0.009662
1404,-0.010555,-0.009543,0.004761
1405,-0.010555,-0.009543,0.004761
1406,0.012412,-0.025317,-0.009662
1407,-0.033523,0.006231,0.004761
1408,0.035379,-0.009543,-0.009662
1409,0.035379,-0.025317,-0.024086
1410,-0.010555,-0.009543,-0.009662
1411,0.012412,-0.009543,-0.009662
1412,0.058346,-0.009543,-0.009662
1413,0.035379,-0.009543,0.004761
1414,-0.033523,-0.009543,0.004761
1415,-0.010555,-0.009543,-0.009662
1416,0.035379,-0.009543,-0.009662
1417,-0.010555,-0.041091,-0.024086
1418,-0.010555,0.006231,0.019185
1419,-0.010555,-0.009543,0.019185
1420,0.012412,0.006231,0.019185
1421,0.035379,-0.009543,0.004761
1422,0.012412,-0.025317,-0.024086
1423,-0.010555,-0.009543,-0.009662
1424,0.035379,-0.025317,0.019185
1425,0.035379,-0.009543,-0.009662
1426,0.012412,0.006231,-0.009662
1427,0.035379,-0.009543,-0.009662
1428,0.012412,-0.009543,0.004761
1429,-0.010555,-0.009543,-0.009662
1430,0.012412,0.006231,0.004761
1431,0.012412,-0.009543,0.019185
1432,0.058346,0.006231,0.004761
1433,0.035379,0.006231,0.004761
1434,-0.033523,-0.025317,0.004761
1435,0.012412,-0.025317,0.004761
1436,0.035379,-0.009543,0.004761
1437,0.012412,-0.009543,-0.009662
1438,-0.010555,-0.009543,-0.024086
1439,-0.010555,-0.025317,-0.009662
1440,-0.033523,0.006231,-0.009662
1441,0.012412,0.006231,-0.009662
1442,-0.033523,-0.009543,-0.024086
1443,0.012412,-0.009543,-0.009662
1444,0.035379,-0.009543,-0.009662
1445,0.012412,-0.025317,-0.009662
1446,0.012412,-0.009543,0.004761
1447,-0.010555,0.006231,0.004761
1448,0.012412,0.006231,-0.009662
1449,-0.010555,-0.009543,0.004761
1450,-0.05649,-0.009543,0.004761
1451,-0.033523,-0.025317,-0.009662
1452,0.012412,-0.009543,0.004761
1453,0.035379,-0.025317,0.033609
1454,-0.05649,0.006231,-0.009662
1455,0.012412,0.006231,0.033609
1456,-0.010555,-0.009543,0.019185
1457,0.012412,0.006231,0.004761
1458,-0.079457,-0.009543,0.004761
1459,0.012412,0.006231,-0.009662
1460,0.012412,-0.009543,-0.024086
1461,0.035379,-0.009543,-0.024086
1462,-0.05649,-0.009543,-0.009662
1463,-0.010555,-0.041091,-0.024086
1464,0.012412,-0.009543,-0.009662
1465,0.035379,0.006231,-0.03851
1466,0.012412,-0.009543,-0.009662
1467,-0.033523,-0.009543,0.004761
1468,0.012412,0.006231,-0.009662
1469,0.012412,-0.009543,-0.009662
1470,0.012412,-0.025317,0.019185
1471,0.012412,0.006231,0.004761
1472,0.035379,-0.009543,-0.009662
1473,-0.010555,-0.009543,-0.024086
1474,-0.010555,-0.009543,0.004761
1475,0.012412,-0.009543,-0.024086
1476,0.035379,0.006231,-0.009662
1477,0.035379,-0.009543,0.004761
1478,0.012412,0.022005,0.033609
1479,0.012412,-0.009543,0.004761
1480,0.035379,0.006231,0.004761
1481,0.012412,-0.009543,-0.009662
1482,-0.010555,-0.025317,0.004761
1483,-0.033523,-0.009543,-0.009662
1484,0.012412,-0.025317,-0.009662
1485,-0.010555,-0.025317,-0.009662
1486,0.012412,0.006231,0.004761
1487,-0.05649,0.006231,0.004761
1488,0.012412,-0.025317,-0.009662
1489,-0.010555,-0.009543,-0.009662
1490,-0.033523,-0.025317,-0.009662
1491,-0.033523,-0.009543,0.004761
1492,-0.033523,-0.009543,0.004761
1493,-0.010555,0.006231,0.019185
1494,-0.010555,-0.009543,0.019185
1495,0.012412,-0.009543,0.004761
1496,0.012412,-0.025317,0.004761
1497,-0.010555,0.006231,-0.009662
1498,-0.010555,-0.009543,-0.024086
1499,0.012412,0.006231,-0.024086
1500,-0.010555,-0.009543,0.004761
1501,-0.010555,-0.009543,0.004761
1502,-0.010555,-0.009543,-0.009662
1503,-0.010555,-0.025317,-0.009662
1504,0.012412,-0.009543,-0.009662
1505,0.035379,-0.025317,-0.009662
1506,0.035379,-0.025317,0.004761
1507,0.012412,-0.009543,-0.009662
1508,0.012412,-0.009543,0.004761
1509,0.012412,-0.009543,0.004761
1510,0.058346,0.006231,-0.009662
1511,0.081313,-0.009543,0.004761
1512,0.035379,-0.009543,-0.009662
1513,0.012412,-0.009543,-0.009662
1514,0.012412,-0.009543,0.019185
1515,0.012412,-0.009543,0.004761
1516,-0.010555,0.006231,0.004761
1517,0.012412,-0.009543,-0.009662
1518,0.012412,-0.025317,0.004761
1519,0.012412,0.006231,0.019185
1520,-0.010555,0.006231,-0.009662
1521,-0.010555,-0.009543,-0.009662
1522,-0.010555,-0.009543,0.004761
1523,-0.05649,0.022005,-0.009662
1524,0.012412,-0.009543,-0.009662
1525,-0.033523,0.006231,0.019185
1526,-0.05649,0.006231,0.004761
1527,-0.033523,-0.025317,-0.009662
1528,-0.033523,-0.009543,0.004761
1529,-0.010555,-0.009543,-0.024086
1530,-0.010555,-0.025317,0.019185
1531,-0.010555,0.006231,-0.009662
1532,-0.033523,-0.009543,-0.009662
1533,-0.05649,-0.009543,0.004761
1534,0.035379,-0.025317,-0.009662
1535,-0.010555,-0.025317,-0.024086
1536,-0.033523,-0.025317,0.004761
1537,-0.033523,-0.009543,0.004761
1538,-0.05649,-0.009543,0.004761
1539,-0.033523,-0.009543,0.004761
1540,0.012412,-0.009543,-0.009662
1541,0.035379,-0.009543,-0.024086
1542,0.012412,-0.025317,-0.009662
1543,0.012412,-0.009543,-0.009662
1544,0.012412,-0.025317,0.004761
1545,-0.010555,-0.009543,0.004761
1546,-0.033523,-0.009543,-0.009662
1547,0.012412,-0.009543,0.004761
1548,-0.010555,-0.009543,-0.009662
1549,0.058346,-0.009543,-0.024086
1550,0.035379,-0.009543,-0.009662
1551,0.081313,0.006231,-0.009662
1552,-0.010555,-0.009543,0.004761
1553,-0.010555,-0.009543,0.019185
1554,-0.010555,-0.009543,0.004761
1555,0.035379,0.006231,0.004761
1556,-0.010555,-0.009543,0.004761
1557,0.012412,-0.009543,0.004761
1558,0.058346,0.006231,0.004761
1559,0.035379,-0.009543,0.019185
1560,-0.033523,-0.025317,-0.009662
1561,-0.033523,-0.009543,-0.009662
1562,-0.010555,-0.025317,-0.009662
1563,-0.010555,-0.009543,-0.009662
1564,-0.010555,-0.009543,-0.024086
1565,-0.010555,0.006231,0.004761
1566,-0.033523,-0.009543,0.004761
1567,-0.010555,0.006231,0.004761
1568,-0.010555,-0.025317,-0.009662
1569,-0.010555,-0.025317,-0.009662
1570,-0.05649,-0.009543,0.019185
1571,-0.010555,-0.009543,-0.009662
1572,-0.05649,0.006231,-0.024086
1573,-0.033523,-0.025317,0.004761
1574,-0.05649,0.006231,0.004761
1575,0.012412,0.006231,0.004761
1576,-0.010555,-0.009543,0.004761
1577,-0.033523,-0.009543,0.004761
1578,-0.033523,0.006231,0.004761
1579,0.035379,-0.009543,-0.009662
1580,-0.033523,-0.009543,0.004761
1581,-0.033523,-0.009543,-0.009662
1582,-0.010555,-0.009543,-0.009662
1583,0.035379,0.006231,-0.009662
1584,0.035379,-0.009543,-0.009662
1585,0.035379,-0.009543,-0.009662
1586,-0.010555,-0.009543,-0.024086
1587,0.012412,-0.025317,-0.024086
1588,0.035379,-0.009543,0.004761
1589,-0.010555,-0.009543,0.004761
1590,0.012412,-0.009543,0.019185
1591,0.035379,0.006231,0.004761
1592,0.012412,-0.009543,-0.009662
1593,-0.010555,-0.009543,0.019185
1594,0.035379,-0.009543,0.019185
1595,0.035379,-0.009543,0.004761
1596,0.012412,-0.009543,-0.009662
1597,-0.010555,0.006231,-0.009662
1598,-0.010555,0.006231,0.004761
1599,-0.010555,-0.009543,-0.009662
1600,-0.010555,-0.009543,0.019185
1601,-0.010555,-0.009543,0.019185
1602,-0.033523,0.006231,0.004761
1603,-0.010555,-0.009543,0.019185
1604,-0.010555,0.006231,0.004761
1605,-0.010555,0.006231,0.004761
1606,0.035379,-0.009543,-0.009662
1607,-0.033523,-0.009543,-0.009662
1608,-0.033523,-0.009543,-0.03851
1609,-0.010555,-0.041091,-0.024086
1610,-0.010555,-0.025317,-0.009662
1611,-0.010555,-0.025317,0.004761
1612,-0.010555,-0.025317,-0.009662
1613,0.035379,0.006231,0.004761
1614,0.012412,-0.025317,0.019185
1615,-0.010555,-0.041091,-0.009662
1616,-0.010555,0.006231,-0.009662
1617,0.035379,-0.025317,0.004761
1618,0.012412,-0.009543,-0.009662
1619,-0.033523,-0.009543,-0.024086
1620,0.012412,-0.009543,-0.009662
1621,-0.033523,-0.009543,0.004761
1622,0.035379,-0.009543,-0.009662
1623,0.035379,-0.009543,0.004761
1624,0.012412,-0.009543,-0.009662
1625,0.012412,-0.025317,-0.009662
1626,0.058346,-0.009543,-0.009662
1627,0.058346,-0.025317,-0.009662
1628,0.012412,0.006231,0.019185
1629,-0.010555,0.006231,0.033609
1630,0.035379,-0.009543,0.019185
1631,0.012412,0.006231,-0.009662
1632,-0.010555,-0.025317,-0.009662
1633,0.058346,-0.025317,-0.024086
1634,0.081313,0.006231,0.004761
1635,-0.010555,0.006231,0.004761
1636,0.012412,0.006231,0.004761
1637,-0.05649,0.006231,-0.009662
1638,-0.033523,-0.009543,0.004761
1639,-0.033523,-0.009543,-0.024086
1640,-0.010555,-0.009543,0.019185
1641,-0.033523,-0.009543,-0.009662
1642,0.035379,-0.009543,0.004761
1643,-0.010555,-0.009543,0.004761
1644,-0.010555,-0.009543,0.004761
1645,-0.05649,-0.009543,-0.009662
1646,0.012412,-0.009543,0.004761
1647,-0.010555,-0.009543,0.004761
1648,-0.033523,0.006231,0.004761
1649,-0.010555,-0.009543,0.004761
1650,0.012412,-0.025317,0.004761
1651,-0.010555,-0.009543,0.004761
1652,-0.010555,-0.009543,-0.009662
1653,-0.033523,-0.025317,-0.009662
1654,-0.033523,-0.009543,-0.009662
1655,-0.05649,0.006231,-0.024086
1656,0.012412,-0.009543,-0.024086
1657,0.012412,-0.025317,0.004761
1658,0.035379,-0.025317,0.004761
1659,-0.010555,-0.009543,-0.009662
1660,-0.010555,-0.009543,0.004761
1661,0.035379,-0.009543,-0.009662
1662,0.035379,0.006231,0.004761
1663,0.035379,-0.009543,0.004761
1664,-0.033523,0.006231,0.004761
1665,0.012412,-0.009543,0.004761
1666,-0.010555,-0.009543,0.004761
1667,0.035379,-0.025317,-0.009662
1668,-0.010555,-0.025317,0.004761
1669,0.035379,0.006231,-0.009662
1670,0.012412,-0.009543,-0.009662
1671,0.012412,-0.025317,0.004761
1672,-0.010555,-0.009543,-0.009662
1673,0.012412,-0.025317,0.033609
1674,0.035379,-0.009543,0.019185
1675,-0.010555,0.006231,0.019185
1676,-0.010555,0.006231,0.004761
1677,0.035379,-0.025317,-0.009662
1678,-0.010555,-0.025317,-0.024086
1679,0.012412,-0.009543,0.004761
1680,-0.033523,-0.009543,0.004761
1681,0.012412,-0.009543,-0.009662
1682,0.058346,-0.025317,-0.024086
1683,-0.010555,-0.025317,-0.009662
1684,-0.010555,-0.009543,-0.009662
1685,0.012412,0.006231,-0.009662
1686,-0.033523,-0.009543,-0.009662
1687,-0.010555,-0.009543,0.019185
1688,0.012412,-0.009543,0.004761
1689,-0.010555,-0.009543,0.004761
1690,-0.010555,-0.025317,-0.009662
1691,-0.010555,0.006231,-0.009662
1692,-0.033523,-0.009543,-0.009662
1693,0.012412,-0.009543,-0.009662
1694,-0.010555,-0.041091,-0.009662
1695,-0.033523,0.006231,0.004761
1696,-0.033523,0.006231,0.033609
1697,-0.033523,0.006231,0.004761
1698,0.012412,-0.009543,0.019185
1699,-0.033523,-0.025317,0.004761
1700,-0.010555,-0.009543,0.019185
1701,0.012412,-0.009543,-0.009662
1702,0.035379,-0.009543,-0.024086
1703,0.012412,-0.009543,-0.009662
1704,0.012412,-0.009543,-0.009662
1705,0.012412,0.006231,-0.009662
1706,0.035379,-0.009543,0.004761
1707,0.012412,-0.009543,0.004761
1708,0.012412,-0.025317,0.004761
1709,0.012412,-0.025317,0.004761
1710,0.035379,0.006231,-0.009662
1711,-0.010555,-0.025317,-0.009662
1712,0.035379,-0.025317,-0.009662
1713,0.035379,-0.025317,-0.024086
1714,0.012412,0.006231,-0.009662
1715,-0.033523,-0.009543,-0.024086
1716,-0.010555,-0.009543,-0.024086
1717,0.058346,-0.025317,-0.009662
1718,0.012412,-0.009543,-0.009662
1719,-0.05649,-0.025317,0.004761
1720,-0.05649,-0.009543,-0.009662
1721,0.035379,0.006231,0.004761
1722,0.035379,-0.025317,0.004761
1723,0.035379,-0.025317,-0.009662
1724,0.012412,-0.025317,-0.009662
1725,0.012412,-0.009543,0.019185
1726,-0.010555,0.006231,0.033609
1727,-0.010555,-0.025317,0.019185
1728,-0.033523,-0.009543,0.033609
1729,-0.010555,-0.009543,0.019185
1730,-0.079457,-0.025317,-0.024086
1731,-0.05649,-0.009543,-0.024086
1732,-0.033523,-0.025317,-0.03851
1733,0.012412,-0.025317,-0.024086
1734,-0.05649,-0.025317,-0.024086
1735,-0.05649,-0.009543,0.004761
1736,0.058346,0.006231,0.004761
1737,0.012412,0.006231,0.019185
1738,-0.033523,0.006231,-0.009662
1739,0.012412,0.006231,0.004761
1740,-0.010555,-0.025317,-0.009662
1741,0.035379,0.006231,-0.024086
1742,0.058346,-0.009543,-0.024086
1743,-0.010555,-0.009543,-0.009662
1744,0.012412,-0.009543,-0.009662
1745,0.035379,-0.025317,0.004761
1746,0.012412,-0.009543,0.033609
1747,0.012412,-0.009543,-0.009662
1748,0.058346,0.006231,-0.024086
1749,0.081313,0.006231,-0.009662
1750,0.012412,0.006231,-0.009662
1751,-0.010555,-0.009543,-0.009662
1752,0.035379,0.006231,-0.024086
1753,0.012412,-0.009543,0.004761
1754,-0.010555,0.022005,0.019185
1755,-0.010555,-0.009543,0.004761
1756,0.058346,0.006231,0.019185
1757,-0.010555,-0.025317,0.004761
1758,-0.010555,-0.025317,-0.009662
1759,-0.010555,-0.025317,-0.009662
1760,0.035379,-0.025317,-0.009662
1761,-0.010555,-0.009543,0.004761
1762,0.012412,-0.009543,0.004761
1763,-0.010555,-0.009543,-0.024086
1764,-0.05649,-0.025317,-0.009662
1765,-0.033523,0.006231,-0.009662
1766,-0.010555,-0.009543,0.019185
1767,-0.010555,-0.009543,0.019185
1768,-0.010555,-0.025317,0.004761
1769,-0.033523,0.006231,0.004761
1770,-0.033523,0.006231,0.004761
1771,-0.033523,-0.025317,0.004761
1772,-0.033523,-0.025317,0.004761
1773,0.012412,-0.025317,-0.024086
1774,-0.033523,-0.041091,-0.024086
1775,0.012412,-0.009543,-0.009662
1776,0.035379,0.022005,-0.009662
1777,0.012412,-0.025317,0.004761
1778,-0.010555,0.006231,0.019185
1779,0.012412,-0.009543,0.019185
1780,0.012412,0.006231,0.019185
1781,0.012412,-0.025317,0.019185
1782,-0.010555,-0.009543,0.004761
1783,-0.010555,0.006231,-0.009662
1784,0.058346,0.006231,0.004761
1785,0.035379,0.006231,-0.009662
1786,0.012412,0.006231,-0.024086
1787,0.012412,-0.009543,-0.009662
1788,0.035379,-0.025317,-0.009662
1789,0.035379,-0.009543,-0.009662
1790,0.058346,-0.009543,-0.009662
1791,0.012412,-0.009543,0.004761
1792,-0.010555,0.006231,-0.009662
1793,0.058346,0.006231,0.004761
1794,0.035379,0.006231,0.004761
1795,0.058346,-0.009543,0.004761
1796,0.035379,-0.009543,0.019185
1797,-0.033523,-0.009543,0.004761
1798,0.012412,0.006231,0.019185
1799,-0.033523,-0.009543,-0.009662
1800,-0.010555,0.006231,-0.024086
1801,0.058346,-0.025317,0.004761
1802,-0.033523,-0.009543,-0.009662
1803,-0.05649,-0.009543,-0.009662
1804,-0.010555,-0.009543,-0.009662
1805,-0.05649,-0.009543,-0.009662
1806,0.012412,-0.025317,0.004761
1807,0.012412,-0.025317,0.004761
1808,-0.033523,-0.009543,0.004761
1809,-0.079457,0.006231,0.004761
1810,-0.033523,-0.009543,0.004761
1811,-0.033523,-0.025317,0.004761
1812,0.012412,0.006231,0.004761
1813,-0.010555,-0.009543,0.004761
1814,-0.033523,-0.025317,-0.009662
1815,0.012412,0.006231,-0.009662
1816,0.035379,0.006231,0.004761
1817,-0.010555,0.006231,0.004761
1818,0.035379,-0.025317,-0.009662
1819,-0.010555,0.006231,-0.024086
1820,0.012412,-0.009543,-0.009662
1821,-0.033523,-0.009543,0.004761
1822,-0.010555,-0.041091,0.004761
1823,0.012412,-0.009543,-0.009662
1824,0.012412,0.006231,-0.009662
1825,0.058346,-0.009543,-0.009662
1826,0.035379,-0.009543,0.019185
1827,0.035379,-0.009543,0.019185
1828,0.035379,-0.025317,0.004761
1829,0.035379,-0.009543,0.004761
1830,0.012412,-0.025317,0.004761
1831,0.012412,-0.041091,0.004761
1832,0.058346,-0.025317,-0.009662
1833,-0.010555,0.006231,-0.009662
1834,-0.033523,-0.009543,-0.024086
1835,-0.010555,-0.025317,-0.009662
1836,0.035379,-0.009543,-0.009662
1837,0.035379,0.006231,-0.009662
1838,0.035379,0.006231,-0.024086
1839,0.035379,-0.009543,-0.009662
1840,0.035379,-0.009543,-0.024086
1841,-0.010555,-0.009543,0.004761
1842,-0.033523,-0.009543,-0.009662
1843,-0.033523,0.006231,0.004761
1844,0.012412,-0.009543,-0.009662
1845,-0.033523,0.006231,0.004761
1846,-0.010555,-0.009543,0.004761
1847,-0.033523,-0.025317,-0.009662
1848,-0.033523,-0.025317,-0.024086
1849,-0.05649,-0.009543,-0.009662
1850,0.035379,-0.009543,-0.009662
1851,-0.033523,-0.009543,-0.009662
1852,-0.010555,-0.009543,-0.009662
1853,-0.033523,0.006231,0.004761
1854,0.012412,-0.009543,0.004761
1855,0.035379,-0.009543,0.004761
1856,0.035379,-0.009543,0.004761
1857,-0.05649,-0.025317,0.004761
1858,-0.033523,-0.009543,0.004761
1859,-0.010555,-0.009543,0.019185
1860,0.058346,-0.009543,0.019185
1861,-0.033523,-0.009543,-0.009662
1862,-0.033523,0.006231,0.004761
1863,-0.033523,-0.009543,0.004761
1864,0.058346,0.006231,0.004761
1865,-0.010555,0.006231,0.004761
1866,0.012412,-0.009543,-0.009662
1867,0.012412,0.006231,0.004761
1868,0.012412,-0.009543,0.004761
1869,0.035379,-0.025317,0.004761
1870,0.035379,-0.025317,-0.009662
1871,-0.010555,-0.009543,0.004761
1872,0.012412,-0.009543,0.004761
1873,0.012412,-0.009543,0.019185
1874,0.058346,-0.009543,0.004761
1875,0.058346,0.006231,0.004761
1876,0.012412,-0.025317,-0.009662
1877,0.012412,0.006231,-0.009662
1878,0.035379,-0.009543,-0.009662
1879,0.035379,-0.009543,-0.024086
1880,-0.010555,-0.009543,-0.009662
1881,-0.010555,-0.009543,-0.009662
1882,-0.033523,-0.009543,-0.024086
1883,0.058346,0.006231,-0.009662
1884,-0.010555,0.006231,-0.009662
1885,-0.010555,-0.025317,-0.009662
1886,-0.033523,-0.009543,-0.009662
1887,0.012412,-0.025317,0.004761
1888,-0.010555,-0.009543,-0.009662
1889,-0.033523,-0.009543,-0.009662
1890,-0.05649,-0.009543,0.004761
1891,0.012412,-0.025317,0.004761
1892,0.012412,-0.009543,0.019185
1893,-0.033523,-0.009543,0.004761
1894,0.035379,-0.009543,-0.009662
1895,-0.010555,-0.009543,0.004761
1896,-0.010555,0.006231,0.019185
1897,-0.033523,0.006231,-0.009662
1898,-0.010555,-0.009543,-0.009662
1899,-0.010555,-0.009543,-0.009662
1900,0.035379,0.006231,-0.024086
1901,0.012412,0.006231,0.004761
1902,0.012412,0.006231,-0.009662
1903,0.012412,0.006231,0.004761
1904,0.012412,-0.009543,-0.024086
1905,-0.010555,-0.025317,0.004761
1906,0.012412,-0.009543,-0.009662
1907,0.012412,-0.009543,0.004761
1908,0.058346,-0.009543,-0.009662
1909,0.035379,-0.009543,0.004761
1910,0.058346,0.006231,0.004761
1911,0.035379,0.006231,0.004761
1912,0.035379,0.006231,-0.024086
1913,-0.010555,0.006231,0.004761
1914,0.035379,-0.009543,0.004761
1915,0.058346,-0.009543,0.004761
1916,0.012412,-0.009543,-0.03851
1917,-0.010555,-0.009543,-0.024086
1918,0.012412,-0.025317,-0.024086
1919,0.012412,0.022005,-0.009662
1920,-0.033523,-0.009543,0.004761
1921,0.012412,-0.025317,0.019185
1922,0.035379,-0.009543,-0.009662
1923,-0.010555,0.006231,0.019185
1924,-0.010555,-0.009543,0.004761
1925,0.012412,-0.009543,0.004761
1926,-0.05649,0.006231,0.019185
1927,-0.033523,0.022005,0.004761
1928,-0.010555,-0.009543,0.004761
1929,-0.010555,-0.025317,-0.009662
1930,-0.010555,-0.025317,-0.009662
1931,-0.010555,-0.025317,-0.009662
1932,-0.010555,-0.025317,0.004761
1933,-0.010555,-0.025317,-0.009662
1934,-0.010555,-0.009543,0.004761
1935,0.012412,-0.009543,0.004761
1936,-0.010555,-0.009543,0.004761
1937,-0.010555,-0.009543,0.004761
1938,0.012412,-0.009543,0.019185
1939,0.012412,-0.025317,0.019185
1940,-0.033523,-0.009543,0.004761
1941,-0.010555,0.006231,0.004761
1942,0.012412,-0.009543,-0.009662
1943,0.012412,-0.025317,-0.009662
1944,-0.033523,-0.009543,0.004761
1945,0.012412,-0.009543,-0.009662
1946,-0.033523,-0.009543,-0.024086
1947,0.035379,-0.009543,-0.024086
1948,0.035379,-0.009543,-0.009662
1949,0.035379,0.006231,-0.009662
1950,0.058346,-0.009543,0.004761
1951,0.012412,0.006231,-0.009662
1952,0.012412,-0.009543,-0.009662
1953,-0.033523,-0.009543,-0.009662
1954,-0.010555,-0.009543,-0.009662
1955,0.035379,-0.025317,-0.024086
1956,-0.010555,0.006231,-0.009662
1957,-0.010555,-0.025317,0.004761
1958,0.012412,-0.009543,0.019185
1959,-0.010555,0.006231,0.004761
1960,-0.033523,0.006231,-0.009662
1961,0.012412,-0.025317,-0.009662
1962,0.012412,-0.009543,0.004761
1963,-0.033523,-0.009543,0.004761
1964,0.012412,-0.009543,-0.009662
1965,-0.010555,-0.009543,-0.009662
1966,0.035379,-0.025317,-0.009662
1967,0.012412,-0.009543,0.004761
1968,-0.010555,-0.009543,-0.009662
1969,-0.033523,-0.009543,-0.009662
1970,-0.010555,-0.025317,0.004761
1971,0.012412,-0.009543,0.019185
1972,0.012412,-0.009543,0.004761
1973,-0.033523,0.006231,0.004761
1974,-0.010555,-0.009543,-0.009662
1975,-0.079457,-0.009543,0.004761
1976,-0.033523,-0.009543,0.004761
1977,0.035379,-0.009543,-0.009662
1978,0.012412,-0.009543,0.004761
1979,0.012412,-0.025317,0.019185
1980,-0.033523,-0.009543,0.019185
1981,0.012412,-0.009543,0.019185
1982,0.035379,-0.009543,-0.009662
1983,0.035379,-0.009543,0.004761
1984,-0.010555,-0.009543,0.004761
1985,0.012412,-0.009543,-0.009662
1986,0.012412,-0.025317,-0.024086
1987,0.058346,-0.025317,-0.009662
1988,-0.05649,-0.025317,-0.024086
1989,-0.010555,-0.041091,-0.024086
1990,-0.010555,-0.041091,-0.009662
1991,0.012412,0.006231,0.019185
1992,0.035379,-0.009543,0.004761
1993,0.012412,-0.009543,0.004761
1994,0.012412,-0.025317,-0.024086
1995,-0.010555,-0.025317,-0.03851
1996,0.012412,-0.009543,0.004761
1997,0.058346,-0.009543,0.004761
1998,0.058346,0.006231,0.004761
1999,-0.05649,0.006231,-0.009662
2000,-0.033523,-0.009543,-0.009662
2001,0.012412,-0.009543,0.004761
2002,0.012412,0.006231,0.004761
2003,-0.033523,-0.009543,0.004761
2004,0.012412,-0.009543,-0.009662
2005,-0.010555,-0.009543,0.019185
2006,-0.010555,0.006231,0.004761
2007,-0.010555,-0.025317,0.019185
2008,-0.033523,0.006231,0.004761
2009,-0.010555,-0.009543,0.004761
2010,0.012412,0.006231,0.004761
2011,-0.010555,0.006231,-0.009662
2012,-0.033523,-0.009543,-0.009662
2013,-0.033523,-0.009543,-0.024086
2014,0.012412,-0.009543,0.004761
2015,-0.010555,-0.009543,-0.024086
2016,-0.010555,-0.009543,-0.024086
2017,-0.010555,-0.009543,-0.009662
2018,0.035379,0.006231,-0.009662
2019,-0.033523,-0.025317,-0.009662
2020,-0.033523,-0.025317,-0.024086
2021,-0.010555,-0.009543,0.004761
2022,-0.010555,-0.009543,0.004761
2023,-0.079457,-0.009543,0.019185
2024,0.012412,-0.009543,-0.009662
2025,0.035379,-0.025317,0.004761
2026,0.012412,-0.009543,0.004761
2027,0.012412,-0.009543,0.004761
2028,-0.010555,-0.009543,0.004761
2029,0.035379,0.006231,0.004761
2030,0.058346,-0.009543,0.004761
2031,0.058346,0.006231,0.004761
2032,0.035379,-0.009543,0.019185
2033,-0.010555,0.006231,-0.009662
2034,0.035379,-0.009543,-0.009662
2035,-0.033523,-0.025317,-0.009662
2036,-0.010555,-0.009543,-0.009662
2037,0.012412,-0.025317,-0.009662
2038,0.035379,-0.009543,-0.009662
2039,0.012412,-0.025317,0.004761
2040,0.012412,-0.025317,-0.009662
2041,0.058346,-0.009543,0.004761
2042,0.035379,-0.009543,-0.009662
2043,-0.010555,-0.009543,0.004761
2044,-0.010555,0.006231,-0.009662
2045,-0.010555,-0.009543,0.004761
2046,-0.010555,-0.009543,0.019185
2047,-0.010555,-0.025317,0.019185
2048,-0.033523,-0.009543,-0.009662
2049,0.012412,-0.009543,-0.024086
2050,-0.033523,-0.009543,0.004761
2051,0.012412,-0.009543,0.004761
2052,-0.033523,-0.009543,-0.009662
2053,-0.010555,-0.009543,0.004761
2054,-0.010555,-0.009543,0.004761
2055,-0.033523,-0.009543,0.004761
2056,0.012412,0.006231,-0.009662
2057,-0.010555,-0.009543,-0.03851
2058,-0.033523,0.006231,0.019185
2059,0.012412,-0.009543,0.004761
2060,-0.033523,-0.009543,-0.009662
2061,0.035379,-0.025317,-0.024086
2062,0.012412,-0.009543,-0.009662
2063,-0.033523,-0.009543,-0.009662
2064,-0.010555,-0.009543,-0.024086
2065,0.012412,-0.025317,-0.024086
2066,0.058346,-0.009543,-0.009662
2067,-0.033523,-0.025317,-0.024086
2068,-0.010555,-0.025317,-0.024086
2069,0.012412,-0.009543,-0.009662
2070,0.012412,0.006231,0.004761
2071,0.058346,-0.009543,0.004761
2072,0.012412,-0.009543,0.004761
2073,0.012412,-0.009543,0.019185
2074,0.035379,0.006231,0.019185
2075,-0.010555,-0.009543,0.019185
2076,0.012412,-0.009543,0.019185
2077,0.058346,-0.025317,0.004761
2078,-0.010555,0.006231,0.019185
2079,-0.033523,-0.009543,0.004761
2080,0.035379,-0.025317,-0.009662
2081,0.035379,0.006231,-0.009662
2082,0.035379,0.022005,-0.009662
2083,-0.033523,-0.009543,-0.009662
2084,-0.010555,-0.025317,-0.024086
2085,0.012412,-0.009543,-0.009662
2086,0.012412,-0.009543,0.019185
2087,-0.033523,0.006231,-0.009662
2088,-0.033523,-0.025317,-0.009662
2089,0.012412,-0.009543,-0.024086
2090,-0.010555,0.006231,0.004761
2091,0.012412,-0.009543,0.019185
2092,-0.05649,0.006231,0.019185
2093,0.012412,0.006231,0.019185
2094,0.035379,0.006231,0.019185
2095,-0.033523,-0.009543,0.004761
2096,-0.010555,-0.025317,0.004761
2097,0.012412,-0.009543,0.004761
2098,-0.033523,0.006231,-0.009662
2099,-0.010555,0.006231,0.004761
2100,-0.010555,0.006231,-0.009662
2101,-0.010555,-0.025317,-0.024086
2102,-0.033523,-0.009543,-0.03851
2103,-0.010555,0.006231,0.004761
2104,0.012412,-0.009543,0.004761
2105,0.035379,-0.009543,-0.009662
2106,0.012412,-0.009543,0.019185
2107,0.012412,0.022005,0.004761
2108,0.035379,0.006231,0.019185
2109,0.035379,0.006231,0.019185
2110,0.058346,0.006231,-0.024086
2111,0.058346,-0.025317,-0.009662
2112,0.058346,-0.009543,-0.03851
2113,-0.010555,-0.025317,0.004761
2114,-0.010555,-0.041091,-0.009662
2115,0.035379,-0.025317,0.004761
2116,0.012412,-0.009543,0.004761
2117,0.035379,0.006231,0.004761
2118,-0.05649,-0.009543,-0.009662
2119,-0.010555,-0.009543,-0.009662
2120,0.012412,-0.009543,-0.024086
2121,0.012412,-0.025317,0.004761
2122,-0.033523,-0.009543,0.019185
2123,-0.033523,-0.009543,0.019185
2124,0.012412,-0.009543,0.004761
2125,0.012412,-0.025317,0.004761
2126,-0.033523,0.006231,0.004761
2127,-0.05649,-0.009543,-0.009662
2128,-0.010555,0.022005,-0.009662
2129,-0.033523,0.006231,-0.009662
2130,-0.010555,-0.009543,-0.009662
2131,0.035379,0.006231,0.004761
2132,0.035379,-0.009543,0.004761
2133,-0.010555,-0.009543,-0.009662
2134,-0.010555,-0.025317,-0.009662
2135,-0.010555,-0.041091,0.004761
2136,0.035379,-0.009543,-0.009662
2137,-0.033523,-0.009543,-0.024086
2138,-0.010555,-0.009543,-0.009662
2139,0.012412,-0.009543,-0.009662
2140,0.012412,-0.009543,0.004761
2141,0.058346,-0.009543,-0.024086
2142,-0.010555,-0.009543,-0.009662
2143,0.012412,-0.009543,-0.009662
2144,0.035379,-0.025317,0.004761
2145,0.035379,0.022005,-0.009662
2146,0.058346,-0.009543,0.004761
2147,-0.010555,-0.009543,-0.009662
2148,0.058346,-0.009543,-0.009662
2149,0.058346,-0.025317,0.004761
2150,0.035379,-0.009543,0.019185
2151,0.035379,-0.009543,-0.009662
2152,0.012412,-0.009543,-0.009662
2153,-0.05649,0.006231,0.004761
2154,-0.010555,-0.009543,-0.009662
2155,0.012412,-0.025317,-0.009662
2156,0.012412,0.006231,-0.009662
2157,-0.05649,-0.025317,-0.009662
2158,-0.033523,-0.009543,0.004761
2159,-0.010555,-0.009543,-0.009662
2160,-0.010555,-0.009543,0.004761
2161,0.012412,0.006231,0.004761
2162,0.012412,0.006231,0.019185
2163,-0.010555,0.022005,0.019185
2164,-0.033523,0.006231,0.004761
2165,-0.033523,-0.009543,0.004761
2166,-0.010555,-0.025317,0.004761
2167,0.012412,-0.009543,0.004761
2168,-0.033523,-0.009543,-0.009662
2169,0.012412,0.022005,0.004761
2170,-0.010555,-0.009543,-0.024086
2171,0.035379,-0.025317,-0.024086
2172,-0.010555,-0.009543,-0.024086
2173,-0.010555,-0.025317,-0.009662
2174,-0.010555,-0.009543,-0.024086
2175,0.012412,-0.009543,-0.009662
2176,0.035379,-0.009543,0.004761
2177,0.035379,-0.009543,0.004761
2178,0.012412,-0.025317,0.004761
2179,-0.010555,-0.009543,-0.009662
2180,0.035379,-0.009543,-0.009662
2181,-0.010555,-0.009543,0.004761
2182,0.058346,-0.009543,0.004761
2183,0.058346,-0.009543,-0.009662
2184,0.012412,-0.009543,-0.009662
2185,-0.010555,0.006231,0.004761
2186,0.012412,-0.009543,0.004761
2187,0.012412,-0.009543,-0.009662
2188,0.012412,0.006231,0.004761
2189,-0.010555,-0.025317,-0.009662
2190,0.035379,-0.009543,0.004761
2191,-0.010555,-0.009543,0.019185
2192,-0.010555,-0.009543,0.019185
2193,-0.010555,-0.009543,0.004761
2194,0.035379,-0.025317,0.019185
2195,-0.010555,-0.009543,0.004761
2196,-0.010555,0.006231,-0.009662
2197,-0.010555,-0.009543,-0.009662
2198,0.012412,0.069328,-0.024086
2199,-0.010555,-0.025317,-0.024086
2200,-0.010555,-0.009543,-0.009662
2201,-0.102424,-0.009543,-0.024086
2202,-0.05649,-0.009543,-0.024086
2203,-0.033523,-0.041091,-0.009662
2204,-0.05649,-0.009543,0.004761
2205,-0.05649,-0.009543,-0.024086
2206,-0.010555,-0.009543,-0.024086
2207,-0.033523,-0.009543,-0.009662
2208,-0.033523,-0.009543,-0.009662
2209,0.012412,-0.009543,-0.009662
2210,0.035379,-0.009543,-0.009662
2211,0.012412,0.006231,0.004761
2212,-0.033523,-0.009543,0.004761
2213,0.012412,-0.025317,-0.009662
2214,0.012412,0.022005,-0.009662
2215,0.081313,0.006231,0.004761
2216,0.012412,-0.009543,-0.009662
2217,0.035379,0.006231,0.004761
2218,0.012412,0.006231,0.004761
2219,0.035379,-0.009543,0.004761
2220,0.012412,0.006231,0.004761
2221,0.012412,-0.009543,0.019185
2222,0.035379,-0.009543,-0.009662
2223,-0.010555,-0.009543,-0.009662
2224,0.012412,-0.025317,0.004761
2225,0.035379,-0.009543,-0.009662
2226,0.035379,0.006231,-0.024086
2227,0.012412,-0.009543,-0.009662
2228,0.012412,0.006231,-0.009662
2229,0.035379,-0.009543,-0.024086
2230,0.012412,-0.009543,0.004761
2231,0.035379,0.006231,-0.009662
2232,-0.010555,-0.041091,-0.009662
2233,-0.033523,-0.025317,-0.009662
2234,-0.033523,-0.025317,-0.024086
2235,-0.05649,-0.009543,-0.024086
2236,-0.033523,-0.009543,0.019185
2237,-0.033523,0.006231,0.019185
2238,0.012412,0.006231,0.004761
2239,-0.079457,0.006231,0.019185
2240,0.012412,-0.009543,0.004761
2241,0.035379,-0.009543,0.004761
2242,-0.010555,-0.009543,0.004761
2243,-0.05649,-0.009543,0.019185
2244,0.012412,0.006231,0.004761
2245,-0.010555,-0.009543,0.004761
2246,0.012412,-0.025317,0.004761
2247,-0.05649,-0.009543,-0.009662
2248,-0.033523,-0.009543,0.004761
2249,-0.010555,-0.009543,-0.009662
2250,-0.010555,0.006231,0.004761
2251,0.012412,-0.009543,0.004761
2252,-0.010555,-0.009543,-0.024086
2253,0.012412,-0.009543,0.004761
2254,-0.033523,0.006231,0.019185
2255,-0.010555,0.006231,0.004761
2256,0.012412,0.006231,0.004761
2257,0.058346,0.006231,0.019185
2258,0.012412,-0.025317,0.019185
2259,-0.010555,-0.009543,0.004761
2260,0.012412,0.006231,0.004761
2261,0.035379,-0.009543,-0.009662
2262,-0.010555,-0.009543,0.004761
2263,-0.033523,-0.025317,-0.009662
2264,-0.010555,-0.025317,-0.03851
2265,0.058346,-0.041091,-0.03851
2266,-0.010555,-0.025317,-0.009662
2267,-0.05649,-0.009543,-0.009662
2268,0.012412,-0.009543,-0.009662
2269,0.012412,-0.009543,-0.009662
2270,0.012412,-0.009543,0.004761
2271,-0.010555,-0.025317,0.004761
2272,-0.033523,-0.009543,0.004761
2273,0.012412,0.006231,0.004761
2274,0.012412,-0.009543,0.004761
2275,-0.010555,0.006231,-0.024086
2276,-0.079457,-0.009543,-0.024086
2277,-0.010555,-0.009543,0.004761
2278,-0.05649,-0.009543,0.004761
2279,-0.033523,-0.009543,0.004761
2280,-0.033523,-0.009543,-0.009662
2281,-0.010555,-0.009543,0.048033
2282,-0.033523,-0.009543,-0.009662
2283,-0.010555,-0.009543,-0.009662
2284,0.035379,-0.009543,-0.009662
2285,0.012412,-0.009543,0.004761
2286,-0.033523,-0.009543,0.004761
2287,0.012412,0.006231,0.004761
2288,0.035379,0.006231,-0.009662
2289,-0.010555,0.006231,-0.009662
2290,0.058346,0.006231,-0.009662
2291,-0.010555,-0.009543,0.004761
2292,0.035379,-0.025317,-0.024086
2293,0.035379,-0.009543,-0.009662
2294,0.058346,-0.009543,0.004761
2295,-0.010555,-0.009543,0.004761
2296,0.012412,-0.009543,-0.009662
2297,0.035379,-0.009543,-0.024086
2298,-0.033523,-0.009543,0.004761
2299,0.012412,-0.009543,-0.009662
2300,0.035379,-0.025317,-0.009662
2301,0.012412,-0.025317,-0.009662
2302,0.012412,-0.009543,-0.009662
2303,-0.010555,-0.009543,-0.009662
2304,-0.010555,-0.009543,-0.009662
2305,-0.05649,-0.025317,-0.024086
2306,-0.010555,-0.009543,-0.009662
2307,-0.033523,-0.009543,-0.024086
2308,0.035379,-0.025317,0.004761
2309,0.012412,-0.009543,0.019185
2310,0.012412,0.022005,0.004761
2311,-0.010555,0.006231,0.004761
2312,-0.010555,-0.009543,0.019185
2313,-0.010555,-0.025317,0.004761
2314,-0.033523,-0.025317,0.004761
2315,-0.033523,-0.009543,-0.009662
2316,0.012412,-0.025317,-0.009662
2317,-0.033523,-0.009543,0.004761
2318,0.012412,-0.025317,0.004761
2319,-0.010555,-0.009543,-0.009662
2320,-0.010555,-0.025317,-0.009662
2321,-0.033523,0.006231,-0.009662
2322,-0.079457,-0.025317,-0.024086
2323,0.012412,-0.025317,0.004761
2324,0.012412,0.006231,-0.009662
2325,0.058346,-0.009543,-0.009662
2326,-0.033523,-0.009543,0.004761
2327,-0.010555,0.006231,0.004761
2328,0.012412,0.006231,-0.009662
2329,0.012412,-0.009543,0.004761
2330,0.012412,0.006231,-0.009662
2331,-0.010555,-0.025317,0.004761
2332,0.012412,-0.025317,-0.024086
2333,0.012412,0.006231,-0.009662
2334,0.035379,0.006231,-0.024086
2335,0.012412,-0.009543,-0.009662
2336,0.035379,-0.009543,0.004761
2337,0.035379,-0.009543,0.019185
2338,-0.010555,-0.009543,-0.024086
2339,0.081313,-0.009543,-0.009662
2340,0.035379,-0.009543,-0.009662
2341,0.058346,0.006231,-0.009662
2342,0.012412,-0.009543,-0.024086
2343,0.035379,-0.009543,0.019185
2344,0.012412,-0.009543,0.004761
2345,-0.010555,0.006231,-0.024086
2346,-0.05649,-0.025317,-0.009662
2347,-0.010555,-0.009543,-0.024086
2348,-0.010555,-0.025317,-0.009662
2349,-0.033523,-0.009543,0.004761
2350,-0.033523,-0.009543,-0.009662
2351,-0.033523,-0.009543,-0.009662
2352,0.012412,0.006231,-0.009662
2353,-0.010555,-0.025317,0.004761
2354,-0.033523,-0.009543,0.004761
2355,0.012412,-0.009543,-0.009662
2356,0.035379,0.006231,0.004761
2357,-0.010555,-0.009543,0.019185
2358,-0.033523,0.006231,0.019185
2359,-0.033523,-0.009543,0.004761
2360,0.035379,-0.009543,0.019185
2361,0.012412,-0.009543,0.004761
2362,0.012412,-0.009543,-0.024086
2363,0.012412,-0.025317,-0.024086
2364,0.058346,-0.009543,-0.009662
2365,-0.033523,-0.009543,-0.009662
2366,0.012412,0.006231,0.004761
2367,0.035379,0.006231,-0.009662
2368,0.035379,-0.025317,0.004761
2369,0.012412,0.006231,-0.009662
2370,0.058346,-0.025317,-0.009662
2371,-0.010555,-0.009543,-0.009662
2372,0.035379,-0.009543,-0.009662
2373,0.035379,-0.009543,-0.024086
2374,-0.010555,-0.025317,0.004761
2375,-0.010555,-0.025317,-0.009662
2376,0.035379,-0.025317,-0.009662
2377,-0.010555,0.006231,-0.009662
2378,-0.010555,-0.009543,-0.009662
2379,0.035379,-0.025317,-0.009662
2380,-0.010555,-0.025317,0.004761
2381,0.035379,-0.025317,0.004761
2382,-0.010555,0.006231,-0.009662
2383,0.012412,-0.025317,-0.024086
2384,0.035379,-0.009543,0.019185
2385,-0.010555,-0.009543,0.004761
2386,-0.05649,-0.009543,-0.009662
2387,-0.010555,-0.025317,-0.009662
2388,0.035379,-0.009543,-0.024086
2389,0.012412,-0.009543,0.019185
2390,-0.033523,0.006231,-0.009662
2391,-0.010555,-0.009543,-0.009662
2392,0.012412,0.006231,-0.009662
2393,-0.05649,-0.025317,0.019185
2394,-0.010555,0.006231,0.004761
2395,0.035379,0.006231,0.004761
2396,-0.010555,-0.009543,0.019185
2397,-0.033523,-0.009543,-0.009662
2398,-0.010555,-0.009543,0.004761
2399,0.035379,-0.009543,0.004761
2400,0.035379,0.006231,0.004761
2401,-0.010555,-0.009543,0.004761
2402,-0.05649,-0.025317,0.004761
2403,-0.05649,-0.025317,0.004761
2404,0.012412,-0.009543,-0.009662
2405,-0.010555,-0.009543,-0.009662
2406,0.012412,-0.009543,-0.009662
2407,0.012412,-0.025317,0.004761
2408,0.012412,-0.041091,-0.024086
2409,0.012412,-0.025317,-0.024086
2410,0.035379,-0.009543,-0.024086
2411,0.012412,-0.009543,0.004761
2412,0.058346,0.006231,0.004761
2413,0.012412,0.006231,-0.009662
2414,0.012412,-0.009543,-0.009662
2415,0.012412,-0.025317,-0.009662
2416,-0.010555,-0.025317,-0.009662
2417,0.012412,-0.025317,-0.009662
2418,0.058346,-0.009543,0.004761
2419,0.035379,-0.009543,-0.009662
2420,0.035379,0.006231,0.019185
2421,-0.033523,-0.025317,0.004761
2422,0.012412,-0.009543,0.004761
2423,0.035379,-0.009543,-0.009662
2424,0.012412,-0.009543,0.019185
2425,-0.010555,-0.009543,-0.009662
2426,-0.079457,-0.009543,0.004761
2427,0.012412,-0.025317,0.004761
2428,-0.010555,0.006231,-0.009662
2429,-0.010555,0.022005,-0.009662
2430,-0.033523,0.006231,0.004761
2431,0.012412,-0.025317,-0.009662
2432,-0.010555,-0.009543,0.004761
2433,-0.079457,0.006231,0.004761
2434,0.012412,-0.025317,-0.009662
2435,-0.033523,-0.009543,-0.009662
2436,-0.010555,-0.009543,-0.009662
2437,-0.033523,-0.025317,-0.024086
2438,-0.010555,-0.009543,-0.009662
2439,-0.033523,-0.025317,-0.024086
2440,-0.010555,-0.025317,0.004761
2441,0.012412,0.006231,0.004761
2442,-0.010555,0.006231,0.004761
2443,0.012412,0.006231,0.019185
2444,0.035379,-0.025317,0.004761
2445,0.012412,-0.025317,0.004761
2446,0.081313,-0.009543,0.033609
2447,0.058346,0.006231,0.004761
2448,0.058346,0.006231,0.004761
2449,0.035379,0.006231,-0.03851
2450,0.012412,-0.041091,-0.009662
2451,0.035379,-0.025317,-0.009662
2452,0.035379,-0.009543,-0.03851
2453,-0.033523,-0.009543,-0.024086
2454,0.012412,-0.041091,-0.024086
2455,0.012412,-0.009543,-0.009662
2456,0.012412,0.006231,-0.009662
2457,0.035379,-0.009543,0.019185
2458,0.012412,-0.009543,0.004761
2459,0.058346,0.006231,-0.009662
2460,0.035379,-0.009543,-0.024086
2461,0.012412,-0.009543,-0.009662
2462,0.012412,-0.025317,-0.009662
2463,0.012412,-0.025317,0.004761
2464,-0.033523,-0.009543,-0.009662
2465,-0.05649,-0.025317,-0.009662
2466,-0.033523,-0.009543,-0.024086
2467,0.012412,-0.009543,0.004761
2468,-0.010555,0.006231,0.004761
2469,-0.010555,-0.009543,0.004761
2470,-0.05649,-0.009543,-0.009662
2471,-0.010555,-0.009543,-0.009662
2472,0.012412,-0.025317,-0.009662
2473,-0.010555,0.006231,0.004761
2474,-0.033523,0.006231,-0.009662
2475,0.012412,-0.009543,0.004761
2476,-0.010555,0.006231,0.004761
2477,-0.05649,-0.025317,0.004761
2478,0.035379,-0.025317,-0.009662
2479,0.012412,0.006231,-0.009662
2480,-0.010555,-0.009543,-0.024086
2481,0.035379,-0.009543,0.004761
2482,0.012412,0.006231,0.004761
2483,0.035379,-0.009543,0.019185
2484,-0.010555,-0.009543,0.004761
2485,0.012412,-0.009543,0.004761
2486,-0.010555,-0.025317,-0.009662
2487,-0.010555,0.006231,-0.009662
2488,0.035379,-0.009543,-0.009662
2489,0.012412,-0.025317,-0.024086
2490,0.058346,-0.009543,0.004761
2491,0.035379,-0.009543,-0.009662
2492,-0.010555,-0.025317,0.004761
2493,0.035379,-0.009543,-0.009662
2494,0.035379,-0.009543,0.004761
2495,0.035379,0.006231,0.019185
2496,-0.033523,0.006231,0.004761
2497,0.012412,-0.009543,0.004761
2498,0.081313,-0.009543,-0.009662
2499,-0.010555,-0.009543,0.004761
2500,-0.010555,-0.009543,0.004761
2501,-0.010555,-0.009543,-0.009662
2502,0.035379,-0.009543,-0.009662
2503,0.035379,-0.009543,-0.009662
2504,-0.010555,-0.009543,0.004761
2505,-0.033523,-0.009543,-0.009662
2506,0.035379,-0.009543,-0.009662
2507,-0.010555,-0.009543,-0.009662
2508,-0.010555,-0.009543,0.004761
2509,-0.05649,-0.009543,-0.024086
2510,-0.05649,-0.009543,-0.024086
2511,-0.033523,-0.025317,0.004761
2512,-0.010555,0.006231,0.019185
2513,-0.05649,0.006231,0.004761
2514,-0.033523,-0.009543,0.004761
2515,0.035379,0.006231,0.004761
2516,0.012412,-0.009543,0.004761
2517,-0.033523,-0.025317,-0.024086
2518,0.035379,-0.009543,-0.009662
2519,-0.033523,0.006231,-0.009662
2520,-0.05649,0.006231,0.004761
2521,-0.033523,-0.009543,0.004761
2522,0.012412,0.006231,0.019185
2523,0.012412,-0.009543,0.004761
2524,-0.033523,-0.009543,-0.009662
2525,-0.033523,-0.009543,0.004761
2526,-0.033523,-0.009543,0.004761
2527,0.035379,-0.025317,0.004761
2528,-0.033523,-0.025317,-0.024086
2529,-0.010555,-0.041091,-0.024086
2530,-0.010555,-0.025317,-0.024086
2531,0.012412,-0.009543,-0.03851
2532,-0.010555,-0.009543,-0.024086
2533,-0.010555,-0.009543,-0.009662
2534,0.035379,-0.025317,-0.024086
2535,0.012412,-0.009543,-0.009662
2536,-0.010555,-0.025317,-0.009662
2537,-0.010555,-0.009543,0.004761
2538,0.058346,0.022005,-0.009662
2539,0.058346,-0.009543,0.019185
2540,0.058346,-0.009543,-0.024086
2541,0.035379,0.006231,0.004761
2542,0.035379,-0.009543,0.004761
2543,-0.010555,0.006231,0.004761
2544,0.012412,-0.009543,-0.009662
2545,-0.010555,-0.025317,0.004761
2546,0.035379,-0.009543,0.004761
2547,-0.010555,-0.025317,0.019185
2548,-0.033523,-0.009543,-0.009662
2549,0.035379,-0.009543,-0.009662
2550,0.012412,-0.009543,-0.009662
2551,0.035379,-0.009543,-0.009662
2552,-0.033523,-0.009543,0.004761
2553,-0.05649,-0.025317,0.004761
2554,0.012412,-0.009543,0.004761
2555,-0.033523,-0.009543,0.019185
2556,-0.033523,0.006231,-0.009662
2557,-0.033523,-0.009543,0.004761
2558,0.012412,0.006231,-0.009662
2559,0.012412,-0.009543,0.004761
2560,-0.010555,0.006231,-0.009662
2561,-0.010555,-0.009543,-0.024086
2562,-0.010555,-0.009543,-0.024086
2563,0.012412,0.006231,-0.009662
2564,-0.010555,-0.025317,-0.009662
2565,-0.033523,0.006231,-0.009662
2566,-0.010555,0.006231,0.019185
2567,0.012412,-0.009543,0.019185
2568,-0.010555,-0.009543,0.019185
2569,0.012412,-0.009543,0.019185
2570,0.035379,-0.009543,-0.009662
2571,0.058346,0.006231,0.004761
2572,0.035379,-0.009543,0.019185
2573,0.012412,-0.009543,0.004761
2574,0.035379,-0.025317,-0.009662
2575,0.012412,-0.009543,-0.024086
2576,0.012412,-0.009543,-0.009662
2577,-0.010555,-0.009543,0.004761
2578,0.081313,-0.009543,0.004761
2579,0.035379,-0.009543,-0.024086
2580,-0.033523,-0.025317,-0.024086
2581,0.035379,-0.025317,-0.052934
2582,0.035379,-0.009543,-0.009662
2583,0.012412,0.006231,0.004761
2584,0.035379,-0.009543,0.004761
2585,0.058346,-0.025317,-0.009662
2586,0.012412,-0.009543,-0.024086
2587,-0.010555,-0.009543,-0.009662
2588,0.012412,-0.009543,0.004761
2589,-0.033523,0.006231,0.019185
2590,0.035379,0.006231,-0.009662
2591,-0.010555,0.006231,-0.009662
2592,-0.033523,-0.041091,-0.024086
2593,-0.05649,-0.009543,-0.009662
2594,-0.033523,-0.025317,-0.009662
2595,-0.010555,-0.009543,-0.009662
2596,-0.033523,-0.009543,-0.009662
2597,-0.010555,-0.025317,0.004761
2598,0.035379,-0.009543,-0.009662
2599,-0.05649,-0.025317,-0.009662
2600,-0.033523,-0.009543,-0.009662
2601,0.012412,-0.025317,0.004761
2602,0.035379,-0.025317,-0.009662
2603,-0.05649,-0.025317,-0.024086
2604,-0.033523,-0.009543,-0.009662
2605,-0.010555,0.006231,-0.009662
2606,0.035379,-0.009543,0.004761
2607,-0.033523,0.006231,-0.009662
2608,0.012412,-0.009543,0.004761
2609,0.012412,-0.009543,-0.009662
2610,0.012412,-0.056865,0.004761
2611,0.012412,-0.025317,-0.009662
2612,0.035379,0.006231,-0.024086
2613,0.012412,-0.025317,0.019185
2614,-0.010555,0.006231,0.004761
2615,0.012412,-0.009543,-0.009662
2616,0.012412,-0.009543,-0.009662
2617,0.012412,-0.009543,0.019185
2618,0.058346,-0.009543,-0.009662
2619,-0.010555,0.006231,-0.009662
2620,-0.010555,0.006231,-0.009662
2621,0.058346,-0.009543,0.004761
2622,0.035379,-0.009543,-0.009662
2623,0.012412,0.006231,-0.009662
2624,-0.010555,-0.009543,-0.009662
2625,0.035379,-0.009543,-0.009662
2626,-0.033523,-0.025317,0.004761
2627,0.012412,-0.009543,0.004761
2628,-0.033523,0.006231,0.004761
2629,0.035379,-0.009543,0.004761
2630,0.012412,0.022005,0.033609
2631,-0.033523,-0.009543,0.019185
2632,-0.033523,-0.009543,-0.009662
2633,-0.05649,-0.025317,-0.03851
2634,-0.010555,-0.009543,0.004761
2635,-0.033523,-0.025317,-0.009662
2636,-0.033523,-0.009543,-0.009662
2637,0.012412,0.006231,0.004761
2638,-0.033523,-0.009543,0.004761
2639,-0.010555,0.006231,-0.009662
2640,0.012412,-0.009543,-0.024086
2641,-0.010555,-0.025317,-0.009662
2642,0.012412,-0.009543,-0.009662
2643,-0.010555,-0.009543,-0.009662
2644,-0.010555,-0.009543,-0.009662
2645,0.035379,0.006231,-0.009662
2646,0.035379,-0.009543,-0.009662
2647,0.012412,-0.009543,-0.009662
2648,-0.010555,-0.009543,0.004761
2649,0.012412,-0.009543,0.004761
2650,0.035379,-0.025317,-0.009662
2651,0.012412,-0.025317,0.004761
2652,0.012412,-0.025317,0.004761
2653,0.012412,-0.009543,-0.009662
2654,0.012412,-0.009543,0.004761
2655,0.035379,0.006231,0.004761
2656,0.035379,-0.025317,0.004761
2657,0.058346,-0.009543,-0.009662
2658,0.012412,-0.025317,-0.009662
2659,0.012412,-0.025317,0.004761
2660,0.035379,0.006231,0.004761
2661,0.035379,0.006231,0.019185
2662,0.035379,0.006231,0.004761
2663,-0.010555,-0.025317,0.033609
2664,-0.05649,0.006231,0.004761
2665,0.058346,0.022005,0.004761
2666,-0.010555,-0.025317,-0.009662
2667,-0.05649,0.006231,-0.009662
2668,0.012412,-0.025317,-0.024086
2669,0.058346,-0.041091,-0.024086
2670,-0.010555,-0.025317,-0.024086
2671,-0.05649,-0.025317,-0.009662
2672,-0.05649,-0.025317,0.019185
2673,-0.010555,-0.025317,-0.009662
2674,-0.010555,-0.009543,0.004761
2675,-0.033523,-0.009543,0.004761
2676,-0.010555,-0.009543,-0.009662
2677,0.012412,-0.025317,0.004761
2678,-0.033523,-0.009543,-0.009662
2679,-0.033523,-0.009543,-0.009662
2680,-0.010555,-0.009543,0.004761
2681,-0.010555,-0.025317,0.004761
2682,-0.033523,-0.009543,0.004761
2683,0.035379,-0.009543,-0.009662
2684,-0.010555,-0.025317,-0.009662
2685,0.012412,-0.009543,0.004761
2686,0.012412,-0.025317,0.004761
2687,0.012412,-0.009543,-0.009662
2688,0.012412,-0.009543,0.019185
2689,0.012412,-0.009543,0.019185
2690,0.012412,-0.009543,0.004761
2691,-0.010555,-0.009543,-0.024086
2692,0.012412,-0.009543,-0.009662
2693,0.035379,-0.009543,0.019185
2694,-0.010555,0.006231,0.004761
2695,0.035379,0.006231,0.004761
2696,0.058346,-0.009543,0.004761
2697,0.058346,-0.009543,0.004761
2698,-0.05649,-0.009543,0.004761
2699,0.035379,-0.009543,-0.009662
2700,0.058346,-0.025317,0.004761
2701,0.035379,-0.009543,0.004761
2702,-0.010555,-0.009543,-0.009662
2703,-0.033523,-0.009543,-0.024086
2704,-0.010555,-0.009543,-0.009662
2705,0.012412,-0.025317,-0.009662
2706,-0.010555,-0.009543,0.004761
2707,-0.010555,-0.009543,0.004761
2708,-0.033523,-0.009543,-0.009662
2709,0.012412,-0.009543,0.004761
2710,0.012412,0.006231,0.019185
2711,0.012412,-0.009543,0.004761
2712,-0.033523,-0.009543,0.004761
2713,-0.033523,-0.025317,-0.009662
2714,-0.010555,0.006231,0.004761
2715,-0.033523,-0.009543,-0.009662
2716,-0.033523,-0.009543,-0.009662
2717,-0.033523,-0.009543,-0.009662
2718,-0.05649,-0.025317,-0.009662
2719,-0.010555,-0.009543,-0.009662
2720,-0.010555,0.006231,-0.009662
2721,-0.010555,0.006231,0.019185
2722,-0.010555,-0.009543,0.004761
2723,-0.010555,-0.009543,0.004761
2724,-0.033523,0.022005,-0.009662
2725,0.058346,-0.009543,0.004761
2726,0.012412,-0.025317,0.004761
2727,-0.010555,-0.009543,0.019185
2728,0.012412,-0.009543,-0.009662
2729,0.058346,-0.009543,0.004761
2730,0.012412,-0.009543,-0.024086
2731,0.012412,-0.009543,0.004761
2732,0.035379,-0.025317,-0.009662
2733,0.012412,-0.025317,-0.009662
2734,-0.010555,-0.009543,-0.009662
2735,-0.033523,0.006231,-0.009662
2736,0.035379,0.006231,-0.009662
2737,0.035379,-0.025317,-0.009662
2738,-0.010555,-0.009543,-0.009662
2739,-0.010555,0.006231,-0.009662
2740,0.012412,-0.009543,0.004761
2741,-0.033523,0.006231,0.019185
2742,-0.033523,-0.009543,-0.009662
2743,0.012412,0.006231,0.048033
2744,0.035379,-0.009543,-0.009662
2745,0.035379,-0.009543,0.004761
2746,-0.010555,0.006231,0.004761
2747,0.012412,-0.009543,-0.009662
2748,-0.010555,-0.009543,0.004761
2749,0.035379,-0.025317,-0.009662
2750,-0.033523,-0.009543,-0.024086
2751,-0.033523,-0.025317,-0.024086
2752,-0.010555,-0.041091,-0.009662
2753,-0.010555,-0.009543,0.004761
2754,-0.033523,-0.025317,-0.009662
2755,-0.010555,-0.025317,-0.009662
2756,0.012412,0.006231,0.004761
2757,-0.010555,-0.009543,0.004761
2758,0.012412,-0.009543,0.019185
2759,-0.010555,-0.025317,0.004761
2760,0.012412,0.006231,-0.009662
2761,-0.033523,-0.009543,0.004761
2762,-0.010555,0.022005,0.004761
2763,0.012412,-0.009543,0.004761
2764,0.058346,-0.009543,0.019185
2765,0.012412,0.006231,-0.009662
2766,0.012412,-0.009543,0.004761
2767,-0.010555,-0.009543,-0.024086
2768,0.012412,-0.025317,-0.024086
2769,0.035379,-0.025317,-0.024086
2770,-0.010555,0.006231,-0.009662
2771,-0.010555,-0.009543,-0.009662
2772,0.012412,0.006231,0.004761
2773,0.035379,-0.009543,0.004761
2774,0.035379,0.006231,0.004761
2775,0.035379,-0.025317,0.004761
2776,0.012412,0.006231,-0.024086
2777,-0.010555,-0.009543,-0.024086
2778,-0.033523,-0.025317,-0.024086
2779,0.035379,-0.009543,-0.009662
2780,0.012412,-0.009543,-0.009662
2781,-0.010555,-0.025317,-0.03851
2782,-0.010555,0.006231,-0.009662
2783,0.058346,0.006231,-0.009662
2784,0.012412,-0.009543,0.004761
2785,0.012412,-0.025317,-0.009662
2786,-0.010555,-0.009543,-0.009662
2787,-0.05649,-0.009543,0.004761
2788,-0.033523,-0.009543,-0.009662
2789,-0.033523,-0.025317,0.004761
2790,-0.033523,-0.009543,0.004761
2791,0.012412,-0.009543,-0.009662
2792,-0.010555,-0.025317,0.004761
2793,-0.010555,0.006231,0.004761
2794,-0.010555,-0.009543,0.004761
2795,0.035379,0.006231,0.004761
2796,-0.010555,-0.009543,-0.009662
2797,-0.079457,-0.025317,-0.009662
2798,-0.010555,-0.009543,-0.024086
2799,-0.010555,-0.009543,-0.024086
2800,0.012412,-0.009543,-0.009662
2801,-0.033523,-0.025317,-0.009662
2802,0.035379,0.006231,-0.024086
2803,0.012412,0.006231,0.004761
2804,0.012412,-0.025317,-0.009662
2805,0.012412,-0.025317,-0.009662
2806,-0.033523,0.006231,-0.009662
2807,0.012412,-0.009543,-0.024086
2808,0.012412,-0.009543,-0.009662
2809,-0.033523,-0.025317,0.004761
2810,0.012412,0.006231,-0.009662
2811,0.035379,-0.025317,-0.009662
2812,0.035379,-0.009543,-0.009662
2813,-0.010555,-0.009543,0.004761
2814,0.058346,-0.009543,0.004761
2815,0.081313,-0.009543,0.019185
2816,0.012412,0.006231,0.004761
2817,-0.033523,-0.009543,-0.009662
2818,0.012412,-0.009543,0.004761
2819,0.012412,-0.009543,-0.009662
2820,0.012412,-0.025317,0.004761
2821,-0.033523,-0.009543,0.004761
2822,-0.010555,-0.009543,-0.009662
2823,0.012412,0.006231,0.004761
2824,-0.010555,0.006231,0.004761
2825,-0.033523,-0.009543,0.004761
2826,-0.010555,-0.009543,-0.009662
2827,0.012412,-0.025317,-0.009662
2828,0.012412,-0.009543,-0.009662
2829,-0.05649,-0.025317,0.004761
2830,-0.010555,-0.009543,0.004761
2831,0.012412,-0.009543,0.004761
2832,0.012412,-0.009543,0.004761
2833,-0.05649,0.006231,0.004761
2834,-0.05649,-0.025317,-0.024086
2835,-0.05649,-0.009543,-0.024086
2836,-0.033523,0.006231,0.004761
2837,-0.033523,-0.009543,0.004761
2838,-0.033523,-0.009543,-0.009662
2839,-0.05649,-0.009543,-0.009662
2840,0.058346,-0.025317,-0.009662
2841,-0.05649,-0.025317,-0.024086
2842,0.012412,-0.009543,0.004761
2843,-0.010555,-0.009543,-0.009662
2844,0.035379,-0.025317,-0.009662
2845,-0.010555,-0.009543,-0.024086
2846,0.035379,-0.009543,-0.009662
2847,0.035379,-0.009543,-0.009662
2848,0.012412,-0.009543,-0.024086
2849,0.012412,-0.009543,-0.009662
2850,0.012412,-0.009543,-0.009662
2851,0.058346,0.006231,0.004761
2852,-0.010555,-0.009543,0.004761
2853,-0.05649,0.006231,0.004761
2854,0.035379,-0.009543,0.004761
2855,0.035379,0.006231,0.019185
2856,-0.010555,-0.009543,0.048033
2857,-0.033523,-0.009543,0.019185
2858,0.012412,-0.009543,-0.009662
2859,0.035379,-0.009543,0.004761
2860,-0.010555,-0.009543,0.004761
2861,-0.079457,-0.009543,0.019185
2862,-0.033523,-0.009543,0.004761
2863,0.035379,-0.009543,0.004761
2864,-0.033523,-0.009543,-0.009662
2865,-0.033523,-0.009543,0.004761
2866,-0.079457,-0.009543,0.004761
2867,-0.010555,-0.009543,0.004761
2868,-0.010555,0.006231,0.004761
2869,-0.05649,-0.009543,0.004761
2870,-0.010555,-0.009543,-0.009662
2871,-0.033523,-0.025317,-0.024086
2872,-0.05649,-0.025317,-0.024086
2873,-0.033523,0.022005,-0.009662
2874,-0.010555,0.022005,0.004761
2875,0.012412,-0.009543,0.004761
2876,-0.05649,-0.009543,0.004761
2877,-0.010555,-0.025317,-0.009662
2878,-0.010555,-0.025317,-0.009662
2879,0.012412,-0.025317,-0.024086
2880,0.035379,-0.009543,-0.009662
2881,0.012412,0.006231,-0.009662
2882,0.012412,-0.009543,-0.009662
2883,-0.010555,-0.009543,-0.009662
2884,0.012412,0.006231,0.019185
2885,-0.010555,-0.025317,0.004761
2886,-0.033523,0.006231,0.004761
2887,0.012412,-0.025317,-0.009662
2888,0.035379,-0.025317,0.004761
2889,-0.010555,-0.009543,0.019185
2890,-0.010555,-0.009543,0.019185
2891,-0.010555,0.006231,0.004761
2892,0.035379,-0.025317,0.004761
2893,0.012412,-0.009543,-0.009662
2894,0.058346,-0.009543,0.019185
2895,0.012412,-0.009543,0.004761
2896,-0.05649,0.006231,0.004761
2897,-0.010555,-0.009543,0.048033
2898,0.035379,-0.009543,0.004761
2899,0.035379,-0.009543,-0.024086
2900,-0.010555,-0.025317,-0.024086
2901,-0.05649,-0.025317,-0.009662
2902,0.012412,-0.025317,-0.009662
2903,0.012412,-0.025317,-0.024086
2904,-0.033523,0.006231,-0.009662
2905,-0.033523,-0.041091,-0.009662
2906,-0.033523,-0.025317,-0.009662
2907,-0.010555,-0.009543,-0.024086
2908,-0.033523,0.006231,0.004761
2909,-0.033523,-0.009543,0.004761
2910,0.035379,-0.009543,0.004761
2911,-0.010555,-0.009543,0.004761
2912,-0.033523,-0.009543,-0.009662
2913,0.012412,-0.009543,-0.009662
2914,0.012412,-0.009543,-0.009662
2915,-0.033523,-0.025317,-0.009662
2916,-0.010555,-0.009543,-0.024086
2917,0.012412,0.006231,-0.009662
2918,0.012412,0.006231,0.004761
2919,0.012412,0.006231,-0.024086
2920,-0.033523,-0.009543,0.004761
2921,0.035379,-0.009543,0.004761
2922,-0.010555,-0.009543,0.004761
2923,0.058346,-0.009543,0.019185
2924,-0.010555,-0.009543,0.004761
2925,0.012412,0.006231,-0.009662
2926,0.012412,-0.025317,-0.009662
2927,0.012412,-0.009543,0.004761
2928,0.012412,-0.009543,-0.009662
2929,0.035379,0.006231,0.004761
2930,-0.010555,-0.009543,0.004761
2931,-0.010555,-0.009543,-0.009662
2932,0.012412,-0.025317,-0.009662
2933,0.035379,-0.009543,0.004761
2934,0.012412,0.006231,-0.009662
2935,-0.010555,-0.025317,-0.009662
2936,-0.010555,-0.025317,-0.009662
2937,0.012412,-0.009543,-0.009662
2938,0.058346,-0.009543,-0.009662
2939,-0.033523,-0.009543,0.004761
2940,-0.010555,-0.009543,0.004761
2941,0.012412,-0.009543,-0.009662
2942,-0.010555,-0.009543,-0.009662
2943,-0.033523,-0.025317,0.004761
2944,-0.033523,-0.025317,-0.009662
2945,-0.033523,-0.025317,-0.009662
2946,-0.05649,-0.009543,-0.024086
2947,-0.010555,-0.025317,-0.009662
2948,-0.05649,-0.025317,-0.009662
2949,0.012412,-0.009543,0.004761
2950,0.012412,-0.009543,0.004761
2951,-0.033523,-0.009543,0.004761
2952,-0.033523,-0.009543,0.004761
2953,-0.033523,-0.009543,0.004761
2954,-0.010555,-0.025317,-0.024086
2955,-0.033523,-0.009543,-0.009662
2956,0.012412,-0.009543,0.019185
2957,0.035379,-0.009543,-0.009662
2958,0.035379,0.006231,0.004761
2959,0.035379,-0.009543,-0.024086
2960,-0.010555,0.006231,0.019185
2961,0.035379,-0.025317,0.004761
2962,0.035379,-0.009543,-0.009662
2963,0.058346,-0.009543,0.004761
2964,0.035379,0.006231,0.004761
2965,-0.010555,-0.009543,0.004761
2966,0.035379,-0.025317,0.004761
2967,-0.033523,0.069328,0.004761
2968,-0.010555,-0.009543,-0.009662
2969,0.058346,-0.025317,-0.009662
2970,0.012412,-0.009543,-0.009662
2971,-0.033523,-0.009543,-0.009662
2972,-0.033523,-0.025317,-0.024086
2973,0.035379,-0.025317,-0.024086
2974,0.012412,-0.041091,-0.009662
2975,-0.010555,-0.009543,-0.009662
2976,0.035379,-0.009543,-0.009662
2977,0.035379,0.006231,-0.009662
2978,0.012412,-0.009543,0.019185
2979,-0.033523,-0.009543,0.004761
2980,-0.033523,0.006231,-0.009662
2981,0.035379,0.006231,0.004761
2982,-0.010555,-0.009543,0.004761
2983,-0.079457,0.006231,0.033609
2984,0.058346,-0.009543,0.019185
2985,0.012412,0.03778,0.004761
2986,0.012412,0.006231,0.004761
2987,-0.05649,-0.009543,-0.024086
2988,-0.033523,-0.009543,0.004761
2989,0.012412,-0.025317,-0.009662
2990,-0.033523,-0.025317,-0.024086
2991,-0.010555,-0.009543,-0.009662
2992,0.012412,-0.025317,-0.009662
2993,-0.010555,-0.025317,-0.009662
2994,0.035379,-0.025317,-0.009662
2995,-0.010555,-0.009543,-0.024086
2996,-0.010555,-0.009543,-0.009662
2997,0.035379,-0.009543,0.004761
2998,0.035379,-0.025317,0.004761
2999,0.035379,-0.025317,-0.009662
3000,0.012412,0.006231,-0.009662
3001,0.035379,-0.041091,0.004761
3002,0.012412,-0.009543,0.004761
3003,0.035379,-0.009543,0.004761
3004,0.035379,-0.009543,-0.009662
3005,0.012412,-0.025317,0.019185
3006,0.035379,-0.009543,0.004761
3007,-0.010555,0.006231,-0.009662
3008,0.10428,0.006231,0.004761
3009,0.012412,0.006231,0.004761
3010,0.012412,-0.009543,0.048033
3011,-0.010555,-0.009543,-0.024086
3012,-0.010555,-0.009543,-0.024086
3013,0.012412,-0.025317,0.004761
3014,-0.05649,-0.041091,0.004761
3015,-0.05649,0.006231,0.004761
3016,0.012412,-0.009543,0.004761
3017,0.012412,-0.009543,-0.009662
3018,-0.010555,-0.009543,-0.024086
3019,-0.033523,-0.025317,-0.009662
3020,-0.010555,-0.009543,0.019185
3021,-0.05649,0.006231,0.004761
3022,-0.033523,-0.009543,-0.009662
3023,-0.05649,-0.025317,-0.009662
3024,-0.010555,-0.009543,-0.009662
3025,-0.010555,-0.009543,-0.009662
3026,-0.010555,0.022005,0.004761
3027,0.012412,0.006231,-0.009662
3028,0.035379,-0.025317,-0.009662
3029,-0.010555,0.006231,0.004761
3030,0.012412,-0.025317,0.004761
3031,0.035379,-0.025317,-0.009662
3032,-0.010555,-0.025317,0.004761
3033,-0.010555,-0.009543,-0.024086
3034,-0.010555,-0.025317,-0.009662
3035,-0.033523,-0.009543,-0.009662
3036,-0.010555,-0.009543,0.004761
3037,0.035379,-0.025317,0.019185
3038,-0.033523,-0.009543,-0.009662
3039,0.012412,-0.025317,-0.009662
3040,0.012412,-0.009543,0.004761
3041,0.035379,0.006231,-0.009662
3042,0.035379,-0.009543,-0.009662
3043,0.012412,-0.009543,0.004761
3044,0.035379,-0.009543,-0.009662
3045,0.012412,-0.025317,0.019185
3046,0.012412,0.006231,0.004761
3047,0.035379,-0.009543,0.004761
3048,0.012412,-0.025317,0.004761
3049,-0.010555,-0.009543,-0.009662
3050,-0.033523,-0.025317,-0.009662
3051,-0.033523,-0.009543,-0.009662
3052,-0.033523,-0.009543,-0.009662
3053,0.035379,-0.009543,-0.009662
3054,-0.010555,-0.009543,-0.024086
3055,-0.033523,-0.025317,0.019185
3056,0.012412,0.006231,0.004761
3057,-0.010555,0.006231,0.019185
3058,-0.033523,-0.009543,0.004761
3059,0.035379,0.022005,0.033609
3060,0.012412,-0.009543,0.019185
3061,-0.010555,-0.025317,0.004761
3062,-0.033523,-0.009543,0.004761
3063,-0.010555,-0.041091,-0.024086
3064,0.012412,-0.009543,-0.009662
3065,-0.05649,-0.009543,0.019185
3066,-0.010555,-0.009543,-0.009662
3067,-0.033523,-0.009543,-0.024086
3068,0.035379,-0.009543,-0.024086
3069,-0.010555,-0.009543,0.004761
3070,-0.033523,-0.009543,-0.03851
3071,-0.010555,-0.009543,-0.009662
3072,0.012412,-0.009543,0.004761
3073,0.012412,0.006231,-0.009662
3074,0.035379,-0.009543,-0.009662
3075,0.081313,-0.025317,-0.024086
3076,-0.010555,-0.009543,-0.024086
3077,-0.010555,-0.041091,-0.009662
3078,0.012412,-0.041091,-0.009662
3079,0.058346,-0.009543,0.004761
3080,0.012412,-0.041091,0.004761
3081,-0.010555,-0.025317,0.019185
3082,-0.010555,0.006231,0.004761
3083,0.012412,-0.025317,-0.009662
3084,-0.010555,-0.009543,0.004761
3085,0.035379,-0.025317,0.004761
3086,-0.033523,-0.009543,0.004761
3087,-0.033523,-0.009543,-0.009662
3088,0.035379,-0.025317,-0.009662
3089,-0.010555,-0.009543,-0.024086
3090,-0.033523,-0.009543,-0.009662
3091,0.012412,0.006231,-0.009662
3092,-0.010555,-0.009543,0.004761
3093,-0.05649,0.022005,-0.009662
3094,-0.05649,-0.025317,0.004761
3095,0.012412,-0.009543,-0.009662
3096,0.012412,-0.009543,-0.009662
3097,-0.033523,-0.041091,-0.009662
3098,0.012412,-0.009543,0.004761
3099,0.035379,-0.009543,-0.024086
3100,-0.05649,-0.009543,0.019185
3101,0.012412,0.006231,0.004761
3102,-0.010555,-0.009543,0.004761
3103,0.035379,-0.009543,-0.009662
3104,0.058346,0.006231,0.004761
3105,-0.010555,0.006231,-0.009662
3106,0.012412,0.006231,-0.009662
3107,0.058346,-0.009543,-0.009662
3108,0.035379,0.006231,-0.024086
3109,0.012412,0.006231,-0.009662
3110,-0.010555,-0.025317,0.004761
3111,0.035379,-0.025317,-0.009662
3112,0.058346,-0.009543,-0.024086
3113,-0.010555,0.006231,-0.009662
3114,0.012412,-0.025317,-0.009662
3115,0.035379,-0.009543,-0.009662
3116,-0.010555,-0.009543,-0.009662
3117,0.012412,-0.025317,0.004761
3118,0.058346,-0.009543,-0.024086
3119,0.058346,-0.009543,-0.009662
3120,0.058346,0.006231,-0.009662
3121,0.035379,0.022005,0.019185
3122,0.035379,0.022005,0.004761
3123,0.035379,0.022005,0.019185
3124,-0.010555,0.006231,0.019185
3125,0.012412,-0.009543,0.019185
3126,-0.010555,-0.009543,-0.009662
3127,0.012412,-0.009543,0.019185
3128,-0.033523,-0.025317,-0.009662
3129,-0.010555,-0.009543,-0.009662
3130,-0.033523,-0.025317,-0.009662
3131,-0.05649,-0.009543,0.019185
3132,-0.010555,-0.025317,-0.009662
3133,-0.033523,-0.041091,-0.009662
3134,-0.010555,-0.009543,-0.009662
3135,-0.010555,-0.025317,-0.009662
3136,-0.05649,-0.009543,-0.009662
3137,-0.033523,0.006231,-0.009662
3138,-0.05649,-0.009543,0.004761
3139,0.035379,0.006231,-0.009662
3140,-0.033523,-0.009543,0.004761
3141,-0.033523,-0.025317,-0.009662
3142,-0.010555,-0.025317,-0.009662
3143,0.012412,0.006231,-0.009662
3144,-0.033523,-0.009543,0.004761
3145,0.035379,-0.009543,0.004761
3146,0.035379,-0.009543,0.004761
3147,0.081313,-0.009543,-0.009662
3148,0.035379,-0.009543,-0.009662
3149,0.035379,-0.025317,-0.024086
3150,0.035379,-0.009543,-0.009662
3151,0.035379,-0.009543,-0.009662
3152,-0.033523,0.006231,-0.009662
3153,0.035379,-0.009543,0.004761
3154,0.035379,0.006231,0.004761
3155,-0.010555,-0.009543,0.004761
3156,-0.010555,-0.009543,0.019185
3157,0.058346,0.069328,0.019185
3158,0.035379,0.006231,0.004761
3159,0.012412,-0.009543,-0.024086
3160,-0.010555,0.006231,-0.009662
3161,-0.010555,-0.009543,0.048033
3162,-0.010555,-0.009543,-0.009662
3163,0.012412,-0.009543,-0.009662
3164,-0.033523,0.006231,-0.009662
3165,-0.033523,-0.009543,0.004761
3166,-0.010555,0.006231,0.004761
3167,-0.033523,-0.009543,-0.024086
3168,-0.033523,-0.009543,-0.024086
3169,-0.010555,-0.009543,-0.024086
3170,-0.033523,-0.025317,-0.009662
3171,-0.010555,-0.009543,0.004761
3172,-0.033523,-0.025317,-0.009662
3173,-0.033523,-0.009543,-0.009662
3174,0.035379,-0.009543,-0.009662
3175,0.012412,-0.009543,0.004761
3176,-0.033523,0.006231,-0.024086
3177,0.012412,0.006231,-0.009662
3178,0.058346,0.006231,0.004761
3179,-0.010555,-0.025317,-0.009662
3180,-0.010555,-0.009543,-0.024086
3181,0.012412,-0.009543,0.004761
3182,0.012412,0.006231,-0.024086
3183,0.035379,-0.025317,-0.009662
3184,0.035379,-0.009543,0.004761
3185,0.012412,0.006231,0.004761
3186,0.012412,0.006231,-0.009662
3187,0.035379,-0.009543,0.004761
3188,-0.010555,0.006231,0.019185
3189,0.012412,0.006231,0.019185
3190,0.035379,-0.009543,0.004761
3191,0.081313,-0.009543,0.004761
3192,0.012412,0.006231,0.019185
3193,0.058346,-0.009543,0.004761
3194,-0.010555,0.006231,-0.024086
3195,0.012412,-0.025317,-0.024086
3196,-0.033523,-0.009543,0.004761
3197,0.035379,-0.025317,0.004761
3198,0.035379,-0.025317,0.004761
3199,-0.010555,0.006231,0.019185
3200,-0.010555,0.006231,0.004761
3201,0.035379,-0.009543,0.004761
3202,0.012412,-0.009543,-0.024086
3203,0.012412,-0.025317,0.004761
3204,-0.010555,-0.025317,0.019185
3205,0.012412,-0.009543,-0.009662
3206,-0.010555,0.006231,-0.024086
3207,-0.033523,-0.009543,-0.009662
3208,0.012412,-0.025317,-0.009662
3209,-0.033523,0.006231,-0.009662
3210,0.012412,-0.009543,-0.009662
3211,-0.05649,0.006231,0.004761
3212,-0.033523,-0.025317,0.004761
3213,-0.033523,-0.009543,-0.009662
3214,-0.010555,-0.009543,-0.009662
3215,-0.05649,-0.025317,-0.009662
3216,-0.033523,-0.025317,0.004761
3217,-0.010555,-0.009543,-0.009662
3218,-0.010555,-0.009543,0.004761
3219,-0.05649,0.006231,0.004761
3220,-0.010555,-0.025317,-0.024086
3221,0.035379,-0.009543,-0.009662
3222,0.035379,-0.009543,0.004761
3223,-0.033523,-0.009543,-0.009662
3224,0.035379,-0.009543,0.004761
3225,0.012412,0.006231,-0.009662
3226,-0.010555,-0.025317,0.004761
3227,0.035379,-0.009543,-0.009662
3228,0.012412,0.006231,0.019185
3229,0.035379,-0.009543,0.004761
3230,0.012412,-0.025317,0.004761
3231,0.012412,-0.009543,0.004761
3232,0.012412,-0.025317,-0.009662
3233,0.035379,-0.025317,0.004761
3234,0.012412,-0.009543,0.004761
3235,0.012412,-0.025317,-0.009662
3236,-0.010555,-0.009543,-0.024086
3237,0.035379,-0.009543,-0.009662
3238,0.012412,0.006231,-0.009662
3239,0.035379,-0.009543,0.019185
3240,-0.010555,-0.009543,0.019185
3241,0.035379,-0.009543,0.004761
3242,0.012412,0.006231,0.004761
3243,0.035379,0.006231,0.004761
3244,-0.010555,0.006231,0.004761
3245,-0.010555,-0.009543,-0.009662
3246,0.012412,-0.041091,0.019185
3247,-0.05649,-0.025317,0.019185
3248,-0.010555,0.006231,-0.009662
3249,0.012412,0.022005,-0.024086
3250,-0.010555,-0.009543,0.004761
3251,-0.033523,-0.009543,-0.009662
3252,-0.05649,0.006231,-0.024086
3253,0.012412,-0.025317,-0.009662
3254,-0.033523,-0.041091,-0.009662
3255,-0.033523,-0.025317,0.004761
3256,-0.010555,-0.041091,0.004761
3257,-0.010555,-0.025317,0.004761
3258,0.058346,-0.009543,0.004761
3259,0.012412,-0.009543,0.019185
3260,-0.033523,0.006231,-0.009662
3261,0.035379,0.006231,0.019185
3262,0.035379,-0.009543,0.004761
3263,-0.033523,0.006231,-0.009662
3264,0.012412,-0.041091,-0.024086
3265,0.012412,0.006231,-0.009662
3266,0.012412,-0.009543,-0.009662
3267,-0.010555,-0.009543,-0.009662
3268,0.035379,-0.009543,-0.009662
3269,0.035379,-0.025317,-0.009662
3270,0.035379,-0.009543,-0.009662
3271,-0.010555,-0.009543,-0.009662
3272,0.012412,-0.009543,0.004761
3273,0.058346,0.006231,0.004761
3274,-0.010555,-0.009543,0.019185
3275,-0.033523,-0.025317,-0.009662
3276,0.035379,-0.009543,-0.009662
3277,0.012412,-0.009543,-0.009662
3278,0.012412,-0.009543,-0.009662
3279,-0.033523,0.006231,-0.009662
3280,0.012412,-0.025317,0.004761
3281,-0.010555,-0.009543,-0.009662
3282,-0.010555,0.006231,0.004761
3283,-0.010555,-0.009543,0.004761
3284,-0.010555,-0.009543,0.004761
3285,-0.010555,-0.009543,-0.009662
3286,-0.033523,-0.009543,0.004761
3287,-0.033523,0.006231,-0.009662
3288,0.012412,0.006231,0.004761
3289,-0.033523,-0.009543,-0.009662
3290,-0.05649,-0.025317,-0.009662
3291,-0.033523,0.006231,-0.009662
3292,0.012412,-0.025317,-0.009662
3293,-0.010555,-0.025317,-0.009662
3294,0.012412,-0.009543,-0.009662
3295,0.012412,-0.025317,-0.009662
3296,0.012412,-0.025317,0.004761
3297,-0.010555,-0.009543,-0.009662
3298,-0.079457,-0.025317,0.019185
3299,0.012412,-0.009543,0.004761
3300,0.035379,-0.009543,-0.009662
3301,0.012412,-0.009543,-0.009662
3302,0.035379,0.006231,-0.024086
3303,-0.010555,0.006231,0.004761
3304,0.035379,0.006231,-0.009662
3305,0.058346,-0.009543,0.004761
3306,0.012412,-0.009543,-0.024086
3307,-0.010555,-0.009543,0.004761
3308,0.035379,-0.009543,-0.009662
3309,0.035379,-0.009543,0.004761
3310,0.012412,-0.009543,-0.009662
3311,0.035379,0.006231,0.019185
3312,0.035379,0.006231,0.019185
3313,0.035379,0.006231,0.019185
3314,-0.010555,-0.025317,0.004761
3315,-0.033523,-0.025317,-0.009662
3316,0.012412,-0.009543,-0.024086
3317,0.012412,-0.025317,-0.024086
3318,-0.033523,-0.025317,-0.03851
3319,-0.033523,-0.009543,-0.024086
3320,-0.010555,-0.009543,-0.009662
3321,-0.010555,-0.009543,0.004761
3322,0.035379,-0.009543,-0.024086
3323,0.012412,-0.009543,-0.024086
3324,0.012412,-0.025317,-0.024086
3325,-0.010555,-0.025317,-0.009662
3326,-0.033523,-0.025317,-0.009662
3327,-0.05649,-0.009543,-0.009662
3328,0.012412,0.006231,0.004761
3329,-0.033523,0.006231,0.004761
3330,-0.033523,-0.009543,-0.009662
3331,-0.010555,0.006231,-0.009662
3332,-0.010555,-0.009543,-0.009662
3333,-0.010555,-0.009543,-0.009662
3334,0.012412,-0.009543,-0.009662
3335,0.012412,0.006231,-0.009662
3336,0.012412,-0.009543,0.004761
3337,0.035379,0.006231,-0.009662
3338,-0.079457,-0.009543,-0.009662
3339,0.012412,-0.009543,-0.009662
3340,0.012412,-0.009543,0.004761
3341,0.035379,-0.009543,0.004761
3342,0.035379,-0.009543,0.004761
3343,-0.010555,-0.009543,0.004761
3344,0.012412,0.006231,0.004761
3345,0.058346,-0.009543,-0.009662
3346,-0.033523,-0.009543,-0.009662
3347,0.012412,-0.025317,-0.009662
3348,0.058346,0.006231,0.004761
3349,0.012412,-0.009543,0.004761
3350,0.012412,-0.009543,-0.009662
3351,-0.010555,-0.009543,0.004761
3352,0.035379,-0.009543,-0.009662
3353,-0.010555,-0.009543,0.004761
3354,-0.033523,0.022005,0.004761
3355,0.058346,0.006231,0.004761
3356,0.012412,0.006231,-0.009662
3357,0.058346,0.006231,0.019185
3358,0.012412,-0.009543,0.004761
3359,-0.033523,0.006231,0.019185
3360,0.012412,-0.009543,-0.024086
3361,-0.010555,-0.041091,-0.024086
3362,0.012412,-0.025317,-0.024086
3363,-0.05649,-0.025317,-0.024086
3364,-0.010555,-0.009543,-0.024086
3365,-0.05649,0.006231,0.004761
3366,-0.010555,-0.009543,-0.009662
3367,-0.033523,0.006231,0.019185
3368,-0.05649,-0.009543,-0.009662
3369,-0.033523,-0.009543,0.004761
3370,-0.05649,0.006231,0.004761
3371,-0.033523,-0.009543,0.004761
3372,-0.010555,0.006231,0.004761
3373,-0.010555,0.006231,0.004761
3374,0.012412,-0.009543,-0.024086
3375,-0.010555,0.006231,0.004761
3376,0.012412,-0.009543,0.004761
3377,-0.010555,-0.025317,-0.009662
3378,-0.010555,-0.025317,-0.024086
3379,0.012412,0.006231,0.004761
3380,-0.010555,-0.009543,0.004761
3381,-0.033523,-0.025317,-0.009662
3382,0.012412,-0.009543,-0.024086
3383,-0.033523,-0.009543,0.004761
3384,0.035379,-0.009543,0.004761
3385,-0.010555,-0.009543,0.004761
3386,0.012412,0.006231,-0.009662
3387,0.012412,-0.009543,-0.009662
3388,0.035379,-0.009543,-0.009662
3389,0.058346,-0.009543,-0.009662
3390,0.058346,-0.025317,-0.009662
3391,0.035379,0.006231,-0.009662
3392,0.035379,0.006231,0.004761
3393,0.012412,-0.009543,-0.009662
3394,-0.033523,0.006231,0.019185
3395,0.058346,-0.009543,0.004761
3396,0.012412,-0.009543,0.019185
3397,0.035379,-0.009543,-0.009662
3398,-0.010555,-0.009543,0.019185
3399,0.035379,0.022005,-0.009662
3400,-0.033523,-0.009543,0.019185
3401,-0.079457,-0.009543,-0.009662
3402,-0.033523,-0.009543,0.004761
3403,-0.010555,-0.025317,-0.009662
3404,0.012412,-0.025317,-0.009662
3405,-0.010555,-0.009543,-0.009662
3406,-0.033523,-0.009543,0.004761
3407,0.012412,-0.009543,0.048033
3408,-0.010555,-0.025317,-0.024086
3409,-0.033523,-0.009543,-0.009662
3410,-0.079457,-0.009543,0.004761
3411,-0.033523,-0.041091,0.004761
3412,0.012412,-0.025317,0.004761
3413,-0.010555,-0.025317,-0.024086
3414,-0.010555,-0.009543,0.004761
3415,-0.010555,-0.009543,-0.009662
3416,-0.010555,-0.009543,-0.024086
3417,0.012412,-0.009543,0.004761
3418,-0.010555,-0.009543,-0.009662
3419,-0.010555,0.006231,0.004761
3420,0.035379,-0.009543,0.004761
3421,-0.010555,-0.009543,-0.009662
3422,0.012412,-0.025317,0.004761
3423,-0.033523,-0.009543,0.004761
3424,0.035379,0.006231,0.004761
3425,-0.010555,0.006231,-0.009662
3426,0.035379,-0.009543,0.033609
3427,0.035379,0.006231,0.004761
3428,0.058346,-0.009543,-0.009662
3429,0.012412,-0.009543,0.004761
3430,0.012412,-0.009543,-0.009662
3431,0.035379,-0.009543,0.004761
3432,0.058346,0.006231,0.004761
3433,0.035379,-0.009543,0.019185
3434,0.012412,0.022005,0.004761
3435,0.012412,-0.009543,0.033609
3436,0.012412,-0.009543,0.004761
3437,0.012412,-0.009543,-0.009662
3438,0.012412,0.006231,-0.024086
3439,0.012412,-0.025317,-0.024086
3440,0.012412,-0.056865,-0.009662
3441,0.012412,-0.009543,-0.009662
3442,-0.010555,-0.009543,0.004761
3443,0.058346,-0.009543,-0.009662
3444,-0.010555,-0.009543,-0.009662
3445,0.058346,0.006231,0.004761
3446,0.012412,-0.009543,-0.009662
3447,0.035379,-0.009543,0.004761
3448,-0.010555,-0.025317,-0.03851
3449,-0.010555,-0.025317,-0.024086
3450,-0.010555,-0.025317,-0.024086
3451,-0.05649,-0.009543,-0.009662
3452,0.012412,-0.009543,-0.009662
3453,-0.010555,-0.009543,-0.009662
3454,-0.05649,0.006231,-0.009662
3455,-0.033523,-0.009543,0.004761
3456,0.012412,-0.009543,-0.024086
3457,0.012412,-0.009543,0.004761
3458,-0.010555,-0.009543,0.004761
3459,-0.010555,-0.009543,-0.009662
3460,0.058346,-0.009543,0.004761
3461,0.012412,-0.009543,0.004761
3462,-0.079457,-0.009543,0.004761
3463,-0.033523,-0.009543,-0.009662
3464,0.012412,0.006231,0.004761
3465,-0.010555,0.006231,0.019185
3466,-0.033523,0.006231,0.004761
3467,0.012412,-0.009543,-0.024086
3468,0.012412,-0.025317,-0.009662
3469,-0.033523,-0.009543,-0.009662
3470,0.012412,-0.025317,-0.009662
3471,0.012412,-0.009543,-0.024086
3472,-0.010555,-0.009543,-0.009662
3473,0.058346,-0.009543,0.004761
3474,0.035379,-0.009543,0.004761
3475,0.012412,0.006231,0.004761
3476,0.035379,0.006231,0.004761
3477,0.035379,-0.009543,0.019185
3478,-0.033523,-0.025317,0.004761
3479,-0.033523,-0.009543,-0.009662
3480,0.012412,-0.025317,-0.009662
3481,-0.010555,-0.009543,-0.009662
3482,0.035379,0.022005,0.004761
3483,0.035379,0.006231,-0.009662
3484,0.058346,0.006231,0.019185
3485,0.012412,0.006231,0.019185
3486,-0.010555,0.006231,0.004761
3487,0.035379,-0.009543,0.004761
3488,0.012412,-0.009543,0.019185
3489,0.035379,-0.009543,0.004761
3490,0.012412,0.006231,0.004761
3491,0.012412,-0.009543,0.019185
3492,-0.010555,-0.009543,0.004761
3493,-0.033523,0.006231,-0.024086
3494,-0.010555,-0.009543,-0.024086
3495,-0.010555,-0.009543,0.048033
3496,-0.010555,-0.025317,-0.024086
3497,-0.010555,-0.041091,-0.03851
3498,-0.010555,-0.041091,-0.03851
3499,-0.033523,0.006231,-0.024086
3500,-0.010555,-0.009543,-0.024086
3501,-0.033523,-0.009543,0.004761
3502,-0.033523,-0.025317,-0.009662
3503,-0.05649,-0.025317,-0.009662
3504,0.012412,-0.009543,-0.009662
3505,-0.05649,-0.009543,0.004761
3506,-0.033523,-0.009543,-0.024086
3507,0.012412,-0.009543,-0.009662
3508,-0.010555,-0.025317,-0.009662
3509,-0.05649,-0.009543,-0.009662
3510,0.035379,-0.009543,-0.024086
3511,0.035379,-0.025317,-0.009662
3512,0.012412,-0.009543,0.004761
3513,0.035379,0.006231,0.004761
3514,0.012412,-0.009543,-0.024086
3515,0.012412,-0.009543,0.004761
3516,0.012412,-0.025317,-0.009662
3517,0.012412,-0.025317,0.004761
3518,0.012412,0.006231,0.004761
3519,0.012412,-0.009543,0.019185
3520,0.058346,-0.009543,0.004761
3521,-0.010555,0.006231,0.004761
3522,0.012412,0.006231,0.004761
3523,0.012412,0.006231,-0.009662
3524,0.012412,-0.009543,0.004761
3525,0.012412,-0.009543,-0.009662
3526,-0.010555,-0.025317,0.004761
3527,0.058346,0.006231,-0.009662
3528,0.012412,-0.009543,0.004761
3529,0.012412,-0.025317,0.004761
3530,-0.010555,-0.009543,0.019185
3531,0.035379,-0.025317,0.004761
3532,-0.033523,-0.025317,0.004761
3533,0.012412,0.006231,0.004761
3534,-0.033523,-0.009543,0.004761
3535,-0.033523,-0.009543,-0.024086
3536,-0.033523,0.006231,0.004761
3537,-0.010555,0.006231,0.004761
3538,-0.033523,-0.009543,-0.009662
3539,-0.033523,-0.009543,-0.009662
3540,-0.010555,-0.009543,-0.009662
3541,-0.010555,-0.009543,-0.009662
3542,-0.033523,-0.025317,0.004761
3543,-0.010555,-0.025317,0.004761
3544,-0.010555,0.006231,-0.009662
3545,-0.010555,0.006231,0.004761
3546,-0.010555,-0.009543,0.019185
3547,-0.010555,-0.009543,0.004761
3548,-0.010555,0.006231,-0.009662
3549,-0.010555,-0.041091,-0.009662
3550,-0.033523,-0.025317,-0.009662
3551,0.012412,0.006231,-0.009662
3552,-0.033523,-0.041091,-0.009662
3553,-0.033523,0.006231,0.004761
3554,0.012412,-0.025317,0.004761
3555,-0.010555,-0.009543,0.004761
3556,-0.010555,-0.009543,0.004761
3557,-0.010555,0.069328,-0.009662
3558,0.035379,-0.009543,-0.009662
3559,0.058346,-0.025317,0.004761
3560,0.012412,-0.009543,0.004761
3561,0.012412,-0.009543,0.004761
3562,0.012412,-0.025317,0.019185
3563,0.035379,-0.009543,0.004761
3564,-0.010555,0.006231,-0.009662
3565,-0.010555,0.006231,0.004761
3566,-0.010555,-0.009543,-0.009662
3567,0.035379,-0.009543,-0.024086
3568,-0.010555,-0.025317,-0.03851
3569,0.012412,-0.009543,-0.024086
3570,-0.010555,-0.009543,-0.024086
3571,0.035379,-0.025317,-0.009662
3572,0.035379,-0.009543,-0.009662
3573,-0.010555,0.006231,-0.009662
3574,-0.033523,-0.009543,-0.009662
3575,-0.010555,-0.009543,-0.009662
3576,0.012412,-0.009543,-0.024086
3577,-0.010555,-0.009543,0.004761
3578,-0.010555,-0.009543,-0.024086
3579,0.012412,-0.009543,0.004761
3580,-0.033523,-0.025317,0.004761
3581,-0.010555,-0.009543,0.004761
3582,0.012412,0.006231,0.004761
3583,-0.033523,0.006231,-0.009662
3584,-0.033523,0.006231,0.004761
3585,-0.05649,-0.009543,0.004761
3586,-0.033523,-0.009543,0.004761
3587,-0.010555,0.006231,-0.009662
3588,-0.05649,-0.009543,0.004761
3589,-0.033523,-0.009543,-0.009662
3590,-0.033523,-0.025317,-0.009662
3591,-0.010555,-0.009543,-0.009662
3592,0.035379,-0.009543,0.019185
3593,0.012412,-0.009543,0.019185
3594,0.012412,-0.025317,0.019185
3595,0.012412,-0.025317,-0.009662
3596,0.035379,-0.009543,0.004761
