# Requested Sampling Rate (Hz):,1000
# Actual Sampling Rate (Hz):,998.922
# Requested Duration (s):,5.0
# Actual Duration (s):,5.047
# REST Calibration:,831.4595862068991,832.6049655172403,833.6698965517227
# MAX Calibration:,875.0000,896.0000,903.0000
# Normalization: MVC-based  (x_norm = (x - REST) / (MAX - REST))
sample_idx,EMG1,EMG2,EMG3
0,0.081313,-0.025317,-0.009662
1,0.081313,-0.009543,0.004761
2,0.035379,-0.009543,-0.009662
3,-0.010555,-0.009543,0.004761
4,-0.010555,-0.009543,0.004761
5,-0.010555,-0.009543,-0.009662
6,0.035379,0.006231,-0.009662
7,0.012412,0.006231,-0.009662
8,-0.033523,-0.009543,-0.009662
9,0.012412,-0.025317,-0.024086
10,0.012412,-0.025317,0.019185
11,0.012412,-0.025317,0.004761
12,-0.010555,-0.009543,-0.009662
13,-0.010555,0.006231,0.004761
14,0.035379,-0.025317,-0.009662
15,0.058346,-0.009543,-0.009662
16,-0.010555,-0.025317,0.004761
17,-0.033523,-0.009543,-0.009662
18,-0.010555,-0.009543,0.004761
19,-0.010555,0.006231,-0.009662
20,0.012412,-0.025317,-0.009662
21,-0.010555,-0.025317,-0.009662
22,-0.010555,-0.009543,0.019185
23,0.035379,0.006231,0.004761
24,-0.010555,-0.009543,-0.024086
25,0.035379,-0.025317,0.004761
26,0.035379,-0.009543,0.004761
27,0.012412,-0.041091,-0.009662
28,0.012412,-0.009543,-0.03851
29,0.012412,-0.009543,-0.009662
30,0.035379,-0.009543,-0.024086
31,-0.033523,-0.009543,0.004761
32,-0.033523,-0.009543,-0.009662
33,-0.010555,-0.025317,0.004761
34,-0.010555,-0.009543,0.019185
35,-0.010555,-0.009543,-0.009662
36,0.012412,-0.009543,0.004761
37,0.058346,-0.009543,0.004761
38,0.035379,-0.009543,0.004761
39,0.012412,-0.009543,0.004761
40,0.012412,-0.009543,-0.009662
41,0.012412,0.006231,0.004761
42,0.012412,-0.009543,0.019185
43,-0.05649,-0.009543,-0.009662
44,-0.010555,-0.025317,-0.009662
45,0.012412,-0.025317,-0.03851
46,-0.010555,-0.025317,-0.009662
47,-0.033523,-0.009543,-0.009662
48,-0.05649,-0.025317,0.004761
49,0.012412,-0.025317,-0.009662
50,-0.05649,-0.025317,-0.009662
51,0.035379,-0.025317,-0.009662
52,0.012412,-0.025317,-0.024086
53,0.035379,-0.009543,-0.009662
54,0.035379,-0.009543,-0.009662
55,-0.033523,-0.025317,-0.009662
56,-0.010555,-0.009543,-0.024086
57,-0.010555,-0.009543,-0.009662
58,-0.010555,-0.009543,-0.009662
59,-0.010555,-0.009543,0.004761
60,0.035379,0.006231,0.004761
61,-0.010555,-0.025317,0.004761
62,0.035379,0.006231,0.004761
63,0.058346,-0.009543,0.004761
64,0.058346,0.006231,-0.009662
65,0.012412,-0.009543,-0.009662
66,-0.033523,-0.009543,0.004761
67,0.035379,-0.025317,0.019185
68,-0.010555,-0.009543,0.019185
69,-0.010555,-0.009543,-0.009662
70,0.012412,-0.025317,-0.009662
71,0.012412,-0.025317,0.004761
72,0.012412,-0.041091,-0.009662
73,-0.010555,-0.041091,-0.009662
74,0.035379,-0.025317,-0.024086
75,-0.010555,-0.025317,0.004761
76,-0.033523,-0.025317,0.004761
77,-0.033523,-0.009543,0.004761
78,-0.010555,-0.025317,0.004761
79,-0.033523,-0.025317,-0.009662
80,-0.010555,0.006231,-0.009662
81,-0.010555,-0.025317,-0.009662
82,-0.010555,-0.009543,-0.009662
83,-0.010555,-0.009543,0.004761
84,-0.033523,-0.025317,-0.009662
85,0.012412,-0.025317,-0.024086
86,-0.010555,-0.009543,0.004761
87,0.012412,-0.009543,0.019185
88,-0.033523,-0.056865,-0.009662
89,-0.033523,-0.041091,-0.009662
90,0.035379,0.006231,0.004761
91,0.127248,-0.009543,0.004761
92,-0.010555,-0.041091,0.004761
93,-0.010555,-0.025317,-0.009662
94,0.058346,0.006231,-0.009662
95,0.035379,-0.009543,-0.009662
96,-0.010555,0.006231,-0.009662
97,-0.010555,0.006231,-0.024086
98,0.012412,-0.025317,-0.024086
99,0.012412,-0.009543,0.004761
100,0.012412,-0.025317,-0.009662
101,0.058346,-0.009543,-0.009662
102,0.081313,-0.009543,-0.009662
103,-0.010555,0.006231,0.004761
104,-0.010555,-0.009543,0.019185
105,-0.010555,-0.025317,-0.009662
106,0.035379,-0.025317,-0.009662
107,0.012412,-0.009543,-0.009662
108,-0.010555,-0.025317,-0.009662
109,-0.05649,-0.009543,0.004761
110,0.012412,-0.025317,0.004761
111,-0.010555,-0.009543,0.004761
112,0.035379,0.006231,0.019185
113,0.012412,-0.009543,-0.024086
114,-0.010555,0.022005,0.004761
115,-0.010555,-0.009543,-0.009662
116,-0.010555,-0.025317,0.004761
117,-0.010555,-0.009543,-0.009662
118,0.012412,0.006231,0.004761
119,0.035379,-0.009543,-0.009662
120,-0.010555,0.006231,0.004761
121,0.012412,-0.025317,-0.009662
122,0.012412,-0.009543,-0.009662
123,-0.010555,-0.056865,0.019185
124,0.012412,-0.009543,-0.009662
125,0.035379,-0.009543,-0.024086
126,0.012412,-0.009543,-0.009662
127,-0.010555,-0.025317,-0.009662
128,-0.010555,-0.009543,-0.009662
129,0.035379,-0.009543,0.004761
130,-0.033523,-0.009543,0.019185
131,-0.033523,-0.009543,-0.009662
132,0.058346,-0.009543,-0.009662
133,0.012412,0.006231,-0.009662
134,0.012412,-0.025317,-0.009662
135,0.012412,-0.025317,-0.009662
136,-0.010555,-0.009543,0.004761
137,-0.010555,0.006231,0.004761
138,-0.033523,-0.009543,-0.009662
139,-0.010555,-0.009543,0.004761
140,-0.033523,-0.009543,-0.009662
141,0.035379,0.006231,-0.024086
142,-0.010555,-0.025317,-0.009662
143,-0.05649,-0.041091,0.004761
144,-0.010555,-0.009543,0.004761
145,0.035379,0.006231,0.019185
146,-0.010555,0.006231,0.004761
147,0.012412,-0.009543,-0.009662
148,-0.05649,-0.025317,0.019185
149,-0.079457,-0.025317,-0.009662
150,-0.010555,-0.041091,-0.009662
151,0.035379,-0.025317,-0.009662
152,0.035379,-0.009543,0.004761
153,0.035379,-0.009543,0.004761
154,0.012412,0.006231,-0.009662
155,0.058346,0.006231,-0.024086
156,0.012412,-0.009543,-0.024086
157,-0.05649,-0.025317,-0.009662
158,-0.033523,-0.009543,0.004761
159,-0.010555,-0.009543,0.019185
160,0.035379,-0.025317,0.019185
161,0.035379,-0.009543,0.019185
162,-0.033523,-0.009543,0.019185
163,0.035379,0.006231,0.048033
164,-0.010555,0.006231,0.004761
165,-0.033523,-0.025317,-0.009662
166,-0.079457,-0.025317,-0.03851
167,-0.05649,-0.025317,-0.024086
168,-0.010555,-0.025317,-0.024086
169,0.012412,-0.009543,-0.009662
170,-0.010555,-0.041091,-0.009662
171,0.012412,-0.025317,-0.03851
172,-0.05649,-0.025317,-0.03851
173,0.012412,-0.025317,-0.024086
174,0.012412,-0.009543,-0.009662
175,0.012412,-0.025317,-0.009662
176,-0.079457,-0.009543,-0.024086
177,-0.079457,-0.041091,-0.009662
178,-0.010555,-0.009543,-0.009662
179,0.035379,-0.009543,-0.009662
180,0.058346,0.006231,0.004761
181,0.035379,-0.009543,0.004761
182,0.035379,-0.025317,0.004761
183,0.012412,-0.009543,0.004761
184,0.035379,-0.009543,0.019185
185,0.012412,0.006231,0.033609
186,0.058346,0.006231,0.033609
187,0.035379,-0.009543,0.019185
188,-0.010555,-0.009543,0.004761
189,-0.033523,0.022005,-0.009662
190,0.012412,-0.025317,-0.009662
191,-0.010555,-0.009543,-0.009662
192,-0.010555,-0.009543,-0.009662
193,-0.033523,-0.025317,-0.009662
194,0.058346,-0.025317,-0.024086
195,-0.010555,-0.009543,-0.024086
196,-0.010555,-0.009543,-0.009662
197,-0.033523,0.006231,-0.009662
198,-0.033523,-0.025317,-0.024086
199,0.035379,-0.025317,-0.03851
200,0.012412,-0.009543,0.048033
201,-0.010555,-0.009543,0.019185
202,0.012412,-0.025317,-0.009662
203,-0.010555,-0.025317,0.004761
204,0.012412,-0.009543,0.004761
205,-0.033523,0.006231,0.019185
206,-0.033523,-0.009543,0.004761
207,-0.05649,-0.025317,-0.009662
208,-0.010555,-0.025317,-0.024086
209,-0.010555,-0.025317,-0.009662
210,-0.010555,-0.025317,-0.009662
211,0.035379,-0.009543,-0.009662
212,0.035379,-0.009543,-0.024086
213,0.035379,-0.009543,-0.009662
214,0.035379,-0.009543,-0.024086
215,0.012412,-0.025317,-0.03851
216,0.035379,0.006231,-0.024086
217,0.058346,-0.009543,-0.009662
218,0.058346,-0.009543,0.004761
219,-0.010555,-0.009543,-0.009662
220,0.012412,-0.009543,0.019185
221,0.035379,-0.025317,0.004761
222,0.035379,0.006231,0.019185
223,-0.010555,-0.009543,0.004761
224,-0.010555,0.006231,0.019185
225,0.035379,-0.009543,0.033609
226,-0.010555,0.006231,0.019185
227,0.012412,-0.009543,0.019185
228,0.012412,0.006231,0.019185
229,-0.033523,-0.009543,0.019185
230,-0.033523,-0.009543,0.004761
231,-0.033523,-0.009543,-0.024086
232,-0.010555,-0.025317,-0.024086
233,-0.010555,-0.025317,-0.024086
234,0.035379,-0.025317,-0.024086
235,0.012412,-0.009543,-0.03851
236,-0.033523,-0.009543,-0.024086
237,-0.033523,-0.009543,-0.009662
238,-0.033523,-0.025317,-0.009662
239,0.012412,-0.009543,0.004761
240,0.012412,-0.025317,0.019185
241,0.012412,-0.009543,-0.009662
242,0.012412,-0.009543,-0.009662
243,-0.033523,-0.009543,0.004761
244,0.012412,0.006231,0.019185
245,0.058346,-0.009543,0.033609
246,-0.010555,-0.009543,0.019185
247,0.035379,0.006231,0.004761
248,0.035379,-0.041091,-0.009662
249,0.012412,-0.025317,0.019185
250,0.035379,-0.009543,-0.009662
251,0.035379,-0.025317,-0.009662
252,0.058346,-0.041091,-0.024086
253,-0.033523,-0.025317,-0.03851
254,-0.010555,-0.025317,0.004761
255,-0.010555,-0.041091,-0.024086
256,-0.010555,-0.009543,-0.024086
257,-0.033523,-0.009543,-0.024086
258,0.012412,-0.025317,-0.009662
259,0.012412,-0.009543,-0.024086
260,-0.05649,-0.009543,-0.024086
261,-0.010555,-0.025317,0.004761
262,-0.05649,-0.025317,0.004761
263,-0.010555,-0.009543,-0.009662
264,0.035379,-0.025317,0.004761
265,0.012412,-0.009543,-0.009662
266,-0.05649,-0.009543,-0.024086
267,-0.033523,-0.041091,-0.03851
268,-0.033523,-0.009543,-0.024086
269,-0.010555,-0.025317,0.004761
270,-0.010555,-0.009543,0.019185
271,0.012412,0.006231,0.004761
272,0.035379,0.006231,0.019185
273,0.058346,-0.009543,0.019185
274,0.012412,-0.009543,0.004761
275,0.058346,-0.009543,0.019185
276,0.035379,0.006231,0.004761
277,0.035379,-0.009543,0.033609
278,0.012412,-0.009543,0.004761
279,0.081313,-0.009543,0.033609
280,0.012412,-0.009543,-0.009662
281,-0.05649,-0.009543,-0.024086
282,-0.010555,-0.009543,-0.024086
283,0.035379,-0.025317,-0.009662
284,0.012412,-0.009543,-0.009662
285,-0.010555,0.006231,0.019185
286,-0.010555,-0.025317,0.033609
287,0.035379,0.006231,0.033609
288,0.058346,-0.009543,0.004761
289,0.012412,0.006231,-0.009662
290,-0.079457,-0.041091,-0.052934
291,-0.079457,-0.025317,-0.052934
292,-0.033523,-0.009543,-0.03851
293,-0.010555,-0.025317,-0.009662
294,-0.033523,0.006231,0.019185
295,0.012412,-0.009543,-0.009662
296,-0.033523,-0.025317,-0.009662
297,-0.05649,0.006231,-0.024086
298,0.012412,-0.041091,-0.009662
299,0.012412,-0.025317,-0.009662
300,-0.010555,-0.009543,-0.024086
301,0.012412,0.006231,-0.052934
302,-0.010555,-0.025317,-0.024086
303,0.012412,0.006231,0.004761
304,0.035379,0.022005,0.033609
305,0.035379,0.022005,0.033609
306,0.035379,-0.025317,0.033609
307,0.035379,-0.056865,0.019185
308,0.012412,-0.025317,0.004761
309,-0.033523,-0.025317,-0.009662
310,-0.033523,-0.025317,-0.067357
311,-0.010555,-0.056865,-0.067357
312,-0.033523,-0.025317,-0.024086
313,-0.010555,-0.009543,0.004761
314,0.035379,0.006231,0.019185
315,0.012412,0.03778,0.019185
316,0.012412,0.053554,0.033609
317,0.058346,0.053554,0.033609
318,0.058346,0.053554,0.019185
319,-0.010555,0.03778,0.004761
320,0.035379,-0.009543,0.004761
321,-0.010555,-0.056865,-0.024086
322,-0.102424,-0.104187,-0.052934
323,-0.033523,-0.056865,-0.03851
324,0.035379,-0.056865,-0.052934
325,-0.05649,-0.056865,-0.052934
326,0.012412,-0.056865,-0.024086
327,-0.033523,-0.009543,-0.009662
328,-0.033523,-0.025317,-0.009662
329,-0.010555,-0.009543,0.033609
330,0.035379,-0.009543,0.033609
331,-0.033523,-0.009543,0.019185
332,-0.033523,-0.025317,0.004761
333,-0.033523,-0.025317,-0.009662
334,0.035379,-0.009543,-0.009662
335,0.035379,-0.025317,-0.009662
336,-0.010555,-0.025317,0.019185
337,-0.010555,0.006231,0.033609
338,0.012412,0.006231,0.048033
339,0.058346,-0.009543,0.019185
340,0.012412,-0.009543,0.019185
341,-0.033523,-0.041091,-0.024086
342,0.012412,-0.025317,-0.03851
343,0.035379,-0.025317,-0.03851
344,0.012412,-0.041091,-0.024086
345,0.012412,-0.041091,-0.009662
346,0.081313,-0.009543,0.004761
347,0.012412,-0.025317,-0.009662
348,0.012412,-0.025317,0.004761
349,0.035379,-0.041091,-0.009662
350,0.012412,-0.041091,0.004761
351,0.058346,0.006231,0.033609
352,-0.010555,0.022005,0.033609
353,0.012412,0.022005,0.004761
354,0.012412,0.022005,-0.024086
355,-0.033523,0.006231,-0.024086
356,0.012412,0.006231,-0.03851
357,-0.033523,-0.009543,-0.03851
358,-0.05649,-0.025317,-0.009662
359,-0.033523,-0.041091,-0.009662
360,-0.010555,-0.056865,-0.024086
361,-0.010555,-0.072639,-0.009662
362,-0.033523,-0.088413,-0.009662
363,-0.010555,-0.088413,-0.024086
364,0.012412,-0.056865,-0.024086
365,0.035379,-0.009543,-0.024086
366,-0.010555,0.006231,-0.024086
367,-0.079457,0.006231,-0.03851
368,-0.010555,0.022005,-0.024086
369,0.035379,0.022005,-0.009662
370,0.058346,0.022005,0.004761
371,0.012412,0.006231,0.019185
372,0.035379,0.006231,0.033609
373,0.058346,-0.009543,0.048033
374,-0.033523,-0.009543,0.048033
375,0.012412,-0.009543,0.033609
376,0.058346,-0.009543,0.004761
377,0.081313,0.006231,-0.024086
378,0.012412,0.006231,-0.009662
379,0.012412,0.006231,-0.03851
380,0.012412,-0.009543,-0.009662
381,-0.010555,-0.025317,0.004761
382,0.012412,-0.025317,0.019185
383,0.012412,-0.009543,0.004761
384,-0.010555,0.006231,-0.009662
385,-0.010555,-0.025317,-0.052934
386,0.012412,-0.025317,-0.03851
387,0.012412,-0.009543,-0.009662
388,-0.010555,-0.025317,-0.009662
389,0.035379,-0.025317,-0.024086
390,-0.010555,-0.009543,-0.03851
391,-0.010555,-0.025317,-0.024086
392,-0.033523,-0.025317,-0.03851
393,0.012412,-0.025317,-0.009662
394,-0.033523,-0.009543,-0.024086
395,0.012412,-0.009543,0.004761
396,0.035379,-0.009543,0.019185
397,0.035379,-0.009543,0.033609
398,0.012412,-0.009543,0.004761
399,-0.010555,-0.025317,0.019185
400,0.012412,-0.025317,0.019185
401,0.012412,0.006231,0.019185
402,0.012412,0.006231,-0.009662
403,0.012412,-0.009543,0.019185
404,0.035379,0.006231,0.019185
405,0.035379,0.006231,0.048033
406,0.012412,-0.009543,0.033609
407,-0.033523,0.006231,0.033609
408,0.012412,-0.009543,-0.009662
409,0.035379,-0.025317,-0.052934
410,-0.033523,-0.025317,-0.03851
411,-0.010555,-0.025317,-0.024086
412,0.012412,-0.025317,-0.024086
413,0.012412,-0.009543,-0.009662
414,0.012412,-0.025317,0.004761
415,0.012412,-0.009543,0.033609
416,0.127248,-0.009543,0.019185
417,0.058346,-0.041091,0.004761
418,0.058346,-0.009543,0.004761
419,-0.05649,-0.009543,0.004761
420,0.012412,-0.025317,0.019185
421,-0.010555,-0.025317,0.004761
422,-0.010555,-0.009543,-0.024086
423,-0.010555,-0.009543,-0.024086
424,-0.033523,-0.025317,-0.03851
425,0.012412,-0.025317,-0.024086
426,0.012412,-0.025317,-0.009662
427,0.012412,-0.025317,-0.024086
428,0.035379,-0.041091,-0.03851
429,-0.033523,-0.009543,-0.052934
430,-0.033523,-0.041091,-0.052934
431,-0.010555,-0.025317,0.019185
432,0.035379,0.006231,0.048033
433,0.012412,0.006231,0.048033
434,0.058346,0.006231,0.033609
435,0.035379,-0.009543,0.033609
436,0.012412,-0.009543,0.033609
437,0.058346,-0.009543,0.004761
438,-0.010555,-0.025317,-0.009662
439,-0.010555,-0.009543,-0.009662
440,0.012412,-0.025317,-0.009662
441,0.035379,-0.025317,-0.03851
442,0.012412,-0.056865,-0.067357
443,0.012412,-0.009543,-0.052934
444,0.10428,0.006231,-0.009662
445,0.081313,0.006231,0.033609
446,0.081313,0.006231,0.033609
447,0.012412,-0.009543,0.019185
448,-0.05649,-0.025317,0.033609
449,-0.010555,0.006231,0.033609
450,-0.033523,-0.009543,0.019185
451,-0.033523,-0.041091,-0.009662
452,0.012412,-0.009543,0.004761
453,-0.010555,-0.041091,-0.052934
454,-0.102424,-0.072639,-0.110629
455,-0.079457,-0.041091,-0.096205
456,0.012412,-0.025317,-0.052934
457,-0.033523,-0.025317,-0.024086
458,-0.010555,0.006231,0.004761
459,-0.033523,-0.009543,0.019185
460,-0.010555,-0.025317,0.019185
461,-0.079457,-0.009543,0.004761
462,0.012412,-0.025317,-0.009662
463,0.058346,-0.025317,0.019185
464,-0.05649,-0.025317,-0.024086
465,-0.010555,-0.009543,-0.009662
466,0.012412,0.006231,-0.009662
467,0.012412,-0.009543,0.019185
468,0.058346,-0.009543,0.033609
469,0.035379,0.006231,0.048033
470,0.012412,0.006231,0.07688
471,0.081313,0.03778,0.091304
472,0.035379,0.03778,0.062456
473,0.012412,0.006231,0.062456
474,-0.05649,-0.025317,0.004761
475,-0.010555,-0.056865,-0.052934
476,-0.033523,-0.056865,-0.067357
477,-0.033523,-0.056865,-0.081781
478,-0.010555,-0.056865,-0.081781
479,0.012412,-0.009543,-0.03851
480,-0.010555,-0.009543,0.004761
481,0.035379,-0.009543,0.033609
482,0.035379,0.006231,0.048033
483,0.035379,-0.009543,0.019185
484,-0.033523,-0.009543,0.048033
485,-0.033523,-0.009543,0.004761
486,-0.010555,0.006231,-0.009662
487,0.058346,-0.041091,-0.052934
488,-0.05649,-0.041091,-0.024086
489,-0.033523,-0.009543,0.004761
490,0.012412,-0.025317,0.004761
491,-0.05649,0.022005,0.019185
492,0.012412,0.006231,0.062456
493,-0.010555,0.022005,0.07688
494,-0.033523,0.006231,0.033609
495,-0.010555,-0.009543,0.004761
496,-0.010555,-0.025317,0.004761
497,-0.010555,-0.025317,0.004761
498,0.058346,-0.025317,-0.024086
499,0.081313,0.006231,-0.024086
500,0.035379,-0.009543,-0.052934
501,0.012412,-0.025317,-0.067357
502,-0.05649,-0.072639,-0.096205
503,-0.033523,-0.041091,-0.096205
504,0.012412,-0.025317,-0.067357
505,0.012412,-0.025317,-0.024086
506,0.012412,-0.009543,-0.009662
507,0.012412,0.006231,0.062456
508,0.10428,0.022005,0.120151
509,0.081313,0.022005,0.120151
510,0.058346,0.022005,0.134575
511,0.035379,0.022005,0.148999
512,0.012412,0.006231,0.091304
513,0.10428,-0.009543,0.048033
514,0.035379,-0.025317,-0.03851
515,-0.010555,-0.072639,-0.139476
516,-0.033523,-0.072639,-0.110629
517,0.012412,-0.009543,-0.110629
518,-0.05649,-0.041091,-0.125052
519,0.035379,-0.025317,-0.024086
520,0.058346,0.03778,0.091304
521,0.150215,0.085102,0.134575
522,0.10428,0.053554,0.120151
523,0.058346,0.022005,0.105728
524,-0.033523,-0.009543,0.019185
525,-0.102424,-0.088413,-0.067357
526,-0.102424,-0.056865,0.004761
527,-0.079457,-0.041091,-0.024086
528,-0.033523,-0.056865,-0.052934
529,0.012412,-0.041091,-0.03851
530,-0.010555,-0.056865,-0.125052
531,-0.125391,-0.088413,-0.168324
532,-0.010555,-0.025317,-0.067357
533,0.058346,-0.025317,-0.03851
534,0.012412,-0.041091,-0.03851
535,-0.010555,-0.025317,0.033609
536,0.081313,0.053554,0.134575
537,0.081313,0.053554,0.105728
538,0.10428,0.022005,0.062456
539,0.10428,0.022005,0.07688
540,0.058346,-0.025317,0.004761
541,0.058346,-0.025317,0.019185
542,0.081313,0.006231,0.033609
543,0.058346,-0.009543,-0.009662
544,0.10428,0.006231,0.048033
545,-0.010555,-0.025317,0.019185
546,-0.102424,-0.072639,-0.110629
547,-0.102424,-0.072639,-0.1539
548,-0.033523,-0.072639,-0.110629
549,0.058346,-0.041091,0.048033
550,0.058346,0.022005,0.105728
551,0.012412,0.022005,0.062456
552,0.035379,0.006231,0.062456
553,-0.033523,0.006231,0.004761
554,-0.102424,-0.056865,-0.125052
555,-0.102424,-0.072639,-0.139476
556,-0.033523,-0.056865,-0.125052
557,-0.033523,-0.072639,-0.110629
558,0.035379,-0.009543,-0.024086
559,0.058346,0.03778,0.134575
560,0.10428,0.100876,0.264389
561,0.10428,0.069328,0.235541
562,-0.010555,0.006231,0.105728
563,-0.033523,-0.072639,-0.081781
564,0.012412,-0.041091,-0.081781
565,0.081313,0.006231,0.004761
566,0.081313,0.022005,0.07688
567,0.10428,-0.009543,0.048033
568,0.035379,-0.072639,-0.1539
569,-0.079457,-0.119962,-0.240442
570,-0.171326,-0.135736,-0.240442
571,-0.033523,-0.072639,-0.125052
572,0.081313,0.022005,0.062456
573,0.173182,0.132424,0.249965
574,0.127248,0.100876,0.278813
575,0.10428,0.085102,0.206694
576,-0.033523,-0.025317,0.004761
577,-0.102424,-0.104187,-0.139476
578,-0.102424,-0.072639,-0.081781
579,-0.102424,-0.041091,-0.125052
580,-0.033523,-0.041091,-0.125052
581,-0.102424,-0.072639,-0.1539
582,-0.148358,-0.072639,-0.110629
583,-0.05649,-0.041091,-0.052934
584,0.012412,-0.025317,-0.024086
585,0.012412,0.03778,0.033609
586,0.058346,-0.041091,-0.024086
587,0.10428,0.006231,0.033609
588,0.081313,0.022005,0.019185
589,0.081313,0.022005,-0.024086
590,0.012412,0.022005,-0.024086
591,0.035379,0.022005,0.07688
592,0.10428,0.085102,0.293236
593,0.127248,0.085102,0.365355
594,0.035379,0.022005,0.163423
595,-0.079457,-0.104187,-0.1539
596,-0.05649,-0.119962,-0.226019
597,-0.125391,-0.119962,-0.298137
598,-0.010555,-0.088413,-0.226019
599,0.035379,0.006231,-0.03851
600,0.150215,0.053554,0.120151
601,0.10428,0.11665,0.206694
602,0.127248,0.085102,0.249965
603,0.012412,0.022005,0.105728
604,-0.079457,-0.072639,-0.096205
605,-0.171326,-0.15151,-0.211595
606,-0.079457,-0.104187,-0.110629
607,-0.079457,-0.088413,-0.067357
608,-0.079457,-0.088413,-0.1539
609,0.012412,0.006231,-0.024086
610,0.127248,0.132424,0.278813
611,0.173182,0.132424,0.350931
612,0.10428,0.100876,0.293236
613,0.012412,0.03778,0.105728
614,-0.125391,-0.119962,-0.254866
615,-0.125391,-0.167284,-0.399104
616,-0.148358,-0.135736,-0.26929
617,-0.102424,-0.088413,-0.110629
618,-0.033523,-0.025317,-0.009662
619,0.012412,0.03778,-0.009662
620,0.10428,0.053554,0.105728
621,0.173182,0.11665,0.235541
622,0.242083,0.163972,0.379779
623,0.196149,0.148198,0.350931
624,-0.125391,-0.025317,0.033609
625,-0.21726,-0.135736,-0.254866
626,-0.171326,-0.15151,-0.26929
627,-0.148358,-0.104187,-0.197171
628,-0.125391,-0.072639,-0.197171
629,-0.079457,-0.041091,-0.139476
630,-0.033523,-0.025317,-0.110629
631,-0.033523,-0.025317,-0.052934
632,0.058346,0.053554,0.163423
633,0.10428,0.069328,0.249965
634,0.219116,0.100876,0.322084
635,0.173182,0.069328,0.249965
636,0.058346,-0.056865,-0.139476
637,0.012412,-0.104187,-0.283714
638,-0.079457,-0.15151,-0.254866
639,-0.05649,-0.104187,-0.182747
640,-0.033523,-0.041091,-0.067357
641,0.10428,-0.009543,0.062456
642,0.081313,0.053554,0.148999
643,0.035379,0.069328,0.134575
644,0.081313,0.03778,0.105728
645,0.081313,0.03778,0.105728
646,0.10428,0.085102,0.163423
647,0.242083,0.03778,0.148999
648,0.219116,-0.041091,-0.096205
649,0.173182,-0.056865,-0.283714
650,0.150215,-0.056865,-0.197171
651,0.012412,-0.025317,-0.125052
652,-0.079457,-0.041091,-0.052934
653,-0.05649,-0.009543,0.105728
654,-0.079457,0.03778,0.221118
655,-0.21726,0.069328,0.293236
656,-0.194293,0.069328,0.264389
657,-0.148358,0.006231,0.062456
658,-0.102424,-0.072639,-0.26929
659,-0.125391,-0.088413,-0.341409
660,-0.079457,-0.072639,-0.197171
661,-0.102424,-0.056865,0.004761
662,-0.148358,-0.088413,0.048033
663,-0.125391,-0.104187,0.004761
664,-0.033523,-0.041091,-0.052934
665,0.058346,-0.009543,-0.096205
666,0.10428,0.053554,0.004761
667,0.081313,0.03778,0.07688
668,-0.05649,-0.041091,0.033609
669,-0.102424,-0.088413,-0.096205
670,-0.010555,-0.104187,-0.096205
671,0.035379,-0.009543,0.033609
672,0.058346,0.03778,0.07688
673,0.058346,0.03778,0.048033
674,-0.033523,-0.025317,-0.024086
675,-0.010555,-0.041091,-0.03851
676,0.058346,-0.025317,-0.009662
677,0.127248,0.022005,0.120151
678,0.150215,0.069328,0.264389
679,0.127248,0.069328,0.206694
680,0.012412,-0.009543,0.048033
681,-0.033523,-0.025317,-0.024086
682,-0.079457,-0.088413,-0.168324
683,-0.148358,-0.072639,-0.125052
684,-0.033523,-0.009543,-0.024086
685,0.058346,0.006231,0.048033
686,-0.079457,-0.072639,-0.009662
687,-0.010555,-0.041091,-0.067357
688,0.058346,-0.025317,-0.081781
689,0.012412,-0.088413,-0.168324
690,-0.05649,-0.072639,-0.211595
691,-0.010555,-0.072639,-0.197171
692,0.012412,-0.088413,-0.182747
693,-0.033523,-0.072639,-0.096205
694,0.058346,0.100876,0.105728
695,0.127248,0.148198,0.235541
696,0.10428,0.132424,0.278813
697,0.035379,0.069328,0.249965
698,-0.033523,-0.025317,0.091304
699,-0.033523,-0.041091,0.048033
700,0.012412,-0.056865,-0.067357
701,-0.079457,-0.088413,-0.168324
702,-0.079457,-0.104187,-0.211595
703,-0.079457,-0.104187,-0.254866
704,-0.033523,-0.088413,-0.182747
705,-0.05649,-0.025317,-0.03851
706,-0.079457,-0.041091,-0.052934
707,-0.05649,0.069328,0.148999
708,0.081313,0.100876,0.278813
709,0.219116,0.148198,0.365355
710,0.219116,0.163972,0.336508
711,0.127248,0.053554,0.19227
712,-0.033523,-0.088413,-0.024086
713,-0.21726,-0.183058,-0.226019
714,-0.194293,-0.167284,-0.254866
715,-0.079457,-0.119962,-0.240442
716,-0.010555,-0.104187,-0.182747
717,-0.102424,-0.056865,-0.125052
718,-0.010555,-0.025317,-0.024086
719,0.058346,-0.009543,0.004761
720,0.081313,0.006231,-0.024086
721,-0.010555,0.022005,0.004761
722,0.058346,0.069328,0.134575
723,0.150215,0.100876,0.235541
724,0.265051,0.195521,0.408626
725,0.196149,0.163972,0.451898
726,0.081313,0.03778,0.249965
727,-0.102424,-0.119962,-0.110629
728,-0.125391,-0.198832,-0.456799
729,-0.171326,-0.214606,-0.485646
730,0.012412,-0.119962,-0.298137
731,0.127248,0.006231,-0.081781
732,0.10428,0.069328,0.048033
733,0.10428,0.053554,0.07688
734,0.012412,0.022005,0.105728
735,-0.010555,0.006231,0.048033
736,0.058346,0.053554,0.033609
737,0.127248,0.100876,0.07688
738,0.012412,0.053554,0.134575
739,-0.05649,0.022005,0.004761
740,-0.05649,0.006231,-0.096205
741,0.012412,0.006231,-0.081781
742,0.012412,-0.056865,-0.096205
743,0.012412,-0.15151,-0.197171
744,0.035379,-0.104187,-0.168324
745,0.150215,-0.009543,0.091304
746,0.081313,0.053554,0.264389
747,0.127248,0.022005,0.206694
748,0.219116,0.022005,0.249965
749,-0.010555,-0.025317,0.091304
750,-0.240227,-0.104187,-0.1539
751,-0.21726,-0.23038,-0.442375
752,-0.148358,-0.183058,-0.298137
753,-0.148358,-0.135736,-0.197171
754,-0.102424,-0.088413,-0.139476
755,-0.05649,0.006231,-0.009662
756,0.012412,0.03778,0.177846
757,0.012412,0.006231,0.120151
758,0.10428,0.053554,0.278813
759,0.196149,0.163972,0.336508
760,0.219116,0.195521,0.30766
761,0.10428,0.100876,0.062456
762,0.012412,-0.025317,-0.168324
763,0.035379,-0.041091,-0.024086
764,0.035379,-0.009543,0.221118
765,0.035379,-0.009543,0.120151
766,-0.033523,-0.056865,-0.096205
767,-0.148358,-0.135736,-0.341409
768,-0.125391,-0.119962,-0.312561
769,-0.125391,-0.119962,-0.283714
770,-0.05649,-0.088413,-0.226019
771,-0.05649,-0.056865,-0.1539
772,0.012412,0.006231,0.004761
773,0.10428,0.069328,0.163423
774,0.10428,0.085102,0.206694
775,0.012412,0.053554,0.033609
776,-0.05649,-0.041091,-0.168324
777,-0.033523,-0.056865,-0.168324
778,0.081313,-0.025317,-0.125052
779,-0.010555,-0.056865,-0.081781
780,-0.102424,-0.104187,-0.125052
781,-0.148358,-0.119962,-0.1539
782,-0.033523,-0.041091,-0.024086
783,-0.010555,-0.009543,0.105728
784,-0.05649,0.03778,0.293236
785,0.012412,0.022005,0.177846
786,0.035379,0.022005,0.120151
787,0.127248,0.085102,0.19227
788,0.127248,0.132424,0.293236
789,0.012412,0.03778,0.249965
790,-0.033523,-0.025317,0.249965
791,-0.148358,-0.072639,0.07688
792,-0.05649,-0.056865,0.019185
793,0.127248,-0.025317,-0.081781
794,0.081313,-0.025317,-0.1539
795,0.035379,-0.088413,-0.182747
796,-0.033523,-0.041091,-0.081781
797,-0.010555,-0.041091,-0.03851
798,0.058346,0.006231,0.033609
799,0.10428,0.053554,0.221118
800,0.10428,0.100876,0.293236
801,0.035379,0.053554,0.206694
802,-0.010555,-0.025317,-0.067357
803,-0.079457,-0.088413,-0.211595
804,-0.05649,-0.072639,-0.197171
805,-0.102424,-0.119962,-0.298137
806,-0.079457,-0.072639,-0.254866
807,0.081313,0.053554,-0.125052
808,0.058346,0.022005,-0.052934
809,-0.05649,-0.056865,-0.081781
810,-0.125391,-0.119962,-0.1539
811,-0.033523,-0.072639,-0.168324
812,-0.010555,-0.041091,-0.096205
813,0.012412,-0.009543,-0.052934
814,0.10428,0.03778,0.091304
815,0.058346,0.069328,0.264389
816,0.081313,0.03778,0.264389
817,0.150215,0.03778,0.163423
818,0.081313,0.022005,0.148999
819,0.012412,0.006231,0.033609
820,-0.033523,-0.072639,-0.03851
821,-0.05649,-0.072639,0.048033
822,-0.05649,-0.104187,-0.009662
823,-0.079457,-0.119962,-0.226019
824,0.012412,-0.072639,-0.139476
825,-0.033523,-0.056865,-0.052934
826,-0.033523,-0.041091,-0.024086
827,-0.079457,0.053554,-0.03851
828,0.035379,0.085102,0.091304
829,0.058346,0.085102,0.206694
830,0.035379,0.053554,0.264389
831,0.012412,0.069328,0.278813
832,0.012412,0.006231,0.163423
833,-0.05649,-0.072639,-0.168324
834,-0.05649,-0.088413,-0.226019
835,-0.05649,-0.088413,-0.254866
836,-0.010555,-0.072639,-0.197171
837,-0.033523,-0.056865,-0.1539
838,-0.125391,-0.088413,-0.197171
839,-0.05649,-0.088413,-0.182747
840,-0.010555,-0.072639,-0.052934
841,-0.033523,-0.025317,0.019185
842,-0.010555,-0.009543,-0.009662
843,0.058346,0.006231,0.004761
844,0.081313,0.053554,0.07688
845,0.058346,0.03778,0.07688
846,0.081313,0.022005,0.033609
847,0.081313,0.006231,0.062456
848,0.058346,0.03778,0.105728
849,-0.010555,0.006231,0.048033
850,0.035379,0.03778,-0.03851
851,-0.05649,-0.056865,-0.211595
852,-0.171326,-0.119962,-0.168324
853,-0.033523,-0.088413,-0.168324
854,0.035379,-0.056865,-0.1539
855,0.012412,-0.041091,-0.125052
856,0.012412,-0.041091,0.004761
857,0.058346,0.03778,0.177846
858,0.058346,0.100876,0.322084
859,0.081313,0.085102,0.394203
860,0.012412,0.069328,0.235541
861,-0.079457,-0.041091,0.062456
862,-0.148358,-0.104187,-0.1539
863,-0.079457,-0.104187,-0.197171
864,-0.05649,-0.041091,-0.03851
865,-0.010555,0.022005,0.091304
866,0.035379,0.03778,0.120151
867,-0.010555,0.006231,0.091304
868,-0.079457,-0.041091,0.033609
869,-0.05649,-0.025317,-0.024086
870,0.035379,0.006231,0.091304
871,0.058346,0.006231,0.062456
872,-0.05649,-0.041091,-0.067357
873,-0.079457,-0.041091,-0.024086
874,-0.033523,-0.025317,-0.024086
875,0.035379,-0.025317,-0.052934
876,-0.102424,-0.041091,-0.024086
877,-0.079457,-0.025317,-0.096205
878,0.012412,-0.041091,-0.240442
879,-0.010555,-0.025317,-0.081781
880,0.058346,-0.009543,0.019185
881,0.127248,0.03778,0.163423
882,0.127248,-0.009543,0.07688
883,0.081313,-0.009543,0.062456
884,0.10428,-0.041091,-0.067357
885,0.058346,-0.056865,-0.096205
886,0.058346,0.006231,-0.009662
887,0.081313,0.11665,0.249965
888,0.173182,0.132424,0.221118
889,-0.079457,-0.056865,-0.081781
890,-0.194293,-0.104187,-0.226019
891,-0.309129,-0.167284,-0.312561
892,-0.263194,-0.135736,-0.197171
893,-0.079457,-0.009543,0.07688
894,0.035379,0.03778,0.278813
895,0.081313,0.006231,0.105728
896,0.035379,-0.025317,-0.052934
897,-0.010555,-0.041091,-0.125052
898,-0.033523,-0.025317,-0.067357
899,0.10428,0.03778,0.048033
900,0.150215,0.022005,0.048033
901,0.10428,0.022005,0.163423
902,0.058346,-0.009543,0.134575
903,-0.102424,-0.056865,0.004761
904,-0.05649,-0.088413,-0.125052
905,0.035379,-0.088413,-0.182747
906,-0.010555,-0.104187,-0.211595
907,-0.033523,-0.041091,-0.168324
908,-0.010555,-0.025317,-0.096205
909,0.012412,0.006231,-0.081781
910,0.058346,0.006231,-0.081781
911,0.035379,0.022005,-0.03851
912,-0.033523,-0.025317,-0.009662
913,0.035379,-0.009543,0.105728
914,0.012412,-0.009543,0.134575
915,-0.010555,-0.009543,0.091304
916,0.058346,-0.009543,-0.024086
917,0.012412,-0.041091,-0.081781
918,0.012412,-0.041091,-0.067357
919,-0.033523,-0.072639,-0.110629
920,-0.010555,-0.056865,-0.052934
921,0.035379,0.022005,0.062456
922,0.081313,0.069328,0.134575
923,0.10428,0.085102,0.163423
924,0.127248,0.03778,0.177846
925,0.035379,-0.009543,0.091304
926,-0.010555,-0.041091,-0.03851
927,0.012412,-0.056865,-0.067357
928,-0.05649,-0.072639,-0.081781
929,-0.194293,-0.041091,-0.03851
930,-0.148358,-0.025317,0.019185
931,-0.05649,-0.009543,0.004761
932,0.035379,-0.041091,-0.024086
933,0.150215,-0.009543,0.048033
934,0.150215,-0.025317,0.07688
935,0.10428,-0.041091,0.048033
936,0.058346,-0.025317,0.019185
937,0.081313,0.022005,0.019185
938,0.012412,0.03778,0.033609
939,0.012412,0.100876,0.120151
940,-0.010555,0.006231,-0.009662
941,-0.171326,-0.056865,-0.139476
942,-0.171326,-0.088413,-0.1539
943,-0.240227,-0.056865,-0.125052
944,-0.05649,-0.056865,-0.096205
945,-0.079457,-0.041091,-0.052934
946,0.058346,-0.009543,0.004761
947,0.150215,0.053554,0.033609
948,0.127248,0.03778,0.062456
949,0.058346,0.022005,0.019185
950,-0.05649,-0.009543,-0.009662
951,-0.102424,-0.041091,-0.067357
952,-0.102424,-0.104187,-0.125052
953,-0.079457,-0.088413,-0.096205
954,-0.079457,0.006231,-0.03851
955,0.012412,0.022005,0.048033
956,0.058346,0.053554,0.091304
957,0.058346,0.022005,0.148999
958,0.058346,0.006231,0.07688
959,0.035379,-0.025317,-0.009662
960,0.012412,-0.088413,-0.096205
961,-0.010555,-0.088413,-0.096205
962,0.058346,-0.041091,-0.081781
963,0.035379,0.006231,0.019185
964,-0.05649,-0.025317,0.019185
965,-0.033523,-0.009543,0.091304
966,0.081313,0.03778,0.120151
967,0.196149,0.053554,0.07688
968,0.127248,-0.009543,0.048033
969,0.081313,-0.025317,-0.03851
970,0.10428,-0.009543,-0.03851
971,0.081313,-0.009543,-0.03851
972,0.035379,0.022005,-0.009662
973,-0.05649,0.022005,-0.009662
974,-0.21726,-0.041091,-0.024086
975,-0.010555,-0.056865,-0.024086
976,-0.05649,-0.025317,-0.067357
977,-0.05649,-0.009543,-0.052934
978,-0.010555,0.006231,0.033609
979,0.012412,0.006231,-0.009662
980,-0.010555,-0.041091,-0.024086
981,-0.010555,-0.056865,-0.024086
982,-0.010555,-0.056865,-0.052934
983,-0.010555,-0.009543,-0.052934
984,0.012412,0.006231,0.019185
985,-0.010555,-0.009543,0.048033
986,-0.05649,-0.025317,-0.024086
987,0.012412,-0.025317,-0.052934
988,-0.033523,-0.056865,0.004761
989,-0.102424,-0.041091,0.048033
990,-0.033523,-0.009543,-0.009662
991,0.012412,0.022005,0.033609
992,0.10428,0.053554,0.07688
993,0.081313,0.03778,0.07688
994,0.10428,0.006231,-0.009662
995,0.081313,0.022005,-0.024086
996,0.035379,-0.009543,-0.052934
997,0.012412,-0.041091,-0.024086
998,-0.033523,-0.056865,-0.052934
999,-0.05649,-0.056865,-0.110629
1000,-0.05649,-0.056865,-0.096205
1001,0.012412,-0.041091,-0.081781
1002,0.035379,-0.041091,-0.024086
1003,0.058346,-0.025317,-0.024086
1004,0.058346,-0.025317,-0.009662
1005,0.127248,-0.009543,0.004761
1006,0.150215,-0.025317,0.004761
1007,0.081313,-0.009543,-0.024086
1008,0.127248,0.022005,0.048033
1009,0.219116,0.03778,0.134575
1010,0.242083,0.085102,0.206694
1011,0.058346,0.022005,0.091304
1012,-0.21726,-0.056865,-0.110629
1013,-0.240227,-0.088413,-0.1539
1014,-0.079457,-0.041091,-0.081781
1015,-0.033523,-0.041091,-0.052934
1016,-0.033523,-0.009543,-0.024086
1017,-0.033523,-0.009543,-0.052934
1018,-0.05649,-0.009543,-0.024086
1019,0.012412,-0.009543,0.062456
1020,-0.05649,-0.009543,0.004761
1021,0.035379,-0.025317,0.004761
1022,-0.05649,-0.025317,-0.067357
1023,-0.033523,-0.025317,-0.096205
1024,0.012412,-0.056865,-0.067357
1025,0.012412,-0.041091,-0.009662
1026,-0.010555,-0.009543,0.004761
1027,-0.102424,0.006231,0.048033
1028,-0.102424,0.006231,0.048033
1029,-0.05649,-0.009543,0.019185
1030,-0.033523,-0.009543,-0.024086
1031,-0.010555,-0.025317,0.004761
1032,0.081313,-0.025317,0.004761
1033,0.081313,-0.041091,-0.03851
1034,0.058346,-0.025317,-0.024086
1035,0.058346,-0.025317,-0.024086
1036,0.058346,-0.041091,-0.009662
1037,0.10428,0.006231,0.019185
1038,0.10428,0.006231,0.048033
1039,0.035379,0.022005,0.048033
1040,0.081313,-0.025317,0.004761
1041,0.012412,-0.056865,-0.03851
1042,0.012412,-0.056865,-0.052934
1043,-0.05649,-0.041091,-0.03851
1044,-0.033523,-0.009543,-0.024086
1045,0.035379,-0.009543,-0.03851
1046,0.012412,0.006231,-0.024086
1047,0.035379,0.022005,-0.024086
1048,-0.05649,0.006231,0.004761
1049,0.058346,0.03778,0.019185
1050,0.035379,0.022005,0.004761
1051,0.012412,0.022005,0.004761
1052,-0.033523,0.022005,0.019185
1053,0.012412,-0.025317,0.004761
1054,0.012412,-0.009543,-0.03851
1055,-0.033523,-0.056865,-0.024086
1056,-0.010555,-0.025317,0.004761
1057,-0.033523,0.006231,-0.009662
1058,-0.079457,-0.009543,-0.024086
1059,-0.033523,-0.009543,-0.009662
1060,-0.033523,-0.025317,0.019185
1061,-0.033523,-0.025317,0.019185
1062,-0.033523,-0.009543,-0.009662
1063,0.012412,-0.025317,-0.009662
1064,0.035379,-0.025317,-0.024086
1065,0.035379,0.022005,-0.024086
1066,0.127248,-0.009543,-0.024086
1067,0.196149,0.006231,0.004761
1068,0.265051,-0.025317,0.019185
1069,0.219116,-0.025317,0.033609
1070,0.173182,-0.009543,0.048033
1071,0.035379,-0.025317,0.019185
1072,0.035379,-0.056865,-0.052934
1073,-0.010555,-0.072639,-0.081781
1074,-0.079457,-0.056865,-0.03851
1075,-0.171326,-0.041091,-0.024086
1076,0.012412,-0.025317,-0.024086
1077,-0.033523,-0.009543,0.004761
1078,-0.05649,-0.009543,0.019185
1079,-0.010555,0.006231,0.019185
1080,-0.033523,0.022005,0.033609
1081,0.012412,-0.009543,0.004761
1082,0.012412,0.006231,-0.024086
1083,0.012412,-0.009543,-0.03851
1084,0.035379,-0.009543,0.004761
1085,0.012412,-0.009543,-0.009662
1086,0.081313,-0.025317,-0.024086
1087,0.081313,-0.041091,-0.052934
1088,0.058346,-0.041091,-0.052934
1089,0.012412,0.006231,-0.024086
1090,0.10428,0.022005,0.019185
1091,0.150215,0.006231,-0.009662
1092,0.081313,-0.009543,0.019185
1093,-0.079457,-0.025317,-0.009662
1094,-0.05649,-0.072639,-0.03851
1095,-0.033523,-0.025317,-0.024086
1096,-0.102424,-0.009543,-0.009662
1097,-0.05649,-0.009543,-0.024086
1098,-0.05649,-0.025317,-0.009662
1099,-0.033523,0.03778,-0.009662
1100,-0.033523,0.022005,-0.024086
1101,-0.010555,-0.025317,-0.03851
1102,0.058346,-0.009543,-0.009662
1103,0.058346,-0.009543,-0.03851
1104,0.035379,-0.009543,-0.024086
1105,0.127248,0.006231,0.004761
1106,0.127248,0.006231,0.004761
1107,0.127248,0.006231,-0.009662
1108,0.035379,0.006231,-0.009662
1109,0.012412,-0.009543,0.019185
1110,-0.079457,-0.009543,0.019185
1111,-0.079457,-0.009543,-0.009662
1112,-0.125391,0.006231,-0.024086
1113,-0.079457,-0.025317,-0.009662
1114,-0.033523,-0.025317,-0.009662
1115,-0.079457,-0.041091,-0.024086
1116,-0.010555,0.006231,-0.024086
1117,0.012412,0.006231,-0.009662
1118,0.012412,-0.009543,0.019185
1119,0.10428,-0.009543,0.019185
1120,0.035379,-0.009543,0.048033
1121,0.035379,-0.041091,-0.009662
1122,-0.033523,-0.041091,-0.03851
1123,-0.033523,-0.025317,-0.03851
1124,-0.05649,-0.025317,-0.024086
1125,-0.010555,-0.009543,-0.009662
1126,0.012412,-0.009543,-0.024086
1127,0.058346,0.022005,0.004761
1128,0.012412,0.006231,-0.009662
1129,-0.010555,-0.025317,-0.024086
1130,0.012412,-0.009543,-0.009662
1131,0.058346,0.006231,-0.009662
1132,0.081313,-0.025317,0.004761
1133,0.012412,0.006231,-0.009662
1134,0.035379,-0.025317,0.004761
1135,0.012412,-0.009543,-0.024086
1136,-0.010555,-0.009543,0.033609
1137,-0.010555,-0.009543,0.019185
1138,0.012412,-0.009543,0.019185
1139,-0.05649,-0.009543,0.019185
1140,-0.079457,-0.025317,0.004761
1141,0.058346,-0.009543,-0.009662
1142,0.219116,0.006231,-0.024086
1143,0.173182,0.006231,-0.009662
1144,0.127248,0.006231,-0.009662
1145,0.10428,-0.025317,-0.024086
1146,0.081313,-0.009543,-0.024086
1147,0.10428,-0.009543,-0.024086
1148,0.173182,0.006231,-0.009662
1149,0.081313,0.022005,0.033609
1150,-0.125391,-0.009543,0.004761
1151,-0.171326,-0.009543,0.048033
1152,-0.102424,-0.009543,-0.03851
1153,-0.05649,-0.009543,-0.024086
1154,0.012412,-0.009543,-0.024086
1155,0.012412,-0.009543,-0.009662
1156,0.012412,-0.025317,-0.009662
1157,0.035379,-0.041091,-0.009662
1158,0.081313,-0.056865,-0.009662
1159,0.081313,-0.025317,-0.024086
1160,0.10428,-0.041091,-0.024086
1161,-0.033523,-0.025317,-0.03851
1162,-0.148358,-0.009543,-0.024086
1163,-0.05649,-0.009543,-0.009662
1164,0.058346,0.006231,0.004761
1165,0.058346,0.006231,0.004761
1166,-0.079457,0.022005,0.019185
1167,-0.079457,0.022005,0.019185
1168,0.058346,-0.009543,0.004761
1169,0.035379,0.022005,0.004761
1170,0.058346,-0.009543,0.004761
1171,0.012412,-0.009543,-0.024086
1172,0.012412,-0.025317,-0.009662
1173,0.058346,-0.009543,-0.009662
1174,0.081313,-0.009543,-0.03851
1175,0.012412,-0.025317,-0.067357
1176,-0.033523,-0.056865,-0.052934
1177,0.012412,-0.041091,-0.052934
1178,0.012412,-0.009543,-0.024086
1179,-0.010555,-0.025317,-0.009662
1180,0.012412,0.006231,-0.009662
1181,0.035379,-0.009543,0.019185
1182,0.058346,-0.009543,0.019185
1183,0.035379,0.006231,-0.009662
1184,0.035379,-0.025317,-0.024086
1185,-0.079457,-0.025317,-0.009662
1186,-0.010555,0.006231,-0.009662
1187,0.035379,-0.009543,0.004761
1188,0.035379,-0.025317,0.004761
1189,-0.010555,-0.025317,-0.009662
1190,0.012412,-0.009543,-0.009662
1191,-0.010555,0.006231,0.004761
1192,0.035379,0.006231,-0.009662
1193,0.058346,0.006231,0.004761
1194,0.012412,0.006231,-0.009662
1195,0.012412,-0.009543,0.019185
1196,0.035379,-0.009543,0.019185
1197,0.058346,-0.009543,0.019185
1198,0.035379,0.006231,0.019185
1199,0.035379,-0.025317,-0.024086
1200,0.035379,-0.025317,-0.024086
1201,0.058346,-0.025317,0.004761
1202,0.035379,0.006231,0.004761
1203,0.012412,-0.025317,-0.009662
1204,0.058346,0.006231,-0.03851
1205,0.035379,-0.041091,-0.03851
1206,0.081313,0.006231,-0.024086
1207,0.012412,0.006231,-0.009662
1208,-0.010555,0.006231,0.019185
1209,0.035379,0.006231,0.004761
1210,0.035379,-0.009543,-0.009662
1211,-0.010555,-0.009543,-0.024086
1212,-0.010555,-0.025317,-0.024086
1213,0.058346,-0.009543,0.004761
1214,-0.010555,0.006231,0.004761
1215,-0.033523,0.006231,-0.009662
1216,0.012412,-0.009543,-0.009662
1217,0.035379,-0.009543,-0.009662
1218,0.081313,-0.025317,-0.009662
1219,0.012412,-0.025317,-0.024086
1220,0.035379,-0.009543,-0.009662
1221,0.035379,-0.041091,-0.024086
1222,-0.05649,-0.009543,0.004761
1223,-0.010555,-0.025317,-0.009662
1224,0.012412,-0.009543,-0.009662
1225,-0.033523,-0.025317,-0.009662
1226,-0.033523,-0.009543,-0.009662
1227,-0.033523,-0.009543,-0.009662
1228,0.012412,-0.009543,0.004761
1229,0.035379,-0.009543,0.004761
1230,0.081313,-0.009543,0.004761
1231,-0.010555,-0.009543,0.019185
1232,0.012412,0.006231,0.004761
1233,0.035379,-0.025317,-0.009662
1234,0.035379,-0.041091,-0.024086
1235,0.081313,-0.025317,-0.024086
1236,0.035379,0.006231,-0.024086
1237,-0.010555,-0.009543,-0.009662
1238,0.012412,-0.009543,-0.009662
1239,-0.010555,-0.009543,-0.024086
1240,-0.033523,-0.025317,0.004761
1241,-0.033523,-0.025317,0.004761
1242,-0.102424,-0.009543,-0.009662
1243,-0.05649,-0.009543,-0.009662
1244,-0.033523,-0.025317,-0.009662
1245,-0.102424,-0.009543,0.004761
1246,-0.102424,-0.009543,-0.009662
1247,-0.05649,-0.009543,-0.009662
1248,-0.010555,-0.009543,-0.024086
1249,0.035379,0.006231,-0.009662
1250,-0.010555,-0.009543,0.004761
1251,0.058346,-0.009543,-0.009662
1252,0.127248,-0.025317,0.004761
1253,0.10428,-0.025317,-0.009662
1254,0.10428,-0.009543,0.004761
1255,0.035379,-0.009543,0.004761
1256,-0.010555,-0.041091,-0.009662
1257,-0.079457,-0.025317,0.004761
1258,-0.05649,-0.009543,0.048033
1259,0.058346,0.006231,0.019185
1260,0.035379,-0.025317,0.019185
1261,0.10428,-0.025317,0.019185
1262,0.058346,-0.025317,-0.03851
1263,0.035379,-0.009543,-0.03851
1264,0.081313,-0.009543,-0.024086
1265,0.012412,-0.025317,-0.03851
1266,-0.033523,-0.009543,-0.03851
1267,-0.010555,0.006231,-0.024086
1268,0.012412,0.006231,-0.024086
1269,0.035379,0.022005,-0.009662
1270,0.035379,0.006231,0.004761
1271,0.012412,-0.009543,0.004761
1272,0.012412,-0.009543,0.004761
1273,-0.05649,0.006231,0.004761
1274,0.081313,-0.009543,-0.009662
1275,0.150215,0.006231,0.048033
1276,0.127248,-0.025317,-0.024086
1277,0.081313,-0.009543,-0.03851
1278,0.10428,-0.025317,-0.009662
1279,0.058346,-0.009543,0.019185
1280,-0.102424,-0.025317,-0.009662
1281,-0.240227,-0.009543,-0.03851
1282,-0.102424,-0.025317,-0.009662
1283,-0.033523,-0.041091,-0.009662
1284,-0.010555,0.006231,-0.024086
1285,-0.033523,-0.009543,-0.024086
1286,-0.05649,-0.009543,-0.009662
1287,0.012412,-0.025317,-0.03851
1288,-0.010555,-0.009543,-0.009662
1289,0.012412,0.006231,0.004761
1290,-0.010555,0.006231,0.004761
1291,-0.010555,-0.025317,0.004761
1292,-0.010555,-0.009543,0.004761
1293,0.012412,-0.009543,0.004761
1294,0.035379,-0.009543,0.019185
1295,0.058346,-0.025317,0.004761
1296,0.10428,0.006231,-0.009662
1297,0.058346,-0.041091,-0.024086
1298,-0.010555,0.006231,0.004761
1299,-0.05649,-0.009543,-0.009662
1300,-0.010555,-0.025317,0.004761
1301,-0.033523,-0.009543,0.004761
1302,-0.033523,-0.025317,0.004761
1303,-0.033523,-0.025317,-0.009662
1304,-0.05649,-0.025317,-0.009662
1305,-0.033523,-0.009543,-0.009662
1306,-0.010555,-0.009543,-0.009662
1307,-0.033523,-0.009543,-0.009662
1308,-0.05649,-0.041091,0.004761
1309,0.012412,0.006231,-0.009662
1310,0.035379,0.006231,-0.009662
1311,0.081313,0.022005,-0.009662
1312,0.058346,0.006231,-0.009662
1313,0.10428,0.03778,0.004761
1314,0.127248,0.006231,-0.009662
1315,0.081313,0.006231,-0.009662
1316,0.081313,-0.041091,-0.009662
1317,0.035379,-0.041091,0.004761
1318,0.127248,-0.025317,0.004761
1319,0.012412,-0.025317,0.004761
1320,-0.079457,-0.025317,-0.009662
1321,-0.125391,-0.025317,-0.024086
1322,0.012412,-0.025317,-0.009662
1323,-0.033523,-0.009543,-0.03851
1324,-0.033523,-0.025317,-0.009662
1325,-0.033523,-0.025317,0.004761
1326,-0.033523,-0.009543,0.004761
1327,-0.05649,-0.009543,-0.009662
1328,-0.033523,-0.009543,0.004761
1329,0.012412,-0.041091,-0.024086
1330,0.012412,-0.025317,-0.024086
1331,0.012412,-0.025317,-0.024086
1332,-0.010555,0.006231,0.004761
1333,0.012412,0.03778,0.004761
1334,-0.010555,-0.009543,-0.024086
1335,-0.05649,-0.009543,-0.009662
1336,-0.05649,0.006231,-0.009662
1337,-0.010555,-0.009543,-0.009662
1338,-0.079457,-0.041091,-0.009662
1339,-0.010555,-0.025317,-0.009662
1340,-0.010555,-0.025317,-0.009662
1341,-0.010555,-0.025317,-0.024086
1342,-0.05649,-0.009543,-0.024086
1343,-0.010555,-0.025317,-0.009662
1344,-0.010555,0.006231,-0.024086
1345,0.012412,-0.025317,-0.009662
1346,-0.05649,-0.009543,0.004761
1347,-0.010555,-0.025317,0.004761
1348,0.035379,-0.009543,-0.024086
1349,0.035379,0.006231,-0.009662
1350,-0.010555,-0.025317,-0.009662
1351,0.012412,-0.009543,0.004761
1352,0.012412,-0.025317,-0.009662
1353,0.058346,-0.025317,-0.024086
1354,-0.033523,-0.009543,-0.009662
1355,-0.010555,0.006231,-0.024086
1356,0.012412,0.006231,-0.024086
1357,-0.010555,0.006231,-0.009662
1358,0.012412,-0.009543,0.004761
1359,0.012412,-0.009543,-0.009662
1360,0.058346,-0.009543,-0.009662
1361,-0.079457,-0.025317,-0.009662
1362,-0.102424,-0.009543,0.004761
1363,-0.033523,-0.025317,-0.009662
1364,-0.05649,-0.009543,0.004761
1365,-0.010555,-0.025317,0.004761
1366,-0.010555,0.006231,0.004761
1367,0.012412,-0.025317,-0.009662
1368,0.173182,-0.009543,0.004761
1369,0.127248,-0.009543,-0.009662
1370,0.081313,0.006231,-0.009662
1371,0.10428,-0.009543,-0.009662
1372,0.012412,0.006231,-0.009662
1373,-0.010555,-0.009543,-0.009662
1374,-0.033523,-0.009543,0.019185
1375,0.035379,-0.025317,0.004761
1376,0.035379,-0.009543,-0.024086
1377,0.012412,-0.041091,-0.009662
1378,0.035379,0.006231,-0.009662
1379,0.035379,-0.009543,0.004761
1380,0.035379,-0.009543,-0.009662
1381,-0.010555,-0.009543,-0.009662
1382,-0.010555,-0.009543,0.004761
1383,0.012412,-0.009543,-0.009662
1384,-0.033523,-0.009543,-0.009662
1385,0.012412,-0.025317,-0.024086
1386,0.012412,0.006231,-0.009662
1387,-0.010555,-0.009543,0.004761
1388,-0.010555,-0.009543,0.004761
1389,-0.010555,0.006231,0.004761
1390,0.035379,-0.009543,-0.009662
1391,0.012412,-0.009543,0.004761
1392,0.058346,-0.009543,-0.009662
1393,0.012412,0.006231,0.004761
1394,0.035379,-0.009543,0.004761
1395,-0.033523,-0.009543,0.004761
1396,-0.05649,-0.041091,-0.009662
1397,-0.033523,-0.009543,-0.024086
1398,-0.010555,-0.009543,-0.03851
1399,-0.010555,-0.025317,-0.024086
1400,-0.05649,-0.009543,-0.009662
1401,-0.033523,-0.009543,-0.009662
1402,0.035379,-0.009543,0.004761
1403,0.035379,-0.009543,0.019185
1404,-0.033523,-0.009543,-0.024086
1405,-0.010555,-0.025317,-0.03851
1406,0.012412,-0.025317,-0.024086
1407,0.012412,-0.025317,-0.024086
1408,0.012412,-0.009543,-0.009662
1409,0.012412,-0.009543,0.004761
1410,0.012412,0.006231,-0.024086
1411,0.058346,-0.009543,0.004761
1412,-0.033523,-0.009543,0.019185
1413,-0.05649,-0.025317,-0.009662
1414,0.058346,-0.009543,0.004761
1415,0.012412,-0.009543,0.048033
1416,-0.033523,0.006231,0.019185
1417,0.035379,0.006231,-0.009662
1418,0.035379,-0.009543,0.004761
1419,0.035379,-0.025317,0.004761
1420,-0.010555,-0.009543,0.004761
1421,0.012412,0.006231,-0.024086
1422,0.012412,-0.009543,-0.009662
1423,0.012412,-0.009543,-0.009662
1424,-0.010555,-0.009543,-0.009662
1425,-0.010555,-0.009543,-0.024086
1426,0.035379,0.006231,-0.009662
1427,-0.010555,-0.025317,0.004761
1428,-0.010555,-0.025317,-0.009662
1429,-0.010555,-0.009543,0.004761
1430,-0.010555,0.006231,-0.009662
1431,0.012412,0.006231,0.004761
1432,-0.033523,0.006231,0.033609
1433,-0.010555,0.006231,0.019185
1434,0.012412,-0.009543,0.004761
1435,-0.079457,-0.025317,0.004761
1436,-0.033523,-0.025317,-0.024086
1437,-0.010555,-0.025317,0.019185
1438,-0.010555,-0.009543,-0.024086
1439,-0.033523,-0.025317,-0.009662
1440,-0.033523,-0.009543,-0.024086
1441,-0.010555,0.006231,-0.009662
1442,-0.010555,-0.009543,0.004761
1443,-0.05649,-0.009543,-0.009662
1444,0.012412,-0.041091,-0.024086
1445,0.081313,-0.025317,-0.03851
1446,-0.010555,-0.041091,-0.024086
1447,-0.033523,-0.041091,-0.03851
1448,-0.010555,-0.009543,0.004761
1449,-0.010555,-0.009543,0.019185
1450,0.081313,-0.009543,0.019185
1451,-0.033523,0.006231,-0.009662
1452,0.058346,-0.009543,0.019185
1453,-0.033523,-0.009543,0.004761
1454,-0.010555,-0.009543,0.004761
1455,-0.010555,-0.009543,-0.009662
1456,-0.033523,-0.009543,-0.024086
1457,-0.010555,-0.009543,-0.03851
1458,-0.033523,-0.025317,0.004761
1459,-0.05649,-0.009543,0.004761
1460,0.012412,-0.025317,-0.009662
1461,-0.033523,-0.009543,0.004761
1462,0.081313,-0.009543,0.004761
1463,-0.033523,-0.025317,-0.009662
1464,0.012412,0.006231,-0.024086
1465,-0.010555,-0.009543,0.004761
1466,-0.033523,-0.009543,0.004761
1467,0.035379,-0.009543,-0.009662
1468,0.012412,-0.009543,0.004761
1469,0.035379,0.006231,0.004761
1470,0.035379,-0.009543,0.004761
1471,-0.033523,-0.025317,-0.009662
1472,0.012412,-0.009543,0.004761
1473,0.035379,0.006231,0.004761
1474,-0.010555,-0.009543,-0.009662
1475,-0.010555,-0.009543,-0.009662
1476,0.012412,-0.025317,-0.024086
1477,-0.010555,-0.025317,-0.009662
1478,0.035379,-0.025317,-0.009662
1479,0.035379,-0.009543,-0.009662
1480,0.081313,-0.025317,-0.009662
1481,0.012412,-0.009543,0.004761
1482,-0.033523,-0.009543,0.019185
1483,0.035379,-0.009543,0.004761
1484,-0.010555,-0.009543,0.004761
1485,0.035379,-0.009543,-0.009662
1486,0.035379,0.006231,0.019185
1487,-0.010555,0.006231,-0.009662
1488,0.035379,-0.025317,0.048033
1489,-0.033523,-0.025317,-0.024086
1490,-0.010555,-0.025317,-0.024086
1491,0.012412,-0.025317,-0.009662
1492,0.012412,-0.009543,-0.024086
1493,-0.033523,-0.025317,-0.024086
1494,-0.010555,-0.009543,0.004761
1495,-0.010555,-0.009543,0.004761
1496,-0.010555,0.006231,0.004761
1497,-0.010555,-0.025317,-0.009662
1498,-0.010555,-0.009543,-0.009662
1499,0.035379,0.006231,0.004761
1500,0.035379,-0.009543,-0.009662
1501,0.012412,-0.025317,-0.009662
1502,0.012412,-0.025317,-0.009662
1503,0.035379,0.006231,-0.009662
1504,0.035379,0.006231,-0.009662
1505,0.058346,-0.009543,0.004761
1506,0.035379,-0.025317,-0.024086
1507,0.127248,-0.009543,-0.009662
1508,0.012412,-0.009543,0.004761
1509,-0.010555,-0.025317,-0.009662
1510,0.058346,-0.041091,0.019185
1511,0.012412,-0.025317,0.033609
1512,0.035379,-0.009543,0.004761
1513,-0.010555,-0.025317,0.004761
1514,0.058346,-0.009543,-0.024086
1515,0.012412,-0.009543,-0.024086
1516,0.035379,-0.025317,-0.009662
1517,-0.010555,-0.009543,0.004761
1518,-0.05649,-0.009543,0.004761
1519,0.012412,-0.009543,-0.009662
1520,-0.010555,-0.025317,0.004761
1521,-0.033523,-0.009543,-0.009662
1522,-0.010555,0.006231,0.004761
1523,0.035379,-0.009543,-0.009662
1524,-0.033523,0.006231,-0.024086
1525,-0.010555,-0.025317,-0.009662
1526,-0.010555,-0.025317,-0.009662
1527,-0.010555,0.006231,-0.009662
1528,-0.033523,-0.025317,0.004761
1529,0.012412,-0.009543,0.004761
1530,0.058346,-0.025317,0.004761
1531,0.081313,-0.041091,-0.024086
1532,0.012412,-0.009543,0.004761
1533,-0.033523,-0.009543,-0.009662
1534,-0.033523,-0.009543,0.004761
1535,0.035379,-0.009543,-0.009662
1536,0.012412,-0.009543,-0.009662
1537,0.012412,-0.009543,-0.009662
1538,0.035379,-0.009543,0.004761
1539,-0.010555,-0.009543,0.004761
1540,0.035379,-0.025317,-0.009662
1541,0.081313,-0.025317,0.004761
1542,0.035379,0.006231,-0.009662
1543,0.012412,0.006231,-0.009662
1544,-0.010555,0.006231,-0.009662
1545,0.058346,0.006231,0.004761
1546,0.012412,-0.009543,0.019185
1547,0.035379,0.006231,0.019185
1548,-0.010555,-0.009543,0.004761
1549,-0.033523,-0.025317,0.019185
1550,0.035379,-0.009543,-0.024086
1551,-0.033523,-0.009543,-0.009662
1552,-0.010555,-0.025317,-0.009662
1553,-0.010555,-0.025317,-0.024086
1554,-0.05649,-0.025317,-0.024086
1555,-0.010555,-0.025317,-0.03851
1556,0.035379,-0.025317,-0.024086
1557,0.058346,-0.009543,-0.009662
1558,-0.010555,0.006231,-0.009662
1559,-0.010555,-0.009543,-0.009662
1560,-0.010555,-0.025317,-0.009662
1561,0.035379,-0.009543,0.004761
1562,0.058346,-0.025317,-0.009662
1563,-0.033523,-0.025317,0.004761
1564,-0.010555,-0.009543,0.004761
1565,0.058346,-0.009543,0.004761
1566,0.035379,-0.009543,-0.009662
1567,-0.033523,-0.025317,0.004761
1568,0.058346,-0.009543,0.004761
1569,0.10428,-0.009543,-0.024086
1570,0.012412,-0.009543,0.004761
1571,0.012412,-0.009543,-0.009662
1572,0.058346,-0.025317,-0.009662
1573,0.012412,-0.025317,-0.009662
1574,0.012412,-0.009543,0.019185
1575,-0.033523,-0.009543,0.019185
1576,0.035379,-0.009543,0.033609
1577,0.035379,0.006231,0.004761
1578,-0.033523,-0.025317,0.004761
1579,-0.05649,-0.009543,0.004761
1580,-0.033523,-0.009543,0.004761
1581,-0.010555,-0.009543,-0.024086
1582,0.012412,-0.009543,-0.009662
1583,-0.010555,-0.025317,-0.009662
1584,0.012412,-0.009543,-0.009662
1585,-0.033523,-0.009543,-0.009662
1586,-0.05649,-0.009543,0.004761
1587,0.035379,-0.041091,-0.009662
1588,-0.033523,-0.025317,-0.009662
1589,-0.033523,-0.009543,0.004761
1590,-0.033523,-0.009543,0.004761
1591,0.035379,-0.009543,0.004761
1592,0.058346,0.006231,-0.009662
1593,0.012412,-0.025317,-0.009662
1594,0.035379,-0.025317,-0.009662
1595,-0.010555,0.006231,0.004761
1596,-0.033523,0.006231,-0.009662
1597,0.012412,-0.025317,-0.024086
1598,0.035379,-0.009543,-0.024086
1599,0.058346,-0.009543,-0.009662
1600,0.058346,-0.009543,0.019185
1601,-0.010555,-0.009543,0.004761
1602,0.035379,-0.009543,-0.009662
1603,0.035379,-0.025317,-0.009662
1604,0.012412,-0.025317,-0.009662
1605,0.058346,0.022005,-0.024086
1606,-0.05649,-0.009543,-0.009662
1607,-0.033523,-0.009543,-0.009662
1608,-0.010555,-0.025317,-0.024086
1609,-0.033523,-0.025317,0.004761
1610,-0.033523,-0.009543,0.004761
1611,-0.010555,-0.025317,-0.009662
1612,0.012412,-0.009543,-0.009662
1613,0.012412,0.006231,0.004761
1614,0.012412,-0.009543,0.004761
1615,0.012412,-0.009543,0.004761
1616,-0.010555,0.022005,-0.009662
1617,-0.033523,-0.025317,0.004761
1618,-0.010555,-0.041091,-0.009662
1619,0.012412,-0.041091,0.004761
1620,-0.05649,-0.025317,-0.009662
1621,0.012412,0.006231,0.004761
1622,0.012412,-0.025317,-0.009662
1623,0.035379,-0.009543,0.004761
1624,0.012412,-0.025317,-0.009662
1625,-0.010555,-0.009543,0.004761
1626,0.012412,-0.009543,-0.009662
1627,0.012412,-0.009543,0.004761
1628,-0.010555,-0.025317,-0.009662
1629,-0.033523,-0.009543,0.004761
1630,0.058346,-0.009543,0.004761
1631,0.035379,0.006231,-0.009662
1632,0.012412,-0.025317,-0.009662
1633,-0.033523,-0.025317,-0.009662
1634,0.081313,-0.009543,0.004761
1635,-0.010555,0.006231,-0.009662
1636,-0.010555,-0.009543,-0.009662
1637,-0.033523,-0.009543,-0.009662
1638,-0.010555,-0.009543,0.004761
1639,-0.033523,-0.025317,-0.024086
1640,0.127248,-0.009543,0.019185
1641,0.058346,-0.009543,0.004761
1642,0.012412,-0.041091,0.004761
1643,-0.010555,-0.009543,0.004761
1644,-0.033523,-0.009543,0.004761
1645,-0.079457,-0.009543,0.004761
1646,0.035379,-0.009543,-0.009662
1647,0.012412,-0.009543,0.004761
1648,0.012412,0.006231,0.004761
1649,0.012412,-0.025317,-0.009662
1650,0.035379,-0.025317,-0.009662
1651,-0.033523,-0.009543,-0.024086
1652,-0.010555,-0.009543,-0.024086
1653,0.012412,-0.009543,-0.009662
1654,0.012412,-0.025317,-0.009662
1655,0.035379,-0.009543,-0.009662
1656,-0.010555,-0.025317,-0.024086
1657,0.012412,-0.009543,0.004761
1658,0.035379,-0.009543,-0.009662
1659,0.035379,-0.009543,0.004761
1660,0.035379,-0.025317,-0.009662
1661,0.012412,0.006231,0.019185
1662,0.012412,-0.009543,-0.024086
1663,-0.010555,0.006231,-0.009662
1664,-0.010555,-0.025317,0.004761
1665,0.058346,-0.025317,-0.009662
1666,0.035379,-0.025317,-0.009662
1667,-0.010555,-0.009543,-0.009662
1668,-0.010555,0.006231,0.019185
1669,-0.010555,0.006231,0.004761
1670,0.012412,-0.009543,-0.009662
1671,-0.010555,-0.009543,-0.009662
1672,-0.010555,0.006231,0.004761
1673,-0.033523,-0.009543,-0.009662
1674,-0.010555,-0.009543,-0.009662
1675,-0.010555,0.006231,-0.024086
1676,-0.010555,0.006231,-0.009662
1677,-0.010555,-0.025317,-0.024086
1678,0.012412,-0.009543,-0.024086
1679,-0.010555,-0.009543,0.004761
1680,-0.033523,-0.009543,-0.009662
1681,-0.010555,-0.009543,-0.009662
1682,-0.010555,-0.009543,0.004761
1683,-0.033523,-0.025317,0.004761
1684,-0.010555,-0.009543,-0.009662
1685,0.035379,-0.041091,-0.024086
1686,0.058346,-0.025317,-0.009662
1687,0.035379,-0.009543,0.004761
1688,0.035379,-0.009543,0.004761
1689,0.012412,-0.025317,0.004761
1690,0.035379,-0.009543,-0.009662
1691,-0.010555,-0.009543,-0.009662
1692,0.058346,-0.025317,0.004761
1693,0.058346,-0.009543,0.033609
1694,0.012412,-0.009543,-0.009662
1695,-0.05649,-0.009543,-0.009662
1696,-0.010555,-0.041091,-0.009662
1697,-0.010555,0.006231,0.004761
1698,-0.010555,0.006231,-0.009662
1699,0.035379,0.006231,-0.009662
1700,0.012412,-0.009543,-0.009662
1701,-0.010555,-0.025317,-0.024086
1702,-0.033523,-0.009543,-0.024086
1703,-0.05649,-0.025317,-0.009662
1704,0.012412,-0.009543,-0.009662
1705,-0.033523,-0.009543,0.004761
1706,0.012412,-0.009543,0.019185
1707,0.035379,0.006231,0.004761
1708,0.012412,-0.009543,0.004761
1709,-0.033523,-0.025317,-0.024086
1710,0.035379,-0.025317,-0.009662
1711,0.012412,-0.041091,-0.024086
1712,-0.033523,-0.009543,-0.009662
1713,-0.05649,-0.009543,-0.009662
1714,-0.05649,-0.009543,-0.009662
1715,-0.033523,-0.041091,-0.009662
1716,0.012412,-0.009543,-0.009662
1717,0.058346,0.006231,-0.009662
1718,0.012412,-0.009543,-0.009662
1719,0.012412,-0.009543,0.019185
1720,0.058346,0.006231,0.004761
1721,0.035379,-0.009543,-0.024086
1722,0.058346,-0.009543,0.004761
1723,0.012412,-0.025317,0.004761
1724,-0.010555,-0.025317,0.004761
1725,-0.033523,-0.009543,-0.024086
1726,-0.079457,-0.009543,-0.03851
1727,0.035379,-0.025317,0.004761
1728,-0.010555,-0.009543,0.004761
1729,-0.010555,0.006231,0.019185
1730,0.012412,0.006231,0.004761
1731,0.081313,-0.009543,0.004761
1732,0.058346,0.006231,0.004761
1733,-0.010555,-0.009543,0.004761
1734,0.012412,0.006231,0.004761
1735,0.012412,-0.009543,-0.009662
1736,0.035379,-0.009543,-0.024086
1737,-0.010555,-0.025317,0.004761
1738,-0.033523,-0.025317,0.004761
1739,-0.010555,0.006231,-0.009662
1740,0.012412,-0.009543,0.004761
1741,-0.033523,-0.009543,0.004761
1742,0.012412,-0.009543,0.004761
1743,0.035379,-0.009543,-0.009662
1744,-0.010555,-0.025317,0.004761
1745,0.012412,-0.009543,-0.009662
1746,-0.010555,-0.009543,0.004761
1747,0.035379,-0.025317,-0.009662
1748,0.012412,-0.025317,-0.024086
1749,0.012412,-0.025317,-0.009662
1750,0.012412,-0.009543,0.004761
1751,0.012412,-0.009543,-0.009662
1752,0.012412,-0.009543,-0.009662
1753,0.058346,-0.009543,-0.009662
1754,0.035379,-0.025317,0.004761
1755,0.035379,0.006231,0.004761
1756,-0.010555,-0.009543,0.004761
1757,-0.010555,-0.009543,-0.009662
1758,0.035379,-0.009543,-0.009662
1759,-0.010555,-0.025317,0.004761
1760,-0.010555,0.006231,-0.009662
1761,-0.033523,-0.025317,-0.009662
1762,0.035379,-0.009543,-0.009662
1763,0.012412,-0.009543,-0.009662
1764,0.012412,-0.009543,-0.009662
1765,-0.010555,-0.009543,-0.024086
1766,-0.079457,-0.009543,-0.03851
1767,-0.05649,-0.025317,-0.009662
1768,-0.033523,-0.025317,-0.009662
1769,-0.05649,-0.009543,-0.009662
1770,-0.010555,-0.009543,-0.009662
1771,0.012412,-0.025317,0.004761
1772,-0.010555,-0.025317,-0.009662
1773,-0.05649,-0.009543,-0.009662
1774,0.012412,-0.009543,-0.009662
1775,-0.010555,0.022005,0.004761
1776,-0.033523,-0.009543,0.004761
1777,-0.010555,0.006231,0.004761
1778,-0.010555,-0.009543,0.019185
1779,0.035379,-0.009543,0.004761
1780,-0.033523,-0.009543,0.004761
1781,-0.010555,-0.009543,-0.009662
1782,0.035379,-0.009543,-0.009662
1783,0.012412,-0.025317,-0.009662
1784,0.012412,-0.025317,-0.024086
1785,-0.010555,-0.025317,-0.024086
1786,0.035379,-0.025317,-0.009662
1787,0.012412,-0.025317,-0.009662
1788,-0.010555,-0.009543,-0.009662
1789,-0.010555,-0.025317,-0.024086
1790,0.012412,-0.009543,-0.009662
1791,-0.033523,-0.009543,0.004761
1792,-0.010555,-0.009543,-0.009662
1793,0.035379,-0.025317,0.004761
1794,0.012412,-0.025317,-0.009662
1795,0.012412,-0.025317,-0.009662
1796,-0.010555,-0.009543,-0.009662
1797,-0.010555,-0.009543,0.004761
1798,0.012412,-0.009543,-0.009662
1799,0.058346,-0.009543,0.004761
1800,-0.033523,-0.041091,0.004761
1801,-0.05649,-0.009543,-0.009662
1802,-0.010555,-0.025317,0.019185
1803,-0.010555,-0.025317,0.004761
1804,-0.033523,-0.025317,-0.009662
1805,-0.033523,-0.009543,0.019185
1806,0.012412,-0.009543,-0.009662
1807,0.012412,-0.009543,-0.009662
1808,-0.033523,-0.025317,0.004761
1809,-0.033523,-0.009543,0.004761
1810,0.035379,-0.025317,0.004761
1811,-0.05649,0.006231,0.004761
1812,0.035379,-0.009543,0.004761
1813,-0.010555,-0.025317,-0.009662
1814,0.035379,-0.025317,0.004761
1815,-0.010555,-0.009543,-0.009662
1816,0.058346,-0.025317,-0.024086
1817,0.035379,-0.041091,-0.03851
1818,0.012412,-0.025317,-0.009662
1819,0.035379,0.006231,-0.024086
1820,-0.033523,-0.041091,0.004761
1821,-0.010555,-0.025317,-0.009662
1822,0.035379,-0.025317,0.019185
1823,-0.033523,0.006231,-0.009662
1824,0.012412,-0.009543,0.004761
1825,-0.010555,-0.025317,-0.009662
1826,-0.010555,-0.041091,-0.009662
1827,-0.033523,-0.009543,-0.009662
1828,0.012412,-0.009543,0.004761
1829,0.035379,-0.009543,-0.009662
1830,0.035379,-0.009543,0.004761
1831,-0.010555,-0.025317,0.004761
1832,-0.033523,-0.009543,-0.024086
1833,0.058346,-0.025317,0.004761
1834,0.012412,0.006231,-0.009662
1835,-0.033523,-0.009543,0.004761
1836,-0.010555,-0.025317,-0.009662
1837,0.035379,-0.009543,-0.024086
1838,-0.010555,-0.009543,-0.009662
1839,-0.033523,-0.009543,-0.009662
1840,-0.05649,-0.025317,-0.024086
1841,-0.033523,-0.009543,0.004761
1842,-0.033523,-0.009543,0.004761
1843,-0.033523,-0.009543,0.004761
1844,-0.010555,-0.025317,0.004761
1845,-0.010555,-0.025317,0.004761
1846,0.012412,0.006231,0.019185
1847,-0.05649,-0.025317,-0.009662
1848,0.012412,-0.025317,-0.009662
1849,-0.010555,-0.025317,-0.024086
1850,0.012412,-0.025317,-0.009662
1851,-0.010555,-0.025317,-0.024086
1852,-0.010555,-0.025317,-0.009662
1853,0.012412,0.006231,-0.009662
1854,0.035379,-0.009543,0.004761
1855,0.012412,-0.009543,0.019185
1856,0.035379,-0.009543,0.004761
1857,0.012412,0.022005,0.004761
1858,0.035379,-0.009543,0.019185
1859,0.012412,-0.009543,0.004761
1860,0.035379,-0.025317,0.048033
1861,0.012412,-0.025317,-0.009662
1862,-0.010555,-0.025317,0.004761
1863,-0.010555,-0.041091,-0.009662
1864,0.058346,-0.025317,-0.009662
1865,0.035379,-0.009543,-0.009662
1866,0.012412,0.006231,-0.024086
1867,0.012412,-0.025317,-0.009662
1868,0.058346,-0.009543,-0.009662
1869,0.012412,0.006231,-0.009662
1870,0.035379,-0.025317,-0.009662
1871,-0.102424,-0.009543,0.004761
1872,-0.079457,-0.009543,-0.009662
1873,-0.033523,-0.009543,0.004761
1874,-0.05649,-0.009543,0.004761
1875,-0.033523,-0.009543,-0.009662
1876,-0.033523,-0.025317,-0.009662
1877,-0.033523,-0.009543,-0.009662
1878,-0.05649,-0.025317,0.004761
1879,0.012412,-0.025317,-0.009662
1880,0.012412,-0.041091,-0.009662
1881,0.035379,-0.009543,-0.03851
1882,-0.010555,-0.041091,-0.009662
1883,-0.010555,-0.025317,0.004761
1884,0.012412,-0.009543,-0.009662
1885,0.058346,-0.025317,-0.024086
1886,0.012412,-0.009543,-0.009662
1887,-0.033523,-0.025317,-0.009662
1888,0.012412,0.006231,-0.009662
1889,0.035379,-0.025317,-0.024086
1890,-0.033523,-0.009543,-0.009662
1891,0.012412,-0.009543,0.004761
1892,0.012412,-0.009543,0.004761
1893,0.012412,-0.025317,-0.024086
1894,-0.010555,-0.009543,0.004761
1895,0.035379,0.006231,0.019185
1896,0.012412,-0.009543,0.019185
1897,-0.010555,-0.009543,0.004761
1898,-0.010555,-0.009543,-0.009662
1899,-0.033523,-0.009543,-0.009662
1900,-0.010555,-0.025317,0.019185
1901,-0.05649,0.006231,0.004761
1902,0.012412,-0.009543,0.004761
1903,0.012412,-0.009543,0.019185
1904,0.012412,-0.009543,0.019185
1905,-0.033523,-0.025317,0.019185
1906,-0.033523,0.006231,0.004761
1907,0.012412,-0.009543,-0.009662
1908,-0.033523,-0.025317,0.004761
1909,-0.05649,-0.041091,0.004761
1910,0.012412,-0.009543,-0.009662
1911,0.012412,-0.009543,-0.009662
1912,0.012412,-0.025317,-0.024086
1913,-0.033523,-0.025317,-0.024086
1914,-0.010555,-0.025317,-0.03851
1915,0.012412,-0.009543,-0.024086
1916,0.035379,-0.025317,-0.009662
1917,0.035379,-0.025317,-0.009662
1918,0.012412,0.006231,0.004761
1919,0.035379,-0.025317,-0.03851
1920,-0.033523,-0.009543,-0.009662
1921,-0.010555,-0.009543,-0.009662
1922,0.081313,-0.009543,-0.009662
1923,-0.010555,-0.025317,-0.009662
1924,-0.010555,-0.009543,-0.009662
1925,0.012412,-0.025317,-0.009662
1926,0.012412,-0.009543,-0.009662
1927,0.012412,-0.025317,-0.024086
1928,0.058346,-0.025317,-0.009662
1929,-0.033523,0.006231,-0.009662
1930,0.081313,-0.009543,0.004761
1931,0.035379,-0.041091,-0.009662
1932,-0.033523,0.006231,-0.009662
1933,-0.033523,0.006231,0.004761
1934,-0.010555,-0.025317,-0.009662
1935,-0.033523,-0.009543,0.004761
1936,0.012412,-0.009543,0.004761
1937,-0.010555,-0.009543,0.019185
1938,-0.05649,-0.025317,-0.024086
1939,-0.010555,-0.025317,-0.024086
1940,-0.05649,0.006231,0.004761
1941,-0.033523,-0.025317,-0.009662
1942,0.012412,-0.009543,0.004761
1943,0.012412,-0.009543,-0.009662
1944,-0.05649,0.006231,0.004761
1945,0.035379,-0.009543,0.019185
1946,0.012412,-0.009543,0.004761
1947,0.012412,0.022005,0.019185
1948,-0.05649,-0.025317,-0.009662
1949,-0.033523,-0.025317,-0.009662
1950,0.035379,-0.041091,-0.009662
1951,0.035379,-0.009543,-0.009662
1952,0.012412,-0.025317,-0.009662
1953,0.012412,-0.009543,0.004761
1954,0.035379,-0.009543,0.004761
1955,0.012412,-0.009543,-0.009662
1956,0.035379,-0.009543,0.019185
1957,0.012412,-0.041091,-0.024086
1958,0.012412,-0.025317,-0.009662
1959,-0.033523,-0.056865,-0.009662
1960,-0.010555,-0.025317,-0.009662
1961,0.012412,0.006231,0.004761
1962,0.035379,-0.025317,-0.009662
1963,-0.079457,-0.025317,-0.009662
1964,-0.05649,-0.025317,0.004761
1965,-0.033523,-0.009543,-0.009662
1966,0.012412,-0.025317,-0.009662
1967,0.035379,-0.009543,0.004761
1968,-0.033523,-0.025317,-0.009662
1969,-0.05649,-0.025317,0.004761
1970,-0.05649,-0.009543,-0.009662
1971,-0.079457,-0.009543,0.004761
1972,-0.05649,-0.025317,-0.009662
1973,0.012412,-0.009543,-0.009662
1974,-0.010555,-0.009543,-0.009662
1975,-0.033523,-0.025317,0.004761
1976,0.012412,-0.025317,-0.009662
1977,0.012412,-0.009543,-0.009662
1978,0.035379,-0.025317,-0.009662
1979,0.035379,-0.009543,-0.009662
1980,-0.010555,-0.025317,-0.009662
1981,0.058346,-0.009543,0.004761
1982,0.058346,0.006231,-0.009662
1983,0.058346,-0.025317,-0.009662
1984,0.012412,0.006231,0.004761
1985,-0.010555,-0.009543,0.004761
1986,0.012412,-0.025317,0.004761
1987,0.012412,-0.009543,0.019185
1988,0.035379,-0.009543,-0.024086
1989,0.035379,-0.025317,-0.024086
1990,0.012412,-0.025317,-0.009662
1991,-0.010555,-0.009543,-0.009662
1992,-0.05649,-0.009543,0.004761
1993,-0.010555,-0.009543,-0.009662
1994,-0.010555,-0.009543,-0.009662
1995,-0.010555,0.006231,0.019185
1996,0.035379,0.006231,0.019185
1997,0.035379,-0.025317,0.004761
1998,-0.010555,-0.025317,-0.009662
1999,-0.010555,-0.009543,-0.024086
2000,-0.033523,-0.025317,-0.009662
2001,-0.010555,-0.009543,-0.024086
2002,-0.033523,-0.025317,-0.009662
2003,-0.033523,-0.025317,-0.009662
2004,-0.010555,-0.025317,0.004761
2005,0.035379,-0.025317,0.004761
2006,-0.010555,-0.041091,-0.009662
2007,-0.033523,-0.009543,0.019185
2008,-0.010555,-0.009543,-0.009662
2009,-0.010555,-0.009543,-0.009662
2010,0.012412,-0.009543,-0.009662
2011,-0.010555,0.006231,0.019185
2012,-0.010555,0.006231,0.004761
2013,0.035379,-0.009543,0.004761
2014,0.035379,-0.009543,-0.024086
2015,-0.010555,-0.025317,-0.009662
2016,0.012412,-0.025317,-0.009662
2017,-0.010555,-0.025317,0.004761
2018,0.035379,-0.009543,0.004761
2019,0.012412,0.006231,0.004761
2020,-0.010555,0.006231,0.004761
2021,0.035379,-0.025317,0.033609
2022,0.035379,-0.009543,0.033609
2023,-0.010555,-0.009543,0.004761
2024,-0.033523,-0.009543,0.004761
2025,0.012412,-0.009543,0.019185
2026,-0.010555,0.006231,0.019185
2027,-0.010555,-0.009543,0.004761
2028,0.012412,-0.009543,-0.024086
2029,0.035379,-0.025317,-0.03851
2030,-0.033523,-0.009543,-0.024086
2031,-0.010555,-0.009543,-0.052934
2032,-0.05649,-0.025317,-0.03851
2033,-0.033523,-0.009543,-0.024086
2034,-0.033523,-0.025317,-0.009662
2035,-0.05649,-0.009543,0.019185
2036,-0.010555,-0.025317,0.004761
2037,0.012412,-0.025317,0.004761
2038,-0.033523,-0.025317,-0.009662
2039,0.012412,-0.009543,-0.03851
2040,-0.033523,-0.009543,-0.03851
2041,-0.033523,-0.025317,-0.024086
2042,-0.05649,-0.009543,0.004761
2043,0.035379,-0.041091,0.004761
2044,-0.010555,-0.025317,0.004761
2045,0.012412,-0.009543,-0.009662
2046,-0.010555,-0.025317,-0.009662
2047,0.035379,-0.009543,0.004761
2048,0.012412,-0.025317,-0.009662
2049,0.035379,-0.009543,0.004761
2050,-0.010555,-0.025317,-0.009662
2051,-0.010555,-0.009543,0.004761
2052,0.058346,-0.025317,0.004761
2053,0.012412,-0.009543,0.033609
2054,0.035379,-0.009543,0.004761
2055,0.058346,-0.009543,0.019185
2056,0.012412,0.022005,-0.009662
2057,0.012412,-0.025317,0.004761
2058,-0.033523,-0.009543,0.004761
2059,0.012412,-0.009543,0.004761
2060,0.035379,0.006231,-0.009662
2061,-0.033523,-0.009543,0.004761
2062,-0.033523,-0.009543,0.033609
2063,-0.010555,-0.009543,0.004761
2064,-0.010555,-0.025317,-0.009662
2065,-0.05649,-0.009543,-0.024086
2066,-0.05649,-0.025317,-0.024086
2067,-0.010555,-0.009543,-0.024086
2068,-0.033523,-0.025317,-0.024086
2069,-0.010555,-0.025317,0.004761
2070,0.035379,0.022005,0.004761
2071,-0.033523,0.006231,0.004761
2072,-0.010555,0.006231,0.004761
2073,-0.010555,0.006231,0.004761
2074,-0.010555,-0.025317,-0.024086
2075,-0.010555,-0.025317,-0.024086
2076,0.035379,-0.009543,-0.009662
2077,-0.033523,-0.009543,-0.024086
2078,0.012412,-0.025317,0.004761
2079,0.058346,-0.025317,-0.024086
2080,0.058346,-0.009543,-0.009662
2081,-0.010555,-0.025317,-0.009662
2082,-0.010555,-0.025317,0.004761
2083,0.012412,-0.025317,-0.009662
2084,0.012412,0.006231,-0.009662
2085,0.012412,-0.009543,-0.009662
2086,0.012412,0.069328,0.004761
2087,0.012412,-0.009543,0.004761
2088,-0.033523,0.006231,-0.009662
2089,-0.010555,-0.009543,-0.009662
2090,0.012412,-0.009543,-0.009662
2091,0.035379,-0.009543,-0.009662
2092,-0.010555,-0.009543,-0.009662
2093,-0.05649,-0.041091,-0.009662
2094,-0.010555,-0.041091,-0.009662
2095,0.012412,-0.009543,0.004761
2096,0.012412,-0.009543,-0.009662
2097,-0.079457,-0.041091,0.019185
2098,-0.010555,0.006231,0.004761
2099,0.035379,-0.009543,0.004761
2100,-0.010555,-0.009543,-0.009662
2101,0.012412,-0.009543,-0.009662
2102,-0.010555,-0.009543,-0.009662
2103,-0.033523,0.006231,-0.009662
2104,0.012412,-0.009543,0.004761
2105,-0.05649,-0.009543,0.004761
2106,0.012412,-0.025317,0.004761
2107,0.058346,-0.025317,-0.009662
2108,-0.010555,-0.009543,0.004761
2109,0.012412,-0.009543,0.004761
2110,0.035379,-0.025317,0.004761
2111,0.012412,-0.009543,-0.009662
2112,-0.033523,0.006231,0.004761
2113,0.012412,-0.009543,0.004761
2114,0.058346,-0.009543,-0.009662
2115,0.035379,0.006231,0.019185
2116,0.035379,-0.009543,-0.009662
2117,-0.010555,-0.009543,0.004761
2118,-0.05649,-0.025317,0.004761
2119,-0.05649,-0.025317,-0.009662
2120,-0.010555,-0.041091,-0.009662
2121,-0.010555,-0.009543,-0.024086
2122,-0.010555,-0.025317,-0.024086
2123,-0.033523,-0.025317,-0.024086
2124,-0.033523,-0.025317,-0.024086
2125,-0.010555,-0.025317,-0.009662
2126,0.012412,-0.025317,-0.009662
2127,-0.010555,0.006231,-0.009662
2128,-0.010555,-0.025317,-0.024086
2129,-0.033523,-0.009543,-0.009662
2130,-0.010555,-0.009543,0.004761
2131,-0.010555,0.006231,0.004761
2132,0.012412,-0.009543,0.004761
2133,-0.010555,-0.025317,-0.009662
2134,-0.010555,-0.009543,-0.024086
2135,-0.010555,-0.025317,0.004761
2136,-0.033523,-0.009543,0.004761
2137,0.035379,0.006231,0.004761
2138,0.035379,-0.009543,-0.009662
2139,-0.05649,-0.009543,0.004761
2140,-0.010555,-0.009543,-0.009662
2141,0.012412,-0.025317,-0.009662
2142,0.058346,0.006231,-0.024086
2143,-0.010555,-0.025317,-0.009662
2144,0.012412,-0.009543,-0.009662
2145,0.035379,-0.009543,-0.009662
2146,0.035379,-0.009543,0.004761
2147,0.035379,-0.009543,0.004761
2148,0.058346,-0.009543,0.004761
2149,0.012412,0.006231,-0.009662
2150,-0.010555,0.006231,0.019185
2151,-0.010555,-0.009543,0.004761
2152,0.035379,-0.009543,0.019185
2153,0.012412,-0.025317,-0.009662
2154,-0.010555,-0.025317,-0.009662
2155,-0.010555,-0.025317,-0.024086
2156,0.012412,-0.056865,-0.024086
2157,0.035379,0.006231,-0.024086
2158,-0.010555,0.006231,-0.03851
2159,-0.079457,-0.025317,-0.024086
2160,-0.033523,-0.025317,-0.009662
2161,-0.033523,0.006231,-0.009662
2162,-0.033523,-0.009543,-0.009662
2163,0.012412,-0.025317,0.019185
2164,0.035379,-0.009543,0.019185
2165,-0.05649,-0.025317,0.004761
2166,0.012412,-0.025317,-0.009662
2167,0.058346,-0.025317,0.004761
2168,0.058346,-0.009543,-0.009662
2169,0.035379,-0.009543,-0.009662
2170,0.035379,0.006231,-0.009662
2171,-0.010555,0.006231,0.004761
2172,-0.010555,-0.025317,-0.024086
2173,0.035379,-0.025317,-0.024086
2174,-0.05649,-0.025317,0.048033
2175,-0.010555,-0.009543,-0.024086
2176,0.012412,-0.009543,-0.009662
2177,0.012412,-0.009543,-0.024086
2178,0.035379,-0.009543,-0.009662
2179,-0.010555,-0.025317,-0.009662
2180,0.058346,-0.009543,0.004761
2181,-0.010555,-0.025317,-0.009662
2182,-0.010555,-0.009543,-0.009662
2183,0.035379,-0.009543,0.004761
2184,0.035379,0.006231,0.004761
2185,-0.05649,0.006231,-0.009662
2186,-0.010555,-0.025317,0.004761
2187,0.012412,0.006231,0.004761
2188,-0.010555,-0.009543,0.019185
2189,0.127248,-0.009543,-0.009662
2190,-0.033523,-0.025317,-0.009662
2191,0.035379,-0.009543,0.004761
2192,0.012412,-0.025317,0.004761
2193,-0.05649,-0.025317,-0.009662
2194,-0.033523,-0.025317,-0.009662
2195,-0.033523,-0.025317,-0.009662
2196,-0.033523,-0.009543,-0.009662
2197,-0.010555,-0.025317,-0.009662
2198,-0.010555,-0.025317,0.004761
2199,0.035379,-0.025317,-0.009662
2200,-0.010555,-0.025317,-0.009662
2201,-0.010555,-0.009543,0.004761
2202,0.035379,-0.009543,-0.024086
2203,0.035379,0.006231,-0.009662
2204,0.10428,-0.009543,0.004761
2205,-0.010555,-0.009543,-0.009662
2206,-0.010555,-0.009543,0.004761
2207,0.035379,-0.025317,-0.009662
2208,-0.033523,-0.009543,-0.024086
2209,0.012412,-0.025317,-0.009662
2210,0.058346,-0.041091,0.004761
2211,0.035379,-0.041091,0.004761
2212,-0.010555,0.006231,0.004761
2213,-0.010555,-0.009543,0.004761
2214,0.058346,-0.009543,-0.009662
2215,0.035379,-0.041091,-0.009662
2216,-0.010555,-0.009543,-0.009662
2217,0.012412,-0.009543,-0.009662
2218,-0.033523,-0.009543,-0.009662
2219,-0.102424,-0.025317,-0.009662
2220,-0.033523,-0.041091,-0.009662
2221,-0.033523,-0.009543,0.004761
2222,0.035379,-0.009543,-0.009662
2223,-0.010555,-0.009543,-0.009662
2224,0.012412,-0.025317,0.004761
2225,-0.033523,0.022005,0.004761
2226,0.035379,0.006231,0.004761
2227,0.035379,-0.041091,0.004761
2228,0.012412,-0.009543,0.004761
2229,-0.033523,-0.025317,-0.009662
2230,-0.010555,-0.009543,0.004761
2231,-0.010555,-0.025317,0.004761
2232,-0.010555,-0.025317,-0.009662
2233,-0.010555,-0.025317,-0.009662
2234,0.058346,-0.009543,0.004761
2235,0.012412,-0.009543,0.019185
2236,-0.010555,-0.009543,-0.009662
2237,0.035379,-0.009543,0.004761
2238,0.012412,-0.009543,-0.024086
2239,0.035379,-0.025317,-0.024086
2240,0.035379,-0.009543,-0.024086
2241,-0.010555,-0.009543,-0.009662
2242,-0.010555,-0.025317,-0.009662
2243,-0.05649,-0.009543,0.004761
2244,0.012412,-0.009543,-0.009662
2245,-0.010555,-0.009543,0.004761
2246,0.012412,-0.025317,-0.024086
2247,0.012412,-0.025317,-0.009662
2248,-0.010555,0.006231,-0.009662
2249,0.035379,-0.025317,0.004761
2250,-0.010555,-0.025317,-0.009662
2251,-0.010555,-0.009543,-0.009662
2252,-0.05649,-0.025317,-0.009662
2253,0.012412,-0.009543,-0.009662
2254,-0.033523,-0.025317,-0.009662
2255,-0.033523,-0.025317,0.004761
2256,0.012412,-0.025317,-0.009662
2257,0.012412,-0.025317,0.004761
2258,-0.05649,-0.009543,-0.009662
2259,-0.010555,-0.025317,-0.009662
2260,0.035379,-0.025317,0.004761
2261,-0.010555,-0.009543,0.004761
2262,0.058346,-0.025317,0.004761
2263,-0.010555,-0.025317,-0.009662
2264,0.012412,0.006231,-0.009662
2265,0.012412,0.006231,0.004761
2266,0.012412,0.006231,0.004761
2267,-0.010555,-0.025317,0.004761
2268,0.035379,-0.009543,0.019185
2269,0.012412,-0.056865,-0.009662
2270,-0.033523,-0.025317,0.004761
2271,-0.033523,-0.009543,0.004761
2272,0.035379,-0.009543,0.004761
2273,-0.010555,0.006231,0.048033
2274,0.035379,-0.009543,0.019185
2275,-0.033523,-0.009543,0.004761
2276,0.012412,-0.009543,-0.009662
2277,-0.010555,-0.041091,-0.009662
2278,-0.079457,-0.009543,-0.009662
2279,0.012412,-0.025317,-0.024086
2280,-0.010555,-0.009543,-0.024086
2281,-0.079457,-0.009543,-0.009662
2282,-0.010555,-0.041091,-0.024086
2283,-0.033523,-0.025317,0.004761
2284,-0.033523,-0.009543,-0.009662
2285,-0.010555,-0.009543,-0.009662
2286,-0.033523,-0.009543,-0.024086
2287,-0.010555,-0.009543,0.004761
2288,0.012412,-0.009543,-0.009662
2289,-0.010555,-0.009543,-0.009662
2290,-0.05649,-0.025317,-0.024086
2291,-0.05649,-0.041091,-0.009662
2292,-0.033523,-0.025317,0.048033
2293,0.035379,-0.009543,-0.024086
2294,-0.010555,-0.041091,-0.024086
2295,0.035379,-0.009543,0.004761
2296,0.035379,-0.009543,0.004761
2297,0.035379,0.006231,0.004761
2298,0.012412,-0.009543,0.004761
2299,0.058346,-0.009543,-0.009662
2300,0.035379,-0.009543,-0.024086
2301,0.035379,-0.009543,-0.009662
2302,-0.05649,-0.009543,0.004761
2303,-0.033523,-0.025317,0.019185
2304,0.058346,-0.025317,0.004761
2305,0.035379,-0.009543,-0.03851
2306,0.012412,-0.009543,-0.024086
2307,0.012412,-0.025317,-0.009662
2308,-0.033523,-0.025317,0.004761
2309,-0.05649,-0.009543,-0.009662
2310,-0.033523,-0.009543,0.004761
2311,-0.033523,-0.009543,0.004761
2312,-0.033523,-0.025317,0.004761
2313,0.012412,-0.009543,-0.009662
2314,0.012412,-0.009543,-0.024086
2315,0.012412,-0.009543,-0.009662
2316,0.012412,-0.025317,-0.024086
2317,-0.010555,0.006231,-0.009662
2318,-0.010555,0.006231,-0.009662
2319,-0.010555,-0.009543,0.019185
2320,-0.033523,-0.009543,0.004761
2321,-0.05649,-0.009543,-0.009662
2322,0.012412,-0.025317,-0.009662
2323,-0.010555,-0.056865,0.004761
2324,-0.010555,-0.025317,0.004761
2325,0.058346,0.006231,-0.009662
2326,0.035379,0.006231,-0.009662
2327,-0.010555,0.006231,-0.009662
2328,0.012412,-0.009543,-0.024086
2329,-0.010555,-0.009543,0.004761
2330,0.035379,-0.025317,-0.024086
2331,0.012412,-0.025317,-0.009662
2332,0.058346,-0.009543,0.004761
2333,-0.010555,-0.025317,-0.009662
2334,-0.010555,-0.009543,0.048033
2335,0.058346,0.006231,-0.009662
2336,-0.033523,-0.009543,0.004761
2337,-0.033523,0.006231,-0.009662
2338,0.035379,-0.009543,0.004761
2339,-0.010555,-0.041091,-0.03851
2340,0.012412,-0.025317,-0.009662
2341,-0.079457,-0.025317,-0.009662
2342,-0.010555,-0.025317,-0.009662
2343,-0.010555,-0.025317,0.004761
2344,0.012412,-0.009543,0.004761
2345,-0.102424,-0.009543,0.004761
2346,-0.033523,0.006231,0.019185
2347,-0.010555,-0.009543,0.019185
2348,-0.010555,-0.009543,0.033609
2349,-0.05649,-0.009543,0.019185
2350,-0.033523,-0.025317,0.004761
2351,-0.033523,-0.025317,0.004761
2352,-0.033523,0.006231,0.004761
2353,0.012412,-0.009543,0.004761
2354,-0.010555,0.006231,-0.009662
2355,0.012412,-0.041091,-0.009662
2356,-0.010555,0.006231,0.004761
2357,0.058346,-0.009543,-0.009662
2358,0.058346,-0.009543,-0.009662
2359,0.012412,-0.009543,-0.009662
2360,-0.05649,-0.009543,-0.024086
2361,0.012412,-0.025317,-0.024086
2362,0.012412,-0.009543,-0.024086
2363,-0.010555,-0.025317,-0.024086
2364,0.012412,-0.025317,-0.024086
2365,0.012412,-0.025317,-0.024086
2366,0.012412,0.006231,-0.009662
2367,0.012412,0.006231,0.004761
2368,0.012412,-0.025317,0.004761
2369,0.035379,-0.009543,0.004761
2370,0.012412,-0.009543,-0.009662
2371,-0.033523,-0.025317,-0.024086
2372,-0.010555,-0.025317,-0.009662
2373,0.012412,-0.025317,-0.009662
2374,0.012412,-0.009543,0.004761
2375,-0.010555,-0.025317,-0.009662
2376,-0.010555,-0.009543,0.004761
2377,0.035379,-0.009543,0.004761
2378,0.012412,0.006231,0.004761
2379,-0.05649,-0.025317,0.004761
2380,-0.05649,-0.025317,-0.009662
2381,-0.010555,-0.025317,-0.009662
2382,-0.033523,-0.009543,0.019185
2383,-0.010555,-0.009543,0.004761
2384,0.058346,0.006231,-0.009662
2385,-0.033523,-0.025317,-0.024086
2386,-0.010555,-0.025317,-0.009662
2387,-0.010555,-0.009543,-0.009662
2388,-0.05649,-0.025317,0.004761
2389,0.012412,-0.009543,-0.009662
2390,0.035379,-0.025317,-0.009662
2391,-0.033523,-0.025317,-0.009662
2392,0.012412,-0.009543,0.004761
2393,0.012412,-0.009543,-0.009662
2394,0.012412,-0.025317,0.004761
2395,0.035379,-0.009543,0.004761
2396,0.035379,-0.041091,-0.009662
2397,0.058346,-0.009543,-0.009662
2398,-0.010555,0.006231,0.004761
2399,0.035379,0.006231,0.004761
2400,-0.010555,-0.025317,-0.009662
2401,-0.010555,-0.025317,-0.009662
2402,-0.010555,0.006231,-0.009662
2403,0.012412,-0.009543,0.004761
2404,0.035379,-0.009543,0.004761
2405,-0.010555,-0.025317,0.019185
2406,0.012412,0.006231,0.004761
2407,-0.05649,-0.009543,-0.009662
2408,-0.010555,-0.009543,0.019185
2409,0.012412,0.006231,0.019185
2410,0.012412,-0.009543,0.019185
2411,-0.033523,-0.009543,-0.009662
2412,-0.010555,-0.009543,0.004761
2413,0.012412,-0.025317,-0.009662
2414,-0.010555,-0.009543,-0.009662
2415,0.012412,-0.009543,0.004761
2416,0.035379,0.006231,0.019185
2417,0.012412,-0.025317,-0.024086
2418,-0.033523,-0.041091,0.004761
2419,-0.102424,-0.009543,-0.009662
2420,-0.010555,-0.009543,0.004761
2421,0.012412,-0.025317,0.004761
2422,-0.010555,0.006231,-0.009662
2423,0.012412,-0.009543,-0.009662
2424,0.012412,-0.025317,0.004761
2425,0.035379,-0.025317,0.004761
2426,0.012412,-0.009543,-0.009662
2427,-0.010555,-0.025317,-0.009662
2428,0.035379,-0.009543,-0.03851
2429,-0.010555,-0.025317,-0.024086
2430,-0.010555,-0.009543,-0.024086
2431,0.058346,-0.009543,-0.009662
2432,0.058346,-0.009543,-0.009662
2433,0.035379,-0.025317,0.004761
2434,-0.010555,-0.025317,-0.009662
2435,0.035379,-0.025317,-0.009662
2436,0.058346,-0.025317,-0.03851
2437,-0.033523,-0.041091,-0.03851
2438,-0.033523,-0.009543,-0.009662
2439,-0.010555,-0.009543,0.004761
2440,0.012412,-0.025317,-0.009662
2441,-0.033523,-0.009543,0.004761
2442,0.035379,0.022005,-0.009662
2443,-0.033523,-0.025317,0.004761
2444,-0.05649,-0.009543,-0.024086
2445,-0.033523,-0.009543,-0.009662
2446,-0.033523,-0.009543,0.019185
2447,-0.05649,-0.009543,0.004761
2448,0.012412,-0.009543,0.004761
2449,-0.010555,-0.009543,0.004761
2450,-0.05649,-0.009543,0.004761
2451,0.012412,-0.009543,-0.009662
2452,0.035379,0.006231,0.019185
2453,-0.033523,-0.009543,0.004761
2454,-0.010555,-0.009543,0.004761
2455,0.035379,-0.009543,-0.024086
2456,0.081313,0.006231,0.004761
2457,0.035379,-0.025317,-0.024086
2458,-0.05649,-0.009543,-0.009662
2459,0.035379,-0.025317,-0.009662
2460,0.035379,-0.009543,-0.009662
2461,-0.010555,-0.009543,0.004761
2462,0.012412,-0.025317,0.019185
2463,0.035379,-0.009543,-0.009662
2464,0.035379,-0.025317,0.004761
2465,0.058346,0.006231,-0.009662
2466,0.035379,-0.025317,0.004761
2467,-0.010555,-0.025317,-0.009662
2468,0.035379,-0.025317,-0.009662
2469,0.035379,-0.009543,-0.009662
2470,-0.010555,0.006231,0.004761
2471,-0.010555,-0.025317,0.019185
2472,-0.033523,-0.009543,-0.009662
2473,0.012412,-0.025317,-0.009662
2474,-0.05649,-0.009543,-0.009662
2475,0.035379,0.006231,-0.009662
2476,0.012412,-0.025317,-0.009662
2477,0.012412,0.006231,0.019185
2478,-0.010555,-0.025317,-0.009662
2479,-0.05649,-0.009543,0.004761
2480,0.012412,-0.009543,0.004761
2481,0.012412,0.006231,-0.009662
2482,0.012412,-0.009543,-0.009662
2483,-0.010555,-0.009543,-0.009662
2484,0.012412,-0.009543,0.004761
2485,0.012412,-0.009543,0.004761
2486,0.035379,-0.009543,-0.009662
2487,-0.033523,-0.025317,-0.03851
2488,-0.033523,-0.009543,-0.009662
2489,-0.102424,-0.041091,-0.03851
2490,-0.010555,-0.025317,-0.03851
2491,0.035379,-0.009543,-0.024086
2492,0.035379,-0.009543,0.019185
2493,0.012412,-0.009543,0.019185
2494,0.035379,0.006231,0.019185
2495,0.035379,-0.025317,0.019185
2496,-0.010555,-0.009543,-0.009662
2497,-0.033523,-0.041091,-0.024086
2498,-0.010555,-0.025317,-0.009662
2499,0.012412,-0.009543,-0.024086
2500,-0.033523,-0.009543,-0.009662
2501,-0.010555,-0.009543,0.004761
2502,0.012412,-0.009543,-0.009662
2503,0.035379,0.006231,-0.009662
2504,-0.010555,-0.009543,-0.009662
2505,-0.079457,-0.025317,-0.024086
2506,0.012412,-0.009543,-0.024086
2507,0.035379,0.006231,-0.009662
2508,0.012412,-0.009543,-0.024086
2509,-0.010555,-0.009543,0.004761
2510,-0.05649,0.022005,0.004761
2511,0.012412,-0.025317,0.019185
2512,-0.010555,-0.009543,0.004761
2513,-0.033523,-0.009543,-0.009662
2514,-0.010555,-0.009543,-0.009662
2515,0.012412,0.006231,-0.009662
2516,-0.033523,-0.009543,-0.009662
2517,-0.010555,-0.025317,0.004761
2518,-0.010555,-0.009543,0.004761
2519,0.035379,-0.009543,-0.009662
2520,-0.010555,0.006231,-0.009662
2521,0.035379,-0.009543,0.004761
2522,-0.010555,-0.009543,-0.009662
2523,-0.010555,-0.025317,-0.009662
2524,-0.033523,-0.009543,-0.009662
2525,-0.010555,-0.025317,0.004761
2526,0.012412,-0.009543,0.004761
2527,-0.010555,-0.025317,-0.009662
2528,-0.010555,0.006231,0.033609
2529,0.012412,-0.025317,0.004761
2530,0.081313,-0.041091,-0.009662
2531,0.058346,-0.009543,-0.009662
2532,-0.010555,-0.009543,-0.009662
2533,0.058346,-0.009543,-0.009662
2534,0.035379,-0.009543,0.004761
2535,0.012412,-0.009543,-0.024086
2536,-0.033523,-0.009543,0.004761
2537,0.035379,-0.025317,0.004761
2538,0.012412,-0.009543,-0.009662
2539,0.012412,-0.009543,-0.024086
2540,0.012412,0.006231,0.004761
2541,0.012412,-0.009543,0.004761
2542,0.012412,-0.041091,0.019185
2543,0.058346,-0.009543,0.004761
2544,-0.033523,-0.025317,-0.024086
2545,-0.010555,0.006231,0.004761
2546,-0.033523,-0.041091,0.004761
2547,-0.033523,-0.041091,-0.009662
2548,-0.010555,-0.025317,0.004761
2549,0.035379,-0.009543,0.019185
2550,0.035379,-0.025317,0.004761
2551,-0.033523,0.006231,0.004761
2552,-0.033523,-0.009543,0.004761
2553,-0.010555,-0.009543,-0.024086
2554,0.012412,-0.025317,-0.024086
2555,-0.033523,-0.025317,-0.009662
2556,0.012412,-0.025317,-0.024086
2557,-0.010555,-0.025317,-0.009662
2558,0.035379,-0.009543,-0.009662
2559,0.035379,-0.009543,0.004761
2560,0.035379,0.006231,-0.009662
2561,0.058346,0.006231,0.004761
2562,0.058346,-0.025317,-0.009662
2563,0.081313,-0.009543,-0.009662
2564,0.012412,-0.009543,-0.009662
2565,0.035379,-0.009543,-0.009662
2566,-0.010555,-0.025317,-0.009662
2567,0.012412,-0.025317,-0.024086
2568,-0.010555,-0.025317,-0.024086
2569,0.081313,-0.025317,-0.03851
2570,-0.010555,-0.009543,-0.009662
2571,-0.033523,-0.009543,-0.009662
2572,-0.033523,0.006231,-0.009662
2573,-0.010555,-0.009543,-0.009662
2574,-0.010555,-0.009543,0.004761
2575,-0.010555,-0.009543,-0.009662
2576,-0.033523,0.006231,0.019185
2577,0.012412,-0.009543,0.033609
2578,-0.033523,-0.009543,0.004761
2579,-0.010555,-0.025317,0.004761
2580,-0.010555,-0.025317,-0.009662
2581,-0.010555,-0.009543,0.004761
2582,-0.05649,-0.009543,0.004761
2583,-0.033523,-0.009543,-0.009662
2584,-0.010555,-0.025317,-0.024086
2585,0.012412,-0.009543,-0.009662
2586,0.012412,-0.025317,0.004761
2587,-0.033523,-0.009543,0.019185
2588,-0.05649,-0.025317,-0.009662
2589,-0.010555,-0.009543,-0.009662
2590,-0.05649,-0.025317,0.004761
2591,-0.033523,-0.009543,-0.009662
2592,0.012412,-0.025317,-0.024086
2593,-0.010555,-0.009543,-0.009662
2594,0.058346,-0.009543,0.004761
2595,0.012412,-0.009543,-0.009662
2596,-0.010555,-0.009543,0.019185
2597,0.012412,-0.009543,0.004761
2598,0.081313,-0.009543,-0.009662
2599,0.012412,-0.041091,0.004761
2600,-0.033523,-0.009543,0.004761
2601,-0.033523,-0.009543,-0.009662
2602,0.035379,-0.009543,-0.009662
2603,-0.033523,-0.009543,-0.009662
2604,0.035379,-0.009543,-0.009662
2605,-0.010555,0.006231,-0.024086
2606,0.012412,-0.009543,-0.009662
2607,0.012412,-0.009543,-0.009662
2608,0.035379,-0.009543,-0.009662
2609,0.012412,-0.025317,-0.024086
2610,0.012412,-0.025317,0.004761
2611,-0.05649,-0.009543,0.004761
2612,-0.010555,-0.009543,0.033609
2613,-0.010555,-0.025317,0.004761
2614,-0.05649,-0.041091,-0.009662
2615,0.012412,-0.009543,0.004761
2616,-0.033523,-0.009543,-0.024086
2617,0.012412,0.006231,0.004761
2618,-0.033523,-0.009543,0.019185
2619,0.012412,-0.025317,0.004761
2620,0.012412,-0.041091,-0.009662
2621,-0.05649,-0.009543,-0.009662
2622,-0.033523,0.006231,-0.009662
2623,-0.033523,-0.041091,-0.024086
2624,0.012412,-0.009543,-0.024086
2625,0.058346,0.006231,-0.009662
2626,0.012412,0.006231,-0.009662
2627,0.012412,-0.025317,0.004761
2628,-0.010555,-0.041091,-0.009662
2629,-0.010555,0.006231,0.004761
2630,-0.010555,-0.009543,-0.024086
2631,0.012412,-0.009543,-0.009662
2632,-0.010555,-0.009543,-0.009662
2633,0.012412,-0.025317,-0.009662
2634,0.012412,-0.009543,0.004761
2635,0.058346,-0.009543,-0.009662
2636,-0.010555,-0.009543,-0.009662
2637,0.081313,-0.009543,-0.009662
2638,-0.010555,0.006231,0.004761
2639,0.012412,-0.009543,0.004761
2640,-0.010555,-0.009543,0.004761
2641,-0.010555,-0.025317,-0.009662
2642,-0.079457,-0.025317,0.004761
2643,0.012412,-0.009543,0.004761
2644,0.012412,-0.009543,0.004761
2645,-0.033523,-0.025317,0.048033
2646,-0.033523,-0.009543,0.019185
2647,-0.033523,0.006231,0.004761
2648,-0.010555,0.006231,0.004761
2649,-0.05649,-0.025317,-0.009662
2650,-0.05649,-0.009543,-0.009662
2651,0.035379,-0.009543,-0.024086
2652,-0.033523,-0.025317,0.004761
2653,-0.033523,-0.009543,-0.009662
2654,0.012412,-0.009543,0.004761
2655,0.035379,-0.009543,0.019185
2656,0.035379,-0.025317,0.004761
2657,-0.033523,-0.025317,-0.024086
2658,-0.010555,-0.025317,0.004761
2659,0.035379,0.006231,-0.009662
2660,0.058346,-0.009543,-0.009662
2661,-0.033523,-0.009543,-0.024086
2662,-0.010555,-0.009543,-0.009662
2663,-0.010555,0.006231,-0.009662
2664,0.035379,-0.025317,-0.024086
2665,-0.010555,-0.009543,-0.009662
2666,0.035379,-0.009543,-0.009662
2667,0.035379,-0.009543,-0.009662
2668,-0.033523,0.006231,-0.009662
2669,-0.010555,-0.009543,-0.009662
2670,0.035379,-0.009543,-0.024086
2671,0.035379,-0.009543,-0.009662
2672,0.035379,-0.009543,-0.009662
2673,-0.010555,-0.009543,-0.009662
2674,-0.033523,-0.025317,0.004761
2675,0.035379,-0.009543,-0.009662
2676,-0.010555,-0.025317,0.004761
2677,-0.033523,-0.041091,-0.009662
2678,-0.033523,-0.025317,0.019185
2679,0.012412,-0.009543,0.048033
2680,-0.010555,-0.025317,0.004761
2681,-0.05649,-0.025317,0.004761
2682,-0.033523,-0.009543,-0.009662
2683,0.012412,0.022005,-0.024086
2684,-0.010555,0.006231,0.004761
2685,-0.033523,-0.009543,-0.009662
2686,-0.033523,-0.025317,0.004761
2687,0.012412,-0.025317,-0.024086
2688,-0.05649,-0.025317,0.004761
2689,-0.010555,-0.009543,0.004761
2690,0.012412,-0.009543,0.004761
2691,0.012412,0.006231,0.004761
2692,0.035379,-0.009543,0.019185
2693,-0.033523,-0.009543,0.004761
2694,0.012412,0.006231,0.019185
2695,0.035379,0.006231,0.019185
2696,-0.010555,-0.009543,-0.009662
2697,-0.010555,-0.025317,0.004761
2698,-0.033523,-0.009543,-0.009662
2699,0.012412,-0.009543,-0.009662
2700,0.012412,0.006231,-0.009662
2701,0.012412,-0.041091,-0.024086
2702,0.035379,-0.041091,-0.024086
2703,-0.010555,-0.041091,0.004761
2704,-0.033523,-0.025317,0.004761
2705,-0.033523,-0.025317,0.004761
2706,-0.05649,-0.025317,-0.024086
2707,-0.033523,-0.041091,0.004761
2708,-0.033523,-0.025317,-0.009662
2709,-0.033523,-0.041091,-0.024086
2710,0.012412,-0.009543,-0.009662
2711,-0.010555,-0.009543,0.004761
2712,0.012412,-0.025317,-0.009662
2713,0.012412,-0.009543,-0.024086
2714,-0.033523,-0.025317,0.004761
2715,-0.010555,-0.009543,0.004761
2716,-0.05649,-0.009543,-0.009662
2717,-0.05649,-0.041091,-0.009662
2718,0.035379,0.006231,0.004761
2719,-0.079457,-0.009543,0.019185
2720,-0.010555,-0.009543,0.004761
2721,0.012412,-0.025317,-0.009662
2722,-0.010555,-0.025317,0.019185
2723,-0.010555,0.006231,-0.009662
2724,0.035379,-0.025317,-0.009662
2725,-0.010555,-0.009543,-0.009662
2726,0.035379,0.006231,0.004761
2727,0.035379,-0.025317,0.004761
2728,0.012412,-0.009543,0.019185
2729,-0.033523,-0.009543,-0.009662
2730,0.058346,-0.009543,-0.009662
2731,-0.010555,-0.009543,0.004761
2732,-0.010555,-0.009543,-0.009662
2733,0.035379,0.006231,-0.009662
2734,0.035379,-0.025317,-0.009662
2735,0.012412,-0.009543,-0.024086
2736,-0.010555,-0.009543,-0.009662
2737,0.035379,-0.009543,-0.009662
2738,-0.010555,-0.009543,-0.024086
2739,-0.033523,-0.009543,-0.009662
2740,-0.05649,-0.009543,-0.024086
2741,0.012412,-0.025317,-0.009662
2742,-0.010555,-0.009543,0.019185
2743,-0.010555,-0.009543,0.033609
2744,-0.010555,-0.009543,0.004761
2745,0.012412,0.006231,0.004761
2746,-0.010555,-0.009543,0.019185
2747,-0.033523,-0.009543,0.004761
2748,-0.010555,-0.025317,0.004761
2749,-0.010555,-0.025317,-0.009662
2750,-0.05649,-0.009543,-0.009662
2751,-0.033523,-0.009543,0.004761
2752,0.012412,-0.025317,0.004761
2753,0.035379,-0.025317,-0.024086
2754,-0.010555,-0.025317,-0.024086
2755,0.035379,-0.009543,-0.009662
2756,0.035379,-0.009543,0.004761
2757,-0.033523,-0.025317,0.004761
2758,-0.010555,-0.009543,-0.009662
2759,0.012412,0.006231,-0.009662
2760,0.012412,0.006231,-0.009662
2761,0.035379,-0.009543,0.004761
2762,0.035379,-0.009543,0.004761
2763,0.058346,-0.025317,-0.009662
2764,-0.033523,-0.009543,0.004761
2765,-0.033523,-0.009543,-0.024086
2766,-0.033523,-0.025317,-0.009662
2767,-0.010555,-0.041091,-0.024086
2768,0.012412,-0.025317,0.004761
2769,0.012412,-0.009543,-0.009662
2770,-0.010555,-0.009543,0.004761
2771,-0.05649,-0.025317,0.019185
2772,0.035379,-0.009543,0.004761
2773,-0.033523,-0.025317,-0.009662
2774,-0.010555,-0.009543,-0.009662
2775,-0.033523,-0.009543,0.004761
2776,-0.079457,-0.025317,0.004761
2777,-0.079457,-0.041091,0.004761
2778,-0.033523,-0.009543,-0.009662
2779,-0.05649,-0.025317,-0.009662
2780,0.012412,-0.025317,-0.009662
2781,0.035379,-0.025317,-0.009662
2782,0.012412,-0.009543,-0.024086
2783,0.012412,-0.041091,-0.024086
2784,-0.010555,-0.009543,-0.009662
2785,-0.05649,-0.025317,-0.009662
2786,-0.05649,-0.025317,-0.009662
2787,-0.010555,-0.009543,0.004761
2788,0.035379,-0.025317,0.004761
2789,0.012412,-0.009543,0.004761
2790,-0.010555,-0.025317,-0.009662
2791,0.035379,-0.009543,0.004761
2792,0.035379,-0.025317,-0.009662
2793,0.012412,-0.009543,-0.009662
2794,0.035379,0.006231,-0.009662
2795,0.035379,-0.009543,-0.009662
2796,0.035379,-0.009543,-0.009662
2797,0.012412,-0.009543,-0.009662
2798,0.012412,-0.009543,0.019185
2799,0.035379,0.006231,-0.009662
2800,0.035379,0.006231,-0.009662
2801,-0.033523,-0.009543,-0.009662
2802,-0.010555,-0.009543,-0.009662
2803,-0.010555,-0.009543,-0.009662
2804,0.012412,-0.009543,0.004761
2805,-0.033523,-0.009543,-0.009662
2806,-0.010555,-0.025317,0.019185
2807,-0.033523,-0.009543,0.004761
2808,0.012412,-0.025317,0.004761
2809,-0.010555,-0.009543,-0.009662
2810,-0.033523,-0.009543,0.004761
2811,0.012412,-0.025317,-0.009662
2812,-0.05649,-0.009543,-0.009662
2813,-0.033523,-0.009543,-0.009662
2814,-0.010555,-0.041091,0.004761
2815,0.035379,-0.025317,0.004761
2816,-0.010555,0.006231,0.004761
2817,0.012412,-0.009543,0.019185
2818,0.012412,-0.009543,0.004761
2819,0.035379,0.006231,-0.009662
2820,-0.033523,-0.025317,-0.009662
2821,0.012412,-0.009543,-0.024086
2822,-0.010555,-0.009543,-0.024086
2823,0.012412,-0.009543,-0.009662
2824,0.035379,-0.009543,0.004761
2825,-0.010555,-0.009543,0.004761
2826,0.035379,-0.025317,0.004761
2827,0.012412,-0.009543,0.004761
2828,-0.033523,0.006231,0.004761
2829,-0.033523,-0.009543,-0.009662
2830,-0.033523,-0.025317,-0.024086
2831,0.035379,-0.009543,-0.009662
2832,-0.010555,-0.025317,-0.009662
2833,-0.033523,-0.009543,-0.009662
2834,0.012412,-0.025317,-0.009662
2835,-0.033523,-0.025317,0.019185
2836,-0.05649,-0.009543,0.004761
2837,-0.05649,-0.009543,0.004761
2838,-0.010555,0.006231,0.004761
2839,-0.033523,-0.009543,-0.024086
2840,-0.033523,-0.009543,-0.024086
2841,-0.010555,-0.009543,-0.024086
2842,0.035379,-0.009543,-0.024086
2843,0.012412,-0.025317,-0.009662
2844,0.012412,-0.025317,0.004761
2845,-0.010555,-0.025317,0.004761
2846,-0.010555,-0.009543,0.004761
2847,-0.010555,-0.009543,-0.009662
2848,-0.010555,-0.009543,0.004761
2849,0.012412,-0.009543,0.004761
2850,0.058346,-0.009543,-0.009662
2851,0.012412,-0.025317,0.004761
2852,0.012412,-0.009543,-0.024086
2853,-0.010555,-0.025317,-0.009662
2854,0.012412,-0.009543,-0.009662
2855,0.012412,-0.025317,-0.009662
2856,0.035379,-0.025317,0.004761
2857,-0.033523,-0.025317,0.004761
2858,-0.033523,-0.025317,-0.009662
2859,-0.010555,0.006231,-0.024086
2860,-0.010555,-0.025317,-0.024086
2861,0.012412,-0.009543,0.004761
2862,-0.033523,-0.009543,0.004761
2863,-0.102424,0.006231,-0.024086
2864,-0.033523,-0.025317,-0.009662
2865,-0.010555,-0.009543,-0.009662
2866,-0.033523,-0.009543,-0.009662
2867,0.012412,-0.009543,-0.009662
2868,0.035379,-0.009543,0.004761
2869,-0.010555,0.006231,0.019185
2870,-0.033523,-0.025317,-0.009662
2871,-0.010555,0.006231,-0.024086
2872,0.012412,0.006231,-0.009662
2873,0.058346,-0.009543,-0.009662
2874,-0.033523,-0.009543,-0.009662
2875,0.012412,-0.025317,-0.009662
2876,0.058346,-0.025317,0.004761
2877,0.035379,-0.025317,-0.009662
2878,0.058346,-0.009543,-0.009662
2879,0.012412,-0.025317,-0.024086
2880,0.058346,-0.009543,-0.009662
2881,-0.010555,-0.009543,-0.009662
2882,0.012412,0.006231,0.004761
2883,0.012412,-0.009543,-0.009662
2884,0.012412,0.006231,0.004761
2885,-0.010555,0.006231,0.004761
2886,-0.05649,0.006231,-0.024086
2887,0.012412,-0.009543,-0.009662
2888,0.012412,-0.009543,-0.009662
2889,0.012412,-0.025317,-0.009662
2890,-0.010555,-0.041091,-0.024086
2891,0.012412,-0.025317,-0.009662
2892,-0.033523,-0.009543,-0.009662
2893,-0.010555,0.006231,0.019185
2894,-0.033523,-0.025317,0.004761
2895,-0.033523,-0.009543,0.019185
2896,-0.102424,-0.041091,-0.024086
2897,-0.079457,-0.025317,-0.024086
2898,-0.010555,-0.009543,-0.009662
2899,0.035379,-0.009543,0.019185
2900,-0.05649,0.006231,0.004761
2901,0.035379,-0.009543,0.004761
2902,0.035379,-0.009543,-0.009662
2903,0.012412,-0.009543,0.004761
2904,-0.033523,0.006231,-0.009662
2905,-0.010555,-0.025317,-0.009662
2906,0.012412,-0.025317,-0.052934
2907,0.035379,-0.009543,-0.009662
2908,0.012412,-0.009543,0.004761
2909,0.035379,-0.009543,0.004761
2910,0.058346,-0.009543,-0.009662
2911,0.081313,-0.025317,0.004761
2912,0.012412,-0.009543,0.019185
2913,-0.05649,-0.009543,0.004761
2914,0.012412,-0.009543,0.004761
2915,0.035379,-0.009543,0.004761
2916,-0.033523,-0.041091,-0.009662
2917,-0.079457,-0.009543,-0.024086
2918,-0.010555,-0.009543,-0.009662
2919,0.012412,-0.025317,-0.009662
2920,0.012412,0.006231,0.004761
2921,-0.033523,-0.025317,-0.009662
2922,-0.010555,-0.009543,-0.009662
2923,-0.033523,-0.009543,0.004761
2924,-0.033523,-0.041091,0.004761
2925,-0.010555,-0.025317,0.004761
2926,0.035379,-0.009543,0.004761
2927,-0.010555,-0.009543,-0.009662
2928,0.012412,-0.025317,-0.009662
2929,0.012412,-0.025317,0.019185
2930,0.058346,-0.009543,-0.009662
2931,-0.010555,-0.025317,-0.024086
2932,-0.033523,-0.025317,0.004761
2933,-0.010555,-0.025317,-0.024086
2934,0.081313,-0.025317,-0.009662
2935,0.012412,0.006231,0.019185
2936,0.012412,-0.025317,-0.009662
2937,0.012412,-0.025317,-0.009662
2938,0.035379,-0.025317,-0.03851
2939,-0.010555,-0.009543,-0.009662
2940,0.012412,-0.009543,0.019185
2941,0.012412,-0.025317,0.019185
2942,-0.010555,-0.009543,-0.009662
2943,-0.010555,-0.041091,0.004761
2944,-0.033523,-0.009543,0.004761
2945,0.012412,-0.009543,0.019185
2946,-0.010555,-0.009543,0.019185
2947,0.012412,0.006231,0.019185
2948,-0.010555,-0.025317,-0.009662
2949,-0.010555,-0.025317,0.004761
2950,-0.05649,-0.009543,0.004761
2951,-0.033523,-0.025317,-0.009662
2952,-0.05649,-0.009543,-0.024086
2953,-0.033523,-0.025317,-0.024086
2954,-0.05649,-0.025317,-0.024086
2955,-0.010555,-0.009543,0.019185
2956,-0.010555,0.006231,0.019185
2957,0.012412,-0.009543,0.019185
2958,-0.079457,-0.025317,-0.009662
2959,-0.033523,-0.009543,-0.024086
2960,0.035379,-0.025317,-0.009662
2961,0.012412,-0.009543,-0.024086
2962,-0.033523,-0.025317,-0.009662
2963,-0.010555,-0.041091,-0.009662
2964,0.058346,-0.009543,-0.009662
2965,0.058346,-0.025317,0.004761
2966,0.035379,-0.025317,0.004761
2967,-0.033523,-0.009543,0.004761
2968,0.058346,0.006231,-0.009662
2969,-0.033523,-0.009543,0.004761
2970,0.012412,-0.009543,-0.009662
2971,0.012412,-0.041091,-0.024086
2972,0.012412,0.006231,0.004761
2973,-0.010555,-0.009543,-0.009662
2974,-0.033523,0.006231,-0.024086
2975,-0.010555,-0.009543,0.004761
2976,0.035379,-0.009543,-0.024086
2977,-0.05649,-0.009543,0.004761
2978,-0.05649,-0.025317,-0.009662
2979,-0.033523,-0.025317,-0.009662
2980,-0.010555,-0.025317,0.004761
2981,0.012412,-0.009543,0.004761
2982,-0.010555,-0.009543,-0.009662
2983,0.012412,-0.025317,0.019185
2984,-0.010555,-0.009543,-0.009662
2985,-0.010555,-0.041091,-0.009662
2986,-0.033523,-0.025317,-0.024086
2987,0.012412,-0.009543,-0.024086
2988,0.035379,-0.009543,-0.009662
2989,-0.05649,-0.009543,0.048033
2990,-0.033523,-0.025317,-0.009662
2991,0.012412,-0.009543,-0.009662
2992,0.058346,-0.009543,0.004761
2993,-0.010555,-0.009543,0.004761
2994,-0.010555,-0.025317,-0.009662
2995,0.012412,-0.009543,-0.024086
2996,0.058346,0.006231,0.019185
2997,-0.033523,-0.009543,-0.024086
2998,0.058346,-0.009543,0.004761
2999,0.058346,-0.009543,-0.009662
3000,0.035379,-0.025317,0.004761
3001,0.012412,-0.025317,-0.009662
3002,0.058346,-0.025317,0.004761
3003,0.012412,-0.025317,-0.009662
3004,-0.033523,-0.009543,0.004761
3005,-0.010555,0.006231,-0.024086
3006,-0.033523,-0.025317,0.004761
3007,0.081313,0.006231,-0.024086
3008,0.012412,-0.009543,0.004761
3009,-0.033523,-0.009543,-0.009662
3010,-0.033523,-0.009543,-0.009662
3011,-0.033523,-0.009543,0.004761
3012,-0.010555,-0.009543,0.019185
3013,-0.033523,-0.009543,-0.009662
3014,-0.010555,-0.009543,0.004761
3015,0.012412,-0.025317,0.019185
3016,-0.033523,-0.025317,-0.009662
3017,0.035379,-0.009543,-0.009662
3018,0.035379,0.006231,-0.009662
3019,0.035379,-0.009543,-0.009662
3020,0.012412,-0.025317,-0.009662
3021,0.058346,0.022005,-0.009662
3022,0.012412,-0.009543,-0.009662
3023,0.035379,-0.025317,-0.009662
3024,0.058346,-0.041091,0.004761
3025,0.035379,-0.025317,-0.009662
3026,0.035379,-0.025317,0.004761
3027,-0.010555,0.006231,-0.024086
3028,-0.05649,-0.009543,-0.024086
3029,0.035379,0.006231,-0.009662
3030,0.035379,-0.009543,0.004761
3031,-0.033523,-0.009543,-0.009662
3032,-0.05649,-0.009543,0.019185
3033,0.081313,0.006231,0.004761
3034,0.035379,-0.009543,0.004761
3035,-0.010555,-0.009543,-0.009662
3036,-0.010555,-0.025317,0.019185
3037,-0.033523,-0.009543,-0.009662
3038,-0.010555,-0.025317,-0.024086
3039,-0.033523,-0.009543,-0.024086
3040,-0.010555,-0.025317,0.004761
3041,-0.033523,-0.041091,-0.024086
3042,0.012412,-0.009543,0.004761
3043,-0.010555,-0.009543,-0.009662
3044,-0.033523,-0.009543,0.019185
3045,-0.033523,-0.009543,0.019185
3046,0.035379,-0.009543,0.004761
3047,0.035379,-0.025317,0.004761
3048,-0.05649,-0.025317,0.019185
3049,0.035379,0.006231,0.004761
3050,0.058346,-0.025317,-0.024086
3051,0.012412,-0.025317,0.019185
3052,-0.010555,0.006231,0.004761
3053,0.012412,-0.009543,-0.009662
3054,0.012412,0.006231,-0.024086
3055,-0.010555,-0.025317,-0.009662
3056,0.035379,0.006231,-0.009662
3057,0.058346,-0.025317,-0.009662
3058,-0.05649,-0.025317,-0.009662
3059,-0.033523,-0.025317,-0.009662
3060,-0.010555,-0.025317,-0.009662
3061,0.012412,-0.009543,-0.009662
3062,-0.033523,-0.025317,-0.009662
3063,-0.033523,-0.009543,-0.024086
3064,0.058346,-0.009543,-0.009662
3065,-0.010555,-0.009543,-0.009662
3066,0.035379,-0.025317,-0.009662
3067,-0.033523,-0.025317,-0.024086
3068,0.012412,-0.025317,0.004761
3069,-0.05649,-0.025317,0.004761
3070,-0.05649,-0.025317,0.004761
3071,-0.05649,-0.025317,-0.009662
3072,0.012412,-0.009543,-0.009662
3073,-0.010555,-0.009543,-0.009662
3074,-0.05649,-0.025317,0.004761
3075,-0.033523,-0.025317,-0.024086
3076,-0.010555,-0.025317,-0.009662
3077,0.012412,0.006231,-0.009662
3078,-0.033523,-0.009543,0.004761
3079,0.035379,-0.009543,0.019185
3080,-0.010555,0.006231,0.004761
3081,0.035379,-0.009543,0.004761
3082,-0.033523,-0.009543,0.004761
3083,-0.010555,-0.025317,0.004761
3084,0.058346,-0.009543,0.004761
3085,0.012412,-0.025317,-0.009662
3086,-0.033523,-0.025317,-0.009662
3087,-0.010555,0.006231,-0.024086
3088,-0.010555,-0.009543,0.004761
3089,-0.010555,-0.009543,0.004761
3090,0.058346,0.006231,0.004761
3091,0.081313,-0.041091,0.019185
3092,-0.05649,-0.025317,0.004761
3093,-0.010555,-0.009543,-0.009662
3094,-0.033523,-0.009543,-0.009662
3095,0.058346,-0.009543,0.004761
3096,-0.010555,0.006231,0.004761
3097,-0.033523,-0.025317,0.004761
3098,-0.010555,0.006231,0.004761
3099,-0.05649,-0.009543,-0.024086
3100,-0.033523,-0.009543,0.004761
3101,0.012412,-0.009543,-0.024086
3102,-0.033523,-0.009543,0.004761
3103,-0.010555,-0.009543,-0.009662
3104,0.058346,-0.041091,-0.009662
3105,-0.010555,0.006231,-0.009662
3106,-0.033523,-0.009543,0.004761
3107,-0.033523,0.006231,0.004761
3108,0.012412,-0.025317,0.004761
3109,-0.05649,-0.009543,-0.009662
3110,-0.010555,-0.025317,-0.009662
3111,0.035379,-0.009543,-0.009662
3112,0.035379,-0.009543,-0.024086
3113,-0.033523,-0.025317,-0.009662
3114,-0.05649,-0.009543,-0.009662
3115,0.012412,-0.009543,-0.024086
3116,0.012412,-0.009543,0.004761
3117,-0.033523,-0.025317,-0.009662
3118,0.012412,-0.025317,-0.009662
3119,0.012412,-0.009543,-0.009662
3120,-0.010555,-0.009543,-0.024086
3121,0.012412,0.006231,-0.009662
3122,0.012412,-0.009543,-0.009662
3123,0.035379,-0.009543,-0.009662
3124,0.012412,-0.009543,-0.009662
3125,0.012412,-0.009543,0.004761
3126,0.035379,-0.025317,0.004761
3127,0.035379,0.006231,0.004761
3128,0.035379,-0.009543,-0.009662
3129,0.012412,0.006231,0.004761
3130,-0.010555,0.006231,0.004761
3131,0.035379,-0.009543,0.004761
3132,-0.010555,-0.025317,-0.009662
3133,-0.033523,-0.041091,-0.024086
3134,-0.010555,-0.041091,-0.03851
3135,-0.05649,-0.041091,-0.009662
3136,-0.033523,-0.009543,-0.009662
3137,-0.033523,0.006231,0.004761
3138,0.035379,-0.025317,0.033609
3139,-0.010555,-0.009543,0.004761
3140,-0.033523,-0.009543,-0.009662
3141,0.035379,-0.025317,-0.009662
3142,0.035379,-0.009543,-0.009662
3143,0.035379,-0.025317,-0.009662
3144,-0.05649,-0.009543,-0.024086
3145,-0.033523,-0.041091,-0.009662
3146,0.012412,-0.009543,0.004761
3147,0.012412,-0.025317,0.004761
3148,-0.033523,-0.025317,0.004761
3149,0.035379,-0.025317,-0.024086
3150,0.081313,-0.009543,-0.024086
3151,-0.05649,-0.009543,-0.024086
3152,0.012412,0.006231,0.004761
3153,0.058346,-0.041091,0.004761
3154,0.058346,-0.009543,0.004761
3155,-0.033523,-0.009543,0.004761
3156,-0.033523,-0.025317,-0.024086
3157,0.012412,-0.025317,-0.024086
3158,0.012412,-0.025317,-0.024086
3159,-0.010555,-0.009543,-0.009662
3160,-0.05649,-0.009543,0.004761
3161,-0.033523,-0.025317,-0.009662
3162,0.012412,-0.009543,0.004761
3163,-0.033523,-0.025317,0.004761
3164,-0.05649,-0.009543,0.004761
3165,-0.010555,0.006231,0.019185
3166,0.058346,-0.009543,0.004761
3167,-0.010555,0.006231,0.004761
3168,-0.033523,0.006231,-0.009662
3169,0.012412,-0.009543,-0.009662
3170,0.035379,-0.025317,0.004761
3171,-0.010555,-0.041091,-0.009662
3172,0.035379,-0.025317,0.004761
3173,0.012412,-0.025317,0.019185
3174,0.058346,-0.025317,-0.009662
3175,-0.010555,-0.009543,0.004761
3176,0.058346,-0.025317,-0.009662
3177,0.012412,0.006231,0.004761
3178,-0.010555,-0.009543,0.019185
3179,-0.010555,-0.009543,0.004761
3180,0.035379,-0.009543,0.004761
3181,0.035379,-0.009543,0.004761
3182,0.035379,0.006231,0.004761
3183,-0.033523,-0.025317,-0.009662
3184,0.035379,-0.009543,0.004761
3185,0.012412,0.006231,-0.009662
3186,0.035379,-0.009543,-0.009662
3187,0.012412,-0.025317,-0.024086
3188,0.035379,-0.009543,0.004761
3189,-0.033523,-0.009543,-0.009662
3190,-0.033523,0.006231,-0.009662
3191,-0.05649,-0.025317,0.004761
3192,0.012412,-0.025317,-0.009662
3193,-0.010555,-0.025317,-0.009662
3194,-0.033523,-0.025317,0.004761
3195,-0.033523,-0.009543,0.004761
3196,-0.033523,0.006231,-0.009662
3197,-0.010555,-0.025317,0.004761
3198,-0.010555,-0.025317,0.004761
3199,-0.05649,-0.009543,-0.009662
3200,-0.010555,-0.009543,-0.009662
3201,0.012412,-0.025317,-0.009662
3202,-0.033523,-0.009543,-0.009662
3203,0.035379,-0.025317,-0.009662
3204,0.012412,-0.025317,-0.024086
3205,0.058346,-0.009543,0.004761
3206,-0.010555,-0.009543,-0.009662
3207,-0.033523,0.006231,0.004761
3208,0.035379,-0.009543,-0.009662
3209,0.058346,-0.025317,0.004761
3210,-0.05649,-0.025317,-0.009662
3211,0.081313,0.006231,0.033609
3212,0.081313,0.006231,-0.009662
3213,0.035379,0.006231,-0.009662
3214,0.012412,-0.025317,-0.024086
3215,-0.033523,-0.041091,-0.009662
3216,0.012412,-0.009543,-0.009662
3217,-0.010555,0.006231,0.004761
3218,0.012412,0.022005,-0.009662
3219,0.012412,0.006231,-0.009662
3220,0.012412,0.006231,-0.009662
3221,-0.05649,-0.009543,-0.009662
3222,-0.079457,0.006231,0.004761
3223,-0.05649,-0.025317,0.004761
3224,-0.010555,-0.025317,-0.009662
3225,-0.033523,0.006231,-0.009662
3226,-0.033523,-0.009543,-0.009662
3227,0.035379,-0.025317,-0.009662
3228,-0.010555,-0.009543,-0.009662
3229,-0.010555,-0.009543,-0.009662
3230,-0.010555,0.006231,0.004761
3231,-0.033523,-0.009543,0.019185
3232,0.012412,0.006231,0.004761
3233,-0.010555,-0.009543,-0.009662
3234,-0.010555,-0.009543,-0.009662
3235,0.035379,0.006231,-0.024086
3236,0.012412,-0.041091,-0.009662
3237,-0.010555,-0.009543,-0.009662
3238,0.035379,-0.009543,-0.009662
3239,0.058346,-0.009543,-0.009662
3240,0.058346,-0.025317,-0.009662
3241,0.012412,-0.009543,-0.009662
3242,0.035379,-0.025317,-0.03851
3243,0.035379,-0.025317,-0.009662
3244,0.012412,-0.009543,-0.009662
3245,-0.010555,-0.025317,-0.009662
3246,0.012412,-0.009543,-0.009662
3247,0.035379,-0.025317,0.004761
3248,0.012412,0.006231,0.004761
3249,-0.010555,-0.009543,0.004761
3250,0.058346,-0.009543,-0.009662
3251,0.035379,0.006231,-0.009662
3252,-0.05649,-0.025317,-0.009662
3253,-0.033523,-0.009543,0.004761
3254,-0.010555,-0.025317,0.004761
3255,0.012412,-0.041091,-0.009662
3256,-0.05649,-0.009543,0.004761
3257,-0.079457,-0.025317,-0.009662
3258,-0.010555,-0.025317,-0.009662
3259,-0.010555,-0.025317,0.004761
3260,0.012412,0.006231,0.019185
3261,-0.010555,0.006231,0.019185
3262,-0.033523,-0.025317,0.019185
3263,0.058346,-0.025317,0.004761
3264,0.012412,-0.009543,0.004761
3265,-0.033523,-0.009543,-0.009662
3266,-0.010555,-0.009543,0.004761
3267,0.012412,-0.009543,0.004761
3268,-0.033523,-0.025317,0.019185
3269,0.012412,-0.025317,-0.009662
3270,-0.010555,-0.009543,-0.009662
3271,0.035379,-0.025317,-0.009662
3272,0.035379,-0.025317,0.004761
3273,-0.033523,-0.009543,0.004761
3274,0.012412,-0.009543,-0.009662
3275,0.058346,-0.009543,-0.009662
3276,-0.010555,-0.009543,-0.024086
3277,0.058346,-0.009543,-0.009662
3278,0.058346,-0.009543,-0.009662
3279,0.035379,-0.009543,-0.009662
3280,-0.010555,0.006231,-0.009662
3281,0.012412,-0.009543,-0.009662
3282,0.012412,-0.009543,0.004761
3283,-0.010555,-0.025317,-0.009662
3284,0.012412,-0.025317,-0.009662
3285,-0.033523,0.006231,0.004761
3286,0.058346,-0.025317,-0.024086
3287,-0.010555,-0.009543,-0.009662
3288,-0.033523,0.006231,0.004761
3289,-0.010555,-0.009543,-0.009662
3290,0.035379,0.006231,0.004761
3291,-0.033523,-0.009543,-0.009662
3292,-0.033523,-0.009543,-0.009662
3293,0.012412,0.006231,0.004761
3294,-0.033523,-0.009543,0.019185
3295,0.058346,-0.025317,-0.024086
3296,0.012412,-0.025317,-0.03851
3297,-0.010555,-0.025317,-0.009662
3298,-0.033523,-0.041091,0.004761
3299,-0.010555,-0.025317,-0.009662
3300,0.012412,-0.025317,-0.009662
3301,0.058346,-0.009543,-0.009662
3302,0.012412,-0.009543,0.004761
3303,-0.05649,-0.025317,-0.009662
3304,-0.033523,0.006231,-0.009662
3305,-0.033523,-0.009543,-0.009662
3306,0.058346,-0.025317,-0.024086
3307,0.012412,-0.025317,0.004761
3308,-0.010555,-0.009543,0.019185
3309,-0.010555,0.006231,0.004761
3310,0.012412,-0.009543,0.004761
3311,0.035379,-0.025317,0.004761
3312,0.012412,-0.009543,-0.024086
3313,0.012412,0.006231,-0.009662
3314,-0.010555,-0.025317,-0.009662
3315,0.012412,-0.025317,-0.009662
3316,-0.010555,-0.009543,-0.009662
3317,0.035379,0.006231,0.004761
3318,0.012412,-0.009543,0.004761
3319,-0.033523,0.006231,0.004761
3320,-0.05649,0.006231,0.004761
3321,0.012412,-0.009543,-0.009662
3322,0.035379,-0.009543,0.004761
3323,-0.010555,-0.025317,-0.009662
3324,-0.010555,-0.025317,-0.009662
3325,-0.010555,-0.009543,-0.009662
3326,-0.010555,-0.025317,0.004761
3327,0.012412,-0.025317,-0.024086
3328,0.035379,0.006231,0.004761
3329,0.058346,-0.009543,-0.024086
3330,-0.033523,-0.009543,-0.009662
3331,0.012412,-0.009543,0.004761
3332,-0.010555,-0.009543,-0.009662
3333,0.058346,-0.025317,-0.024086
3334,-0.033523,-0.009543,-0.009662
3335,-0.079457,-0.009543,0.004761
3336,-0.010555,-0.009543,-0.009662
3337,-0.010555,-0.041091,-0.009662
3338,0.012412,-0.009543,-0.009662
3339,-0.033523,-0.025317,-0.009662
3340,0.035379,-0.009543,-0.009662
3341,-0.010555,-0.009543,0.004761
3342,-0.033523,-0.025317,-0.009662
3343,0.012412,0.006231,-0.009662
3344,0.035379,-0.025317,-0.009662
3345,-0.010555,-0.009543,0.004761
3346,-0.010555,-0.041091,-0.009662
3347,-0.010555,-0.009543,-0.009662
3348,0.035379,-0.025317,-0.009662
3349,0.035379,-0.009543,0.004761
3350,0.012412,-0.009543,0.004761
3351,-0.010555,-0.025317,0.004761
3352,-0.010555,-0.009543,-0.009662
3353,0.058346,-0.009543,0.004761
3354,0.012412,-0.009543,-0.009662
3355,-0.033523,-0.009543,0.004761
3356,-0.010555,-0.025317,0.004761
3357,0.012412,-0.009543,-0.009662
3358,-0.010555,-0.025317,-0.009662
3359,0.012412,-0.009543,0.004761
3360,0.058346,-0.009543,-0.009662
3361,-0.05649,-0.009543,0.048033
3362,0.012412,-0.009543,-0.009662
3363,-0.033523,-0.025317,0.004761
3364,-0.010555,-0.009543,-0.009662
3365,-0.033523,0.006231,0.004761
3366,0.035379,-0.025317,-0.009662
3367,0.012412,-0.009543,-0.009662
3368,0.012412,-0.025317,-0.024086
3369,0.012412,-0.009543,-0.024086
3370,-0.010555,-0.009543,-0.009662
3371,0.035379,0.006231,0.004761
3372,0.058346,-0.025317,-0.009662
3373,0.012412,-0.025317,0.004761
3374,0.012412,-0.009543,0.004761
3375,0.035379,-0.009543,0.004761
3376,0.081313,0.006231,0.019185
3377,0.035379,-0.009543,0.004761
3378,-0.033523,0.006231,0.004761
3379,0.012412,-0.025317,-0.009662
3380,-0.010555,-0.009543,-0.009662
3381,-0.010555,-0.025317,-0.024086
3382,-0.033523,-0.009543,0.004761
3383,0.035379,-0.009543,0.004761
3384,0.012412,-0.009543,-0.009662
3385,-0.010555,-0.025317,-0.009662
3386,-0.010555,-0.009543,0.004761
3387,0.012412,-0.025317,-0.009662
3388,-0.05649,-0.025317,-0.009662
3389,-0.033523,-0.025317,-0.009662
3390,-0.010555,-0.009543,0.004761
3391,-0.079457,-0.025317,-0.009662
3392,0.035379,-0.025317,0.004761
3393,0.012412,-0.025317,-0.009662
3394,0.012412,-0.009543,-0.009662
3395,-0.010555,-0.009543,-0.009662
3396,-0.033523,-0.009543,-0.009662
3397,-0.05649,-0.009543,0.004761
3398,-0.010555,-0.009543,-0.009662
3399,0.035379,-0.009543,-0.009662
3400,0.035379,-0.025317,-0.009662
3401,0.035379,-0.009543,-0.009662
3402,0.035379,-0.009543,-0.009662
3403,0.012412,0.006231,0.004761
3404,0.035379,-0.009543,-0.009662
3405,0.012412,-0.025317,-0.009662
3406,0.012412,-0.009543,-0.024086
3407,0.035379,0.006231,0.004761
3408,0.035379,-0.009543,0.033609
3409,0.012412,0.006231,0.004761
3410,0.127248,0.022005,0.004761
3411,0.058346,0.006231,0.019185
3412,-0.010555,-0.009543,0.004761
3413,-0.033523,0.006231,0.004761
3414,0.035379,-0.025317,-0.009662
3415,-0.010555,-0.009543,-0.03851
3416,-0.05649,-0.009543,-0.009662
3417,-0.033523,-0.009543,-0.024086
3418,-0.033523,-0.025317,-0.009662
3419,-0.010555,-0.009543,0.004761
3420,-0.033523,-0.025317,-0.009662
3421,-0.05649,0.006231,0.019185
3422,-0.010555,-0.009543,-0.009662
3423,-0.010555,-0.025317,0.004761
3424,-0.05649,0.006231,0.004761
3425,-0.033523,-0.009543,0.004761
3426,-0.010555,-0.009543,-0.009662
3427,0.012412,-0.025317,-0.024086
3428,-0.079457,-0.025317,0.004761
3429,-0.010555,-0.025317,-0.009662
3430,0.035379,-0.009543,-0.009662
3431,-0.010555,-0.041091,0.048033
3432,0.058346,-0.009543,-0.024086
3433,0.058346,-0.025317,-0.009662
3434,0.012412,-0.009543,-0.03851
3435,0.081313,-0.025317,-0.009662
3436,-0.010555,-0.009543,-0.009662
3437,0.012412,-0.025317,-0.009662
3438,0.058346,-0.009543,-0.009662
3439,0.035379,-0.009543,-0.009662
3440,0.012412,-0.009543,0.033609
3441,-0.010555,-0.009543,0.004761
3442,0.012412,-0.025317,-0.009662
3443,0.035379,-0.009543,0.004761
3444,0.012412,-0.025317,-0.009662
3445,0.035379,-0.009543,0.004761
3446,0.035379,-0.009543,0.004761
3447,-0.010555,-0.009543,0.004761
3448,0.035379,-0.025317,0.004761
3449,-0.033523,-0.025317,-0.024086
3450,0.012412,-0.025317,0.004761
3451,0.012412,0.006231,0.004761
3452,-0.010555,0.006231,0.004761
3453,-0.010555,-0.025317,-0.009662
3454,-0.033523,-0.009543,-0.009662
3455,-0.033523,-0.009543,-0.009662
3456,-0.010555,-0.009543,-0.009662
3457,0.012412,-0.009543,0.004761
3458,-0.010555,-0.009543,-0.009662
3459,-0.05649,-0.025317,-0.03851
3460,-0.010555,-0.025317,0.004761
3461,-0.05649,-0.025317,-0.009662
3462,0.012412,-0.025317,-0.024086
3463,-0.010555,-0.009543,-0.009662
3464,-0.033523,-0.009543,-0.009662
3465,0.035379,-0.009543,-0.009662
3466,-0.010555,-0.009543,-0.009662
3467,-0.010555,-0.009543,-0.009662
3468,-0.05649,-0.009543,-0.009662
3469,0.012412,-0.025317,-0.009662
3470,-0.010555,-0.009543,-0.024086
3471,-0.010555,-0.009543,0.004761
3472,-0.010555,-0.009543,-0.009662
3473,0.035379,-0.009543,0.004761
3474,0.035379,-0.009543,-0.009662
3475,0.012412,-0.025317,0.004761
3476,0.012412,-0.025317,0.004761
3477,0.058346,0.006231,0.004761
3478,0.035379,0.006231,0.004761
3479,-0.010555,0.006231,0.004761
3480,-0.05649,-0.009543,0.004761
3481,0.012412,-0.009543,0.019185
3482,-0.010555,0.006231,-0.009662
3483,0.058346,-0.009543,-0.024086
3484,-0.010555,-0.025317,-0.024086
3485,-0.033523,-0.009543,-0.009662
3486,-0.033523,-0.009543,-0.009662
3487,-0.05649,-0.025317,-0.009662
3488,-0.033523,-0.009543,0.004761
3489,-0.079457,-0.025317,0.004761
3490,-0.033523,-0.025317,-0.009662
3491,-0.033523,0.006231,0.004761
3492,-0.010555,-0.009543,-0.009662
3493,-0.033523,-0.009543,0.004761
3494,-0.05649,-0.009543,-0.009662
3495,-0.010555,-0.009543,0.004761
3496,0.058346,-0.009543,-0.009662
3497,0.035379,-0.025317,0.004761
3498,0.012412,-0.009543,0.004761
3499,-0.033523,-0.025317,-0.024086
3500,-0.010555,0.006231,-0.009662
3501,0.058346,-0.025317,0.004761
3502,0.058346,-0.025317,-0.009662
3503,0.035379,-0.009543,-0.024086
3504,0.058346,-0.009543,0.004761
3505,-0.010555,-0.025317,0.004761
3506,0.012412,-0.009543,-0.009662
3507,0.035379,0.006231,-0.009662
3508,0.058346,-0.009543,-0.024086
3509,0.012412,-0.025317,-0.009662
3510,-0.033523,-0.009543,-0.03851
3511,-0.033523,-0.025317,0.004761
3512,0.012412,-0.009543,-0.009662
3513,0.035379,0.006231,0.004761
3514,-0.05649,-0.025317,0.004761
3515,-0.079457,-0.009543,0.004761
3516,0.035379,0.006231,-0.024086
3517,-0.079457,-0.025317,-0.024086
3518,-0.079457,-0.025317,0.004761
3519,-0.033523,0.006231,-0.024086
3520,-0.010555,-0.025317,-0.024086
3521,-0.05649,0.006231,0.004761
3522,-0.079457,-0.009543,0.004761
3523,0.081313,-0.025317,0.019185
3524,0.035379,0.006231,0.004761
3525,-0.079457,-0.025317,0.019185
3526,-0.033523,-0.009543,0.019185
3527,0.058346,-0.009543,-0.009662
3528,0.035379,-0.025317,-0.009662
3529,-0.033523,-0.025317,-0.024086
3530,-0.033523,-0.056865,-0.024086
3531,0.012412,-0.025317,-0.024086
3532,0.012412,-0.025317,0.019185
3533,0.012412,-0.025317,0.004761
3534,-0.033523,-0.025317,0.004761
3535,-0.010555,-0.025317,0.004761
3536,0.012412,-0.009543,-0.024086
3537,0.012412,-0.025317,-0.009662
3538,0.012412,-0.009543,0.004761
3539,0.058346,-0.009543,-0.009662
3540,0.035379,-0.009543,-0.024086
3541,-0.010555,-0.009543,-0.009662
3542,-0.010555,-0.009543,-0.009662
3543,0.012412,0.006231,0.004761
3544,-0.033523,0.006231,-0.009662
3545,-0.010555,0.006231,0.004761
3546,-0.033523,-0.009543,0.004761
3547,0.012412,-0.025317,-0.009662
3548,-0.010555,-0.025317,-0.024086
3549,-0.010555,-0.025317,-0.009662
3550,-0.033523,-0.009543,-0.009662
3551,0.012412,-0.025317,0.004761
3552,-0.033523,-0.009543,0.004761
3553,-0.033523,-0.009543,-0.009662
3554,-0.05649,-0.025317,-0.009662
3555,-0.010555,-0.025317,0.004761
3556,-0.033523,-0.009543,-0.009662
3557,0.035379,0.006231,-0.009662
3558,0.012412,-0.009543,-0.024086
3559,0.012412,-0.025317,-0.009662
3560,-0.010555,-0.025317,-0.009662
3561,0.012412,0.006231,0.004761
3562,0.035379,-0.025317,0.004761
3563,0.081313,-0.009543,-0.024086
3564,0.081313,-0.009543,-0.009662
3565,0.012412,-0.025317,-0.024086
3566,-0.010555,0.006231,0.004761
3567,0.035379,-0.025317,-0.009662
3568,0.035379,-0.009543,0.004761
3569,0.012412,-0.025317,-0.009662
3570,-0.010555,-0.009543,0.004761
3571,0.012412,-0.009543,-0.009662
3572,-0.010555,-0.009543,0.004761
3573,-0.010555,-0.009543,-0.009662
3574,0.012412,-0.009543,0.004761
3575,-0.010555,-0.009543,-0.009662
3576,0.035379,-0.025317,0.004761
3577,-0.05649,-0.025317,-0.009662
3578,0.012412,-0.025317,-0.009662
3579,0.012412,-0.009543,0.019185
3580,-0.010555,-0.009543,-0.009662
