# Requested Sampling Rate (Hz):,1000
# Actual Sampling Rate (Hz):,998.761
# Requested Duration (s):,5.0
# Actual Duration (s):,5.047
# REST Calibration:,831.4595862068991,832.6049655172403,833.6698965517227
# MAX Calibration:,875.0000,896.0000,903.0000
# Normalization: MVC-based  (x_norm = (x - REST) / (MAX - REST))
sample_idx,EMG1,EMG2,EMG3
0,-0.010555,-0.009543,-0.009662
1,-0.010555,-0.041091,-0.009662
2,-0.033523,-0.009543,0.004761
3,-0.010555,-0.009543,0.004761
4,0.012412,-0.009543,0.004761
5,-0.079457,-0.009543,-0.009662
6,-0.05649,-0.025317,-0.024086
7,-0.010555,-0.009543,-0.024086
8,0.035379,-0.025317,-0.03851
9,-0.033523,-0.009543,-0.009662
10,-0.033523,-0.025317,0.004761
11,-0.033523,-0.009543,-0.024086
12,0.035379,-0.009543,-0.009662
13,-0.033523,-0.009543,0.004761
14,-0.010555,0.006231,0.004761
15,0.012412,-0.025317,-0.009662
16,0.012412,-0.009543,0.004761
17,0.058346,0.006231,0.004761
18,0.035379,-0.009543,-0.009662
19,0.012412,0.006231,-0.024086
20,0.035379,-0.009543,0.004761
21,0.012412,-0.009543,0.019185
22,-0.033523,0.006231,-0.009662
23,0.012412,0.022005,0.019185
24,0.058346,-0.009543,0.004761
25,0.012412,0.006231,-0.009662
26,0.058346,-0.009543,-0.009662
27,0.035379,-0.009543,-0.009662
28,-0.010555,-0.041091,-0.024086
29,0.058346,0.006231,0.004761
30,-0.010555,-0.025317,0.019185
31,0.035379,-0.009543,0.004761
32,0.035379,-0.009543,0.004761
33,0.012412,-0.009543,-0.024086
34,-0.010555,-0.025317,-0.009662
35,0.012412,0.006231,0.004761
36,0.035379,-0.025317,-0.009662
37,0.035379,-0.025317,-0.024086
38,0.012412,-0.009543,-0.009662
39,0.035379,0.006231,0.019185
40,-0.102424,0.006231,-0.009662
41,-0.102424,-0.041091,0.004761
42,-0.05649,0.006231,0.004761
43,-0.033523,-0.009543,0.004761
44,-0.033523,-0.009543,-0.009662
45,-0.033523,0.006231,-0.009662
46,-0.010555,-0.025317,0.004761
47,0.012412,-0.009543,0.004761
48,0.035379,-0.009543,-0.009662
49,0.012412,-0.009543,-0.009662
50,0.035379,0.006231,-0.024086
51,0.081313,-0.009543,-0.03851
52,0.058346,-0.009543,-0.009662
53,0.058346,-0.009543,-0.009662
54,0.012412,-0.009543,-0.009662
55,0.035379,-0.009543,0.019185
56,0.012412,0.022005,0.004761
57,-0.010555,-0.009543,0.004761
58,0.035379,-0.009543,0.004761
59,0.035379,-0.009543,0.004761
60,0.012412,-0.009543,-0.009662
61,0.012412,0.006231,0.019185
62,0.035379,-0.009543,0.004761
63,0.035379,-0.025317,-0.009662
64,0.012412,-0.025317,-0.024086
65,-0.05649,0.006231,0.019185
66,-0.033523,0.006231,0.004761
67,0.012412,0.006231,-0.009662
68,-0.05649,-0.025317,-0.009662
69,-0.05649,-0.025317,-0.009662
70,-0.033523,0.006231,-0.009662
71,-0.033523,-0.009543,0.004761
72,-0.033523,-0.009543,-0.009662
73,0.127248,-0.009543,-0.009662
74,-0.010555,0.006231,-0.009662
75,0.058346,-0.025317,0.004761
76,-0.033523,-0.025317,0.004761
77,-0.010555,-0.025317,0.004761
78,0.012412,-0.009543,-0.009662
79,0.035379,-0.009543,-0.024086
80,-0.033523,-0.009543,0.019185
81,0.012412,0.006231,-0.009662
82,-0.010555,-0.009543,0.004761
83,0.012412,-0.025317,0.004761
84,-0.010555,-0.009543,0.019185
85,-0.010555,0.006231,0.004761
86,0.058346,-0.009543,0.004761
87,0.035379,-0.009543,0.004761
88,-0.010555,-0.009543,-0.009662
89,0.012412,-0.025317,-0.024086
90,0.035379,-0.009543,-0.03851
91,0.035379,0.006231,-0.024086
92,0.012412,-0.025317,-0.024086
93,-0.010555,-0.009543,-0.009662
94,0.012412,0.006231,-0.009662
95,-0.033523,-0.009543,-0.009662
96,-0.05649,-0.009543,-0.03851
97,-0.010555,-0.009543,-0.009662
98,-0.010555,-0.009543,0.019185
99,-0.010555,-0.009543,0.004761
100,-0.010555,-0.025317,-0.009662
101,-0.010555,-0.009543,0.019185
102,0.058346,0.006231,0.004761
103,-0.010555,-0.025317,0.004761
104,0.035379,0.006231,-0.009662
105,-0.033523,0.006231,-0.009662
106,-0.010555,-0.009543,-0.024086
107,0.012412,0.006231,-0.024086
108,-0.010555,-0.009543,-0.024086
109,-0.033523,-0.009543,0.004761
110,-0.05649,-0.009543,-0.009662
111,-0.079457,0.006231,0.004761
112,-0.079457,-0.009543,-0.024086
113,0.012412,-0.009543,0.004761
114,0.012412,0.006231,0.004761
115,-0.033523,-0.025317,0.004761
116,0.012412,-0.009543,-0.009662
117,0.012412,-0.009543,-0.009662
118,0.058346,-0.009543,0.004761
119,0.058346,0.006231,0.004761
120,0.012412,-0.009543,-0.024086
121,0.058346,-0.009543,-0.009662
122,0.012412,-0.009543,-0.009662
123,-0.010555,-0.009543,-0.009662
124,-0.010555,-0.009543,-0.009662
125,0.035379,-0.009543,-0.009662
126,0.035379,-0.025317,0.004761
127,0.035379,-0.009543,0.004761
128,-0.010555,-0.009543,0.004761
129,0.058346,0.006231,-0.009662
130,0.012412,0.006231,-0.009662
131,0.012412,0.006231,-0.009662
132,-0.05649,-0.025317,-0.009662
133,0.058346,-0.025317,-0.009662
134,-0.010555,-0.009543,-0.009662
135,-0.033523,-0.025317,-0.009662
136,-0.033523,0.006231,-0.009662
137,-0.05649,-0.025317,0.004761
138,0.035379,-0.025317,-0.009662
139,0.012412,-0.009543,-0.009662
140,-0.05649,0.006231,0.019185
141,-0.033523,-0.009543,0.004761
142,-0.010555,-0.025317,0.004761
143,-0.05649,0.006231,0.004761
144,-0.033523,-0.009543,0.004761
145,0.012412,-0.009543,0.019185
146,-0.010555,-0.009543,-0.009662
147,0.012412,-0.009543,0.004761
148,-0.033523,-0.009543,0.019185
149,-0.010555,0.006231,0.004761
150,0.058346,-0.009543,0.004761
151,-0.05649,-0.009543,-0.009662
152,-0.010555,-0.009543,-0.009662
153,0.012412,-0.025317,0.004761
154,0.012412,-0.025317,-0.009662
155,0.012412,0.006231,-0.009662
156,0.012412,0.006231,0.004761
157,0.035379,0.006231,0.004761
158,0.035379,-0.025317,0.004761
159,0.081313,-0.009543,-0.009662
160,0.012412,-0.009543,0.004761
161,0.035379,-0.009543,0.004761
162,-0.010555,0.006231,0.004761
163,-0.010555,-0.025317,-0.009662
164,-0.010555,-0.009543,0.004761
165,0.035379,-0.025317,-0.009662
166,0.012412,-0.025317,-0.009662
167,0.012412,-0.025317,0.004761
168,-0.05649,0.006231,0.004761
169,-0.033523,-0.009543,0.004761
170,-0.010555,-0.025317,-0.009662
171,-0.033523,-0.025317,0.004761
172,-0.010555,-0.025317,-0.009662
173,-0.033523,-0.009543,0.004761
174,-0.033523,-0.009543,0.004761
175,0.012412,-0.025317,-0.009662
176,-0.010555,-0.025317,0.019185
177,-0.05649,-0.009543,-0.009662
178,-0.010555,-0.009543,-0.009662
179,0.012412,-0.025317,-0.009662
180,-0.010555,-0.025317,-0.009662
181,-0.010555,-0.041091,-0.009662
182,-0.033523,-0.009543,-0.009662
183,-0.102424,-0.025317,-0.009662
184,0.012412,-0.009543,0.004761
185,0.058346,0.006231,-0.009662
186,-0.033523,-0.009543,0.004761
187,0.012412,-0.009543,-0.009662
188,-0.010555,-0.009543,0.004761
189,-0.010555,0.006231,0.019185
190,0.012412,0.006231,-0.009662
191,-0.010555,-0.025317,-0.009662
192,0.035379,-0.009543,-0.009662
193,0.035379,0.006231,-0.009662
194,0.081313,-0.009543,0.004761
195,0.058346,-0.009543,-0.009662
196,0.035379,-0.009543,-0.009662
197,0.127248,-0.009543,0.004761
198,0.012412,-0.009543,-0.009662
199,0.012412,-0.025317,0.004761
200,0.012412,-0.009543,0.004761
201,0.035379,-0.009543,0.019185
202,0.012412,-0.009543,0.004761
203,0.10428,-0.009543,0.019185
204,0.219116,-0.009543,-0.009662
205,0.173182,-0.009543,-0.009662
206,0.196149,0.022005,-0.009662
207,0.081313,0.006231,-0.024086
208,-0.125391,-0.025317,-0.024086
209,-0.309129,-0.025317,-0.024086
210,-0.125391,-0.041091,-0.024086
211,-0.033523,-0.025317,-0.009662
212,-0.05649,0.006231,-0.009662
213,-0.079457,0.006231,0.004761
214,-0.102424,-0.009543,-0.009662
215,-0.033523,0.022005,0.004761
216,-0.033523,-0.025317,0.019185
217,-0.010555,-0.009543,0.004761
218,-0.05649,-0.009543,-0.024086
219,0.012412,-0.025317,0.004761
220,0.035379,-0.009543,0.019185
221,0.035379,-0.025317,-0.009662
222,-0.033523,0.022005,0.004761
223,0.035379,0.022005,0.004761
224,0.058346,0.006231,-0.009662
225,0.058346,0.022005,0.004761
226,-0.010555,0.006231,-0.009662
227,0.012412,0.006231,0.004761
228,0.012412,-0.041091,-0.009662
229,-0.010555,-0.056865,0.004761
230,0.012412,-0.025317,0.004761
231,0.035379,-0.009543,0.019185
232,0.012412,-0.041091,0.019185
233,-0.010555,-0.009543,-0.009662
234,0.012412,-0.009543,0.004761
235,0.035379,-0.009543,-0.009662
236,0.012412,0.006231,-0.024086
237,-0.010555,-0.009543,-0.024086
238,-0.033523,-0.009543,-0.009662
239,0.012412,0.006231,-0.009662
240,0.012412,-0.009543,0.004761
241,-0.010555,0.006231,-0.009662
242,-0.033523,0.006231,-0.009662
243,0.012412,0.006231,0.004761
244,-0.033523,-0.009543,0.004761
245,0.012412,-0.025317,0.004761
246,-0.033523,-0.009543,0.004761
247,-0.010555,-0.009543,0.004761
248,0.012412,-0.009543,-0.009662
249,0.012412,-0.009543,-0.024086
250,0.012412,-0.009543,-0.009662
251,0.012412,-0.009543,-0.009662
252,-0.010555,-0.009543,-0.024086
253,-0.010555,-0.025317,0.004761
254,0.012412,0.006231,0.004761
255,0.058346,-0.009543,0.004761
256,0.058346,-0.025317,-0.009662
257,0.012412,-0.025317,0.019185
258,0.012412,-0.025317,-0.009662
259,0.035379,-0.009543,-0.024086
260,0.081313,-0.025317,-0.024086
261,-0.010555,-0.009543,-0.009662
262,-0.079457,-0.009543,-0.009662
263,-0.033523,0.006231,0.004761
264,-0.010555,-0.009543,0.004761
265,-0.033523,-0.009543,0.004761
266,0.035379,-0.025317,-0.024086
267,0.058346,-0.025317,-0.024086
268,0.035379,-0.009543,0.004761
269,0.058346,0.006231,-0.009662
270,0.035379,0.006231,-0.009662
271,-0.033523,-0.009543,-0.009662
272,-0.010555,0.006231,0.019185
273,0.012412,-0.009543,-0.009662
274,-0.079457,-0.009543,0.004761
275,-0.010555,-0.009543,-0.009662
276,-0.033523,0.006231,0.004761
277,0.012412,-0.009543,-0.024086
278,-0.010555,-0.025317,0.004761
279,-0.010555,-0.025317,-0.009662
280,-0.010555,-0.025317,0.019185
281,-0.033523,-0.025317,-0.009662
282,0.035379,-0.009543,0.004761
283,0.058346,-0.009543,-0.009662
284,0.035379,0.006231,-0.009662
285,0.081313,-0.009543,0.004761
286,0.035379,0.006231,-0.009662
287,0.081313,0.053554,-0.009662
288,0.012412,0.022005,0.004761
289,0.012412,0.006231,-0.009662
290,0.012412,0.006231,0.019185
291,0.081313,-0.025317,-0.009662
292,0.081313,-0.041091,-0.024086
293,0.012412,-0.072639,-0.009662
294,-0.125391,-0.009543,0.004761
295,-0.171326,0.03778,0.004761
296,-0.05649,0.022005,0.004761
297,0.035379,0.022005,0.004761
298,-0.010555,-0.041091,-0.009662
299,-0.033523,-0.041091,0.004761
300,-0.010555,-0.056865,-0.009662
301,-0.010555,-0.072639,-0.024086
302,0.012412,-0.025317,-0.009662
303,-0.079457,-0.025317,-0.024086
304,-0.194293,-0.009543,-0.024086
305,-0.148358,-0.025317,-0.009662
306,-0.05649,-0.041091,0.019185
307,-0.05649,-0.041091,0.019185
308,-0.079457,-0.041091,0.004761
309,-0.033523,-0.009543,-0.009662
310,0.058346,-0.009543,0.004761
311,0.127248,-0.009543,-0.009662
312,0.173182,0.006231,-0.024086
313,0.173182,0.006231,-0.009662
314,0.127248,0.022005,0.004761
315,0.012412,0.022005,0.004761
316,-0.033523,0.022005,0.004761
317,0.035379,0.006231,0.004761
318,0.012412,0.006231,-0.009662
319,-0.102424,-0.009543,0.004761
320,-0.010555,0.022005,-0.009662
321,0.035379,0.006231,-0.024086
322,0.10428,0.006231,-0.009662
323,0.081313,0.006231,0.004761
324,0.035379,0.022005,-0.009662
325,-0.010555,0.03778,-0.009662
326,0.012412,0.006231,-0.024086
327,-0.033523,-0.056865,-0.024086
328,0.012412,-0.025317,0.004761
329,0.058346,-0.025317,0.004761
330,0.058346,-0.025317,0.019185
331,0.035379,-0.041091,0.004761
332,0.10428,0.006231,0.004761
333,0.081313,0.022005,0.004761
334,0.10428,0.022005,0.004761
335,-0.033523,-0.009543,0.004761
336,-0.125391,0.006231,-0.009662
337,-0.148358,0.03778,0.004761
338,0.127248,0.022005,-0.009662
339,0.265051,0.022005,0.004761
340,0.265051,0.085102,0.019185
341,0.265051,0.195521,0.033609
342,0.081313,0.11665,0.004761
343,0.012412,0.03778,0.019185
344,-0.171326,-0.009543,0.048033
345,-0.309129,-0.025317,0.004761
346,-0.286161,-0.056865,0.004761
347,-0.125391,-0.088413,0.004761
348,-0.102424,-0.135736,-0.024086
349,-0.033523,-0.135736,-0.009662
350,-0.033523,-0.119962,0.004761
351,0.058346,-0.072639,0.004761
352,-0.148358,-0.056865,0.004761
353,-0.21726,-0.041091,-0.009662
354,0.012412,-0.041091,-0.024086
355,0.10428,-0.009543,-0.009662
356,0.081313,0.022005,0.004761
357,0.035379,0.069328,-0.009662
358,0.012412,0.053554,-0.024086
359,-0.033523,0.022005,-0.009662
360,-0.033523,-0.009543,-0.009662
361,0.035379,-0.056865,0.004761
362,-0.010555,-0.088413,0.004761
363,0.012412,-0.056865,0.004761
364,-0.010555,-0.056865,-0.009662
365,-0.102424,-0.025317,-0.009662
366,-0.033523,-0.009543,0.004761
367,-0.079457,0.022005,0.004761
368,-0.102424,-0.009543,-0.024086
369,-0.125391,-0.009543,0.004761
370,-0.05649,-0.041091,-0.024086
371,0.058346,-0.009543,-0.009662
372,0.10428,-0.009543,0.004761
373,0.127248,0.006231,0.004761
374,0.127248,-0.009543,0.004761
375,0.10428,-0.009543,-0.009662
376,0.196149,0.006231,0.004761
377,0.219116,-0.009543,0.004761
378,0.127248,-0.025317,0.019185
379,0.150215,0.006231,-0.009662
380,0.632525,-0.009543,-0.024086
381,0.586591,-0.041091,-0.052934
382,0.288018,-0.009543,-0.009662
383,0.173182,0.006231,0.004761
384,-0.010555,-0.009543,0.019185
385,-0.355063,-0.025317,-0.009662
386,-0.5388,-0.025317,0.004761
387,-0.653636,0.006231,0.004761
388,-0.355063,0.022005,-0.009662
389,-0.079457,0.03778,0.033609
390,0.058346,-0.009543,-0.009662
391,0.173182,0.006231,-0.052934
392,0.173182,0.006231,-0.024086
393,0.173182,0.022005,-0.009662
394,0.127248,0.053554,-0.009662
395,-0.05649,0.053554,-0.009662
396,-0.286161,0.053554,-0.009662
397,-0.171326,0.022005,-0.009662
398,-0.102424,0.022005,0.004761
399,-0.148358,-0.025317,-0.009662
400,-0.171326,-0.072639,0.004761
401,0.035379,-0.072639,0.004761
402,0.150215,-0.041091,0.004761
403,0.173182,-0.025317,0.004761
404,0.150215,-0.056865,0.004761
405,0.127248,-0.041091,0.004761
406,0.127248,-0.025317,0.004761
407,0.10428,0.069328,-0.009662
408,0.150215,0.069328,-0.009662
409,0.10428,0.053554,-0.009662
410,-0.102424,0.022005,-0.024086
411,-0.102424,0.03778,0.004761
412,-0.05649,0.100876,0.019185
413,-0.033523,0.053554,0.019185
414,0.058346,0.022005,0.004761
415,0.127248,-0.041091,-0.009662
416,0.058346,-0.072639,-0.009662
417,0.035379,-0.088413,-0.009662
418,0.288018,-0.119962,-0.009662
419,0.333952,-0.183058,-0.009662
420,0.288018,-0.104187,0.004761
421,0.058346,-0.009543,0.048033
422,-0.309129,0.006231,-0.024086
423,-0.125391,0.022005,-0.024086
424,-0.05649,0.022005,-0.009662
425,-0.033523,-0.009543,-0.024086
426,-0.286161,-0.009543,-0.009662
427,-0.332096,-0.009543,-0.024086
428,-0.263194,-0.025317,0.004761
429,-0.21726,0.022005,0.019185
430,-0.148358,0.006231,0.004761
431,-0.102424,0.03778,0.004761
432,-0.05649,0.195521,0.004761
433,-0.079457,0.163972,-0.009662
434,0.356919,0.163972,-0.009662
435,0.816263,0.085102,-0.009662
436,0.747361,0.069328,-0.009662
437,0.67846,-0.009543,0.048033
438,0.333952,-0.041091,-0.024086
439,-0.263194,-0.056865,-0.024086
440,-0.814406,-0.088413,-0.009662
441,-0.975176,-0.088413,0.004761
442,-0.584735,0.03778,0.019185
443,-0.171326,0.006231,0.004761
444,-0.079457,-0.072639,-0.009662
445,0.10428,-0.088413,-0.03851
446,0.265051,-0.056865,-0.024086
447,0.219116,-0.072639,0.004761
448,-0.079457,-0.072639,0.004761
449,-0.102424,-0.104187,0.004761
450,-0.010555,-0.088413,0.004761
451,-0.033523,-0.088413,-0.009662
452,-0.033523,-0.056865,-0.009662
453,-0.102424,-0.072639,-0.024086
454,-0.469899,-0.041091,-0.009662
455,-0.561767,-0.041091,0.004761
456,-0.37803,0.006231,0.019185
457,-0.194293,0.006231,0.004761
458,-0.102424,-0.025317,-0.024086
459,0.242083,-0.041091,-0.009662
460,0.655492,-0.009543,-0.024086
461,0.954066,-0.025317,-0.009662
462,0.724394,0.022005,-0.009662
463,0.448788,-0.009543,-0.009662
464,0.333952,-0.009543,-0.009662
465,0.219116,0.006231,0.019185
466,0.012412,0.03778,0.004761
467,-0.010555,0.069328,-0.024086
468,-0.010555,0.053554,-0.024086
469,0.081313,0.022005,-0.024086
470,0.058346,-0.041091,-0.009662
471,0.150215,-0.104187,-0.009662
472,0.127248,-0.056865,0.004761
473,0.310985,0.006231,0.004761
474,0.081313,-0.025317,0.004761
475,-0.05649,0.069328,0.004761
476,-0.332096,0.11665,0.033609
477,-0.148358,0.085102,0.019185
478,-0.079457,0.03778,0.004761
479,-0.148358,0.006231,-0.024086
480,-0.355063,-0.009543,-0.024086
481,-0.469899,-0.104187,-0.024086
482,-0.286161,-0.135736,-0.009662
483,-0.240227,-0.104187,-0.009662
484,-0.240227,-0.072639,0.004761
485,-0.240227,-0.104187,0.004761
486,-0.171326,-0.15151,-0.024086
487,-0.194293,-0.119962,-0.024086
488,0.242083,-0.025317,-0.009662
489,0.540657,-0.009543,-0.03851
490,0.494722,0.148198,0.004761
491,0.356919,0.195521,-0.009662
492,0.035379,0.179746,0.004761
493,-0.332096,0.085102,0.004761
494,-0.584735,0.069328,0.033609
495,-0.400997,0.085102,0.004761
496,-0.05649,0.100876,0.033609
497,0.196149,0.132424,-0.024086
498,0.196149,0.100876,-0.009662
499,0.196149,0.053554,-0.009662
500,0.379886,0.03778,-0.009662
501,0.379886,0.085102,0.004761
502,0.150215,0.195521,-0.009662
503,0.012412,0.085102,0.004761
504,0.173182,-0.041091,-0.024086
505,-0.102424,-0.15151,-0.03851
506,-0.148358,-0.23038,-0.024086
507,0.081313,-0.246154,0.004761
508,0.058346,-0.309251,-0.024086
509,-0.171326,-0.325025,-0.024086
510,-0.148358,-0.041091,-0.009662
511,-0.171326,0.085102,-0.009662
512,-0.240227,0.085102,-0.009662
513,-0.286161,0.022005,-0.009662
514,-0.240227,0.006231,0.004761
515,-0.125391,-0.009543,0.004761
516,-0.102424,-0.088413,-0.024086
517,-0.102424,-0.135736,0.004761
518,-0.125391,-0.135736,-0.024086
519,-0.148358,-0.119962,-0.009662
520,0.333952,-0.041091,0.019185
521,0.609558,-0.025317,0.033609
522,0.885164,0.006231,0.048033
523,0.977033,0.03778,-0.009662
524,0.83923,0.163972,0.004761
525,0.242083,0.211295,-0.024086
526,-0.975176,0.132424,0.004761
527,-0.906275,0.053554,0.004761
528,-0.469899,0.006231,0.019185
529,-0.423964,-0.119962,0.004761
530,-0.240227,-0.104187,-0.03851
531,-0.033523,-0.072639,-0.067357
532,-0.148358,-0.072639,-0.024086
533,-0.630669,-0.041091,0.004761
534,-0.69957,-0.041091,0.019185
535,-0.423964,-0.025317,0.004761
536,0.242083,-0.025317,-0.009662
537,0.540657,0.085102,0.019185
538,0.908131,0.163972,0.019185
539,0.908131,0.132424,-0.009662
540,0.402854,-0.009543,0.004761
541,-0.033523,-0.041091,0.004761
542,-0.102424,-0.041091,0.019185
543,-0.355063,-0.025317,0.004761
544,-0.446932,0.03778,-0.024086
545,-0.148358,0.11665,-0.024086
546,-0.05649,0.022005,-0.024086
547,0.173182,-0.104187,-0.03851
548,0.173182,-0.198832,-0.03851
549,0.10428,-0.15151,-0.009662
550,0.081313,-0.025317,-0.024086
551,0.058346,0.006231,-0.009662
552,-0.05649,0.006231,-0.024086
553,-0.033523,-0.056865,-0.024086
554,0.242083,-0.135736,-0.009662
555,0.448788,-0.119962,0.004761
556,0.586591,-0.072639,0.004761
557,0.379886,-0.056865,0.004761
558,-0.263194,-0.088413,0.019185
559,-0.400997,-0.15151,-0.009662
560,-0.423964,-0.119962,-0.024086
561,-0.423964,0.022005,0.048033
562,-0.263194,0.242843,-0.024086
563,-0.148358,0.305939,-0.009662
564,-0.079457,0.353262,0.004761
565,-0.05649,0.353262,0.033609
566,-0.125391,0.211295,0.019185
567,-0.171326,0.148198,0.019185
568,-0.102424,0.148198,0.019185
569,0.196149,0.11665,-0.024086
570,0.586591,0.006231,-0.052934
571,0.655492,-0.23038,-0.052934
572,0.471755,-0.277703,-0.024086
573,0.173182,-0.214606,-0.009662
574,0.081313,-0.261928,-0.03851
575,-0.332096,-0.325025,-0.03851
576,-0.332096,-0.246154,-0.024086
577,-0.148358,-0.056865,-0.024086
578,-0.148358,0.03778,0.019185
579,-0.263194,0.211295,0.019185
580,0.035379,0.258617,0.004761
581,0.058346,0.400584,0.033609
582,-0.010555,0.290165,0.048033
583,-0.010555,0.053554,0.033609
584,-0.102424,-0.135736,0.004761
585,-0.240227,-0.246154,-0.009662
586,-0.194293,-0.41967,-0.024086
587,0.196149,-0.466992,-0.067357
588,0.310985,-0.325025,-0.052934
589,0.219116,-0.056865,-0.024086
590,-0.332096,-0.009543,-0.024086
591,-0.722538,-0.119962,-0.052934
592,-0.768472,-0.056865,-0.052934
593,-0.102424,0.069328,0.004761
594,0.173182,0.321713,0.004761
595,0.356919,0.337488,-0.024086
596,0.288018,0.337488,0.019185
597,-0.010555,0.242843,0.048033
598,-0.033523,0.022005,0.048033
599,0.242083,-0.056865,-0.024086
600,0.310985,-0.183058,-0.052934
601,0.150215,-0.277703,-0.067357
602,-0.263194,-0.104187,-0.052934
603,-0.332096,0.022005,-0.009662
604,-0.079457,0.163972,0.048033
605,-0.492866,0.227069,0.004761
606,-0.469899,0.290165,-0.009662
607,-0.194293,0.242843,-0.009662
608,0.081313,0.100876,-0.009662
609,0.333952,-0.088413,-0.024086
610,0.586591,-0.246154,-0.03851
611,0.448788,-0.277703,-0.009662
612,0.150215,-0.183058,-0.024086
613,-0.125391,0.179746,0.019185
614,-0.194293,0.211295,0.033609
615,0.035379,0.11665,0.033609
616,0.058346,0.006231,0.033609
617,0.081313,-0.025317,0.033609
618,0.150215,-0.119962,0.004761
619,0.586591,-0.041091,-0.009662
620,0.747361,-0.119962,-0.03851
621,0.517689,-0.246154,-0.052934
622,0.150215,-0.340799,-0.052934
623,-0.102424,-0.23038,-0.03851
624,-0.69957,-0.23038,-0.009662
625,-0.607702,-0.119962,-0.009662
626,-0.400997,-0.025317,-0.009662
627,-0.148358,0.006231,0.004761
628,0.035379,-0.056865,0.033609
629,-0.010555,-0.041091,-0.009662
630,0.333952,0.11665,-0.03851
631,0.356919,0.211295,-0.009662
632,0.173182,0.38481,0.033609
633,0.310985,0.321713,0.019185
634,0.173182,0.163972,0.019185
635,0.081313,0.006231,-0.024086
636,-0.355063,-0.056865,-0.03851
637,-0.745505,-0.198832,-0.03851
638,-0.630669,-0.15151,-0.024086
639,-0.607702,-0.23038,0.004761
640,-0.492866,-0.056865,0.033609
641,-0.148358,0.38481,0.019185
642,-0.010555,0.558325,0.019185
643,0.471755,0.495229,-0.009662
644,0.954066,0.589873,0.019185
645,1.0,0.542551,0.019185
646,0.632525,0.321713,0.004761
647,-0.079457,0.053554,-0.009662
648,-0.515833,0.211295,-0.081781
649,-0.355063,0.242843,-0.024086
650,-0.286161,-0.072639,-0.024086
651,-0.102424,-0.135736,-0.024086
652,0.081313,-0.356573,0.048033
653,0.081313,-0.7667,0.019185
654,0.563624,-0.892893,-0.024086
655,0.425821,-0.892893,-0.024086
656,0.196149,-0.703603,-0.024086
657,-0.400997,0.03778,0.004761
658,-0.975176,0.700292,0.033609
659,-0.515833,0.810711,-0.009662
660,-0.102424,0.684518,0.004761
661,0.310985,0.274391,0.062456
662,0.425821,-0.356573,0.019185
663,0.058346,-0.514314,0.048033
664,-0.400997,-0.451218,0.019185
665,0.219116,-0.41967,-0.009662
666,0.563624,-0.15151,-0.03851
667,1.137803,-0.309251,-0.024086
668,2.171326,-0.214606,-0.067357
669,1.229672,0.305939,-0.081781
670,0.517689,0.605647,-0.052934
671,-0.309129,0.495229,-0.03851
672,-1.112979,0.621421,-0.024086
673,-1.021111,0.747614,0.019185
674,-0.607702,0.668744,0.033609
675,-0.21726,0.11665,0.091304
676,-0.194293,-0.656281,0.033609
677,-0.469899,-0.987537,0.019185
678,-0.309129,-1.161053,-0.052934
679,0.333952,-0.955989,-0.081781
680,0.379886,-0.593185,-0.024086
681,0.150215,0.085102,-0.024086
682,-0.194293,0.716066,-0.009662
683,-0.286161,1.552094,0.048033
684,-0.309129,2.277703,0.048033
685,-0.630669,1.946446,0.134575
686,-1.090012,1.031548,0.091304
687,-0.929242,0.227069,0.019185
688,-0.975176,-0.325025,-0.081781
689,-0.561767,-0.971763,-0.1539
690,0.10428,-0.924441,-0.110629
691,1.091869,0.069328,-0.009662
692,1.413409,0.479454,0.033609
693,1.091869,0.542551,0.019185
694,1.0,0.258617,0.019185
695,0.586591,-0.403895,-0.024086
696,0.471755,-0.782474,-0.03851
697,0.379886,-0.41967,-0.052934
698,0.058346,-0.15151,-0.024086
699,-0.171326,-0.293477,0.033609
700,-0.37803,-0.325025,0.019185
701,-0.332096,-0.482766,-0.009662
702,-0.240227,-0.750926,-0.009662
703,0.379886,-0.750926,-0.024086
704,0.333952,-0.41967,0.019185
705,-0.079457,0.447906,0.033609
706,-0.010555,1.157741,-0.009662
707,-0.010555,0.858033,0.004761
708,0.012412,0.100876,-0.03851
709,0.356919,-0.624733,-0.096205
710,0.425821,-0.735152,-0.052934
711,0.012412,-0.924441,0.033609
712,0.035379,-0.861345,-0.009662
713,-1.158914,-0.545862,0.004761
714,-0.998144,-0.088413,0.004761
715,-0.860341,-0.104187,-0.052934
716,-0.5388,0.369036,-0.067357
717,0.288018,0.968452,0.004761
718,0.655492,1.189289,0.004761
719,0.196149,1.078871,-0.009662
720,-0.171326,0.779163,-0.052934
721,0.081313,0.100876,-0.052934
722,0.471755,0.826485,0.033609
723,0.632525,0.905355,0.033609
724,1.045934,0.763388,0.019185
725,0.655492,0.163972,0.019185
726,-0.148358,0.006231,0.091304
727,-1.135947,-0.246154,0.048033
728,-1.090012,-0.940215,0.019185
729,0.058346,-1.334568,-0.03851
730,0.816263,-0.971763,-0.024086
731,0.173182,-0.530088,-0.052934
732,-0.492866,-0.451218,-0.067357
733,-0.355063,-0.41967,-0.067357
734,-0.400997,0.274391,0.033609
735,-1.250782,0.148198,0.062456
736,-0.033523,-0.025317,0.033609
737,1.045934,0.46368,0.033609
738,1.137803,0.716066,0.07688
739,0.67846,0.148198,0.004761
740,-0.929242,-0.545862,-0.096205
741,-1.319684,-0.41967,-0.1539
742,-0.745505,-0.435444,-0.067357
743,0.310985,-0.561637,-0.024086
744,1.298573,-0.7667,0.048033
745,1.689015,-1.050634,0.091304
746,1.734949,-0.782474,0.062456
747,0.885164,0.479454,-0.052934
748,0.793295,1.567868,-0.009662
749,-0.033523,2.356573,0.062456
750,-1.204848,1.836028,0.120151
751,-1.090012,0.779163,0.033609
752,-0.010555,-0.025317,-0.024086
753,0.265051,-0.703603,-0.110629
754,-0.286161,-1.318794,-0.110629
755,0.127248,-0.514314,-0.009662
756,0.173182,-0.466992,-0.009662
757,0.058346,-0.719378,-0.067357
758,-0.492866,-0.814022,-0.125052
759,-1.090012,-1.097956,-0.139476
760,-0.814406,-0.466992,-0.03851
761,-0.5388,0.321713,0.07688
762,-1.296717,0.542551,0.148999
763,-1.090012,0.637196,0.062456
764,-0.079457,0.148198,0.033609
765,1.505278,0.100876,0.062456
766,2.148358,0.589873,0.062456
767,2.079457,0.195521,-0.03851
768,2.010555,-0.577411,-0.1539
769,1.252639,-0.088413,-0.125052
770,0.058346,-0.246154,-0.096205
771,-1.319684,-0.356573,-0.067357
772,-0.423964,0.479454,-0.024086
773,0.540657,0.558325,-0.009662
774,0.333952,0.526777,0.004761
775,-1.250782,1.078871,0.019185
776,-0.079457,1.394353,0.105728
777,0.747361,1.567868,0.120151
778,0.10428,0.227069,0.004761
779,-0.492866,-1.350342,-0.081781
780,-0.492866,-2.785785,-0.081781
781,0.517689,-2.596496,0.004761
782,1.666048,-1.72892,0.033609
783,1.505278,-0.325025,0.048033
784,0.035379,1.110419,-0.009662
785,-2.054633,0.968452,-0.03851
786,-1.59529,0.558325,-0.009662
787,-0.676603,0.03778,-0.081781
788,-0.469899,-0.183058,-0.067357
789,0.127248,-0.23038,0.004761
790,0.150215,-0.451218,0.019185
791,0.081313,-0.009543,0.091304
792,-0.286161,0.542551,0.048033
793,0.058346,0.148198,-0.009662
794,0.173182,-0.466992,-0.024086
795,-0.906275,0.163972,-0.009662
796,-0.630669,1.741383,0.07688
797,-0.515833,1.630964,0.019185
798,-0.515833,0.400584,-0.024086
799,-0.722538,-0.545862,-0.1539
800,0.10428,-0.703603,-0.052934
801,0.977033,-0.167284,-0.009662
802,0.793295,-0.261928,-0.110629
803,-0.515833,-0.293477,-0.110629
804,-0.240227,-0.561637,0.004761
805,-0.194293,-0.545862,0.07688
806,0.448788,0.179746,0.19227
807,1.091869,0.621421,0.206694
808,-0.400997,-0.15151,0.004761
809,-1.664191,-0.545862,-0.168324
810,-0.630669,0.447906,-0.139476
811,0.83923,0.479454,-0.052934
812,0.701427,-0.167284,-0.052934
813,0.402854,-0.15151,-0.024086
814,-0.05649,-0.561637,-0.009662
815,0.127248,-1.303019,-0.024086
816,0.724394,-1.255697,0.019185
817,2.102424,-0.530088,0.033609
818,1.137803,-0.261928,0.062456
819,-0.332096,0.73184,0.091304
820,-1.365618,1.34703,0.004761
821,-0.607702,0.889581,-0.110629
822,0.242083,0.621421,-0.110629
823,0.310985,0.11665,-0.125052
824,0.977033,0.274391,-0.110629
825,1.022967,0.227069,0.019185
826,0.150215,0.069328,0.07688
827,-1.250782,-0.261928,0.07688
828,-1.319684,-0.104187,0.033609
829,0.035379,0.290165,0.062456
830,0.885164,-0.309251,0.105728
831,0.379886,-0.798248,0.033609
832,-0.906275,-0.340799,-0.03851
833,-1.342651,0.085102,-0.067357
834,-0.653636,0.03778,-0.081781
835,-0.21726,-0.246154,-0.009662
836,-0.240227,0.826485,0.019185
837,0.058346,1.630964,0.019185
838,-0.469899,0.558325,0.033609
839,-0.400997,-0.940215,0.004761
840,0.517689,-1.665824,-0.052934
841,1.643081,-1.208375,-0.024086
842,0.058346,-0.214606,-0.125052
843,0.058346,0.984226,-0.096205
844,0.310985,0.716066,-0.024086
845,0.356919,-0.056865,-0.009662
846,-0.010555,-0.261928,-0.03851
847,-0.469899,0.242843,0.004761
848,0.058346,0.479454,0.004761
849,0.632525,-0.056865,-0.052934
850,0.448788,-0.435444,-0.024086
851,-0.676603,-0.703603,-0.052934
852,-0.975176,-0.861345,0.033609
853,-1.021111,-0.892893,0.07688
854,-0.814406,-0.104187,0.120151
855,-0.171326,-0.15151,0.07688
856,0.173182,0.179746,-0.067357
857,1.367475,1.520546,-0.052934
858,1.505278,1.26816,-0.052934
859,0.517689,0.148198,-0.03851
860,0.977033,-0.261928,0.07688
861,1.298573,-0.451218,0.048033
862,-0.010555,-0.561637,0.062456
863,-1.411553,0.022005,-0.03851
864,-0.240227,1.394353,-0.096205
865,0.67846,1.252386,-0.052934
866,1.022967,0.100876,-0.081781
867,-0.125391,-0.750926,-0.081781
868,-1.847929,-0.987537,-0.096205
869,-1.319684,-0.624733,-0.081781
870,-1.135947,-0.403895,-0.067357
871,-0.814406,0.053554,0.048033
872,0.265051,0.211295,0.062456
873,0.058346,-0.356573,0.062456
874,0.012412,-0.403895,0.062456
875,0.219116,0.416358,0.062456
876,-1.250782,0.716066,0.091304
877,-1.618257,0.621421,0.019185
878,0.127248,-0.167284,-0.052934
879,0.563624,-0.703603,-0.125052
880,1.711982,-0.924441,-0.052934
881,1.89572,-1.886661,-0.024086
882,1.826818,-1.807791,-0.052934
883,1.114836,-0.214606,0.048033
884,0.494722,1.189289,0.048033
885,-0.309129,2.577411,-0.009662
886,-1.411553,2.23038,-0.052934
887,-0.906275,0.763388,-0.067357
888,0.83923,-0.325025,-0.009662
889,1.597146,-0.782474,0.004761
890,0.862197,-0.530088,-0.03851
891,-0.446932,0.148198,-0.024086
892,-1.112979,0.400584,0.004761
893,-1.457487,0.195521,-0.024086
894,-0.492866,-0.23038,-0.03851
895,0.379886,-0.309251,-0.067357
896,0.931098,-0.072639,0.019185
897,0.356919,0.179746,0.134575
898,0.701427,-0.23038,0.062456
899,-0.010555,0.179746,0.004761
900,-0.584735,-0.577411,-0.067357
901,-0.653636,-0.782474,-0.052934
902,-0.309129,-0.782474,-0.096205
903,-0.355063,-0.624733,-0.1539
904,-0.309129,0.65297,-0.03851
905,0.012412,1.126193,0.07688
906,0.356919,0.274391,0.07688
907,-0.37803,-0.624733,0.019185
908,-1.135947,-1.413438,-0.052934
909,-0.722538,-0.514314,-0.03851
910,0.655492,0.668744,0.004761
911,-0.102424,0.747614,0.004761
912,-0.791439,0.337488,0.048033
913,-0.515833,-0.435444,0.091304
914,-0.263194,-0.84557,-0.03851
915,0.540657,-0.971763,-0.26929
916,0.724394,-0.056865,-0.197171
917,0.402854,0.889581,-0.081781
918,0.150215,1.157741,0.033609
919,0.977033,0.73184,0.062456
920,1.436376,0.179746,0.062456
921,0.977033,-0.025317,0.062456
922,-0.194293,-0.183058,0.019185
923,-1.319684,-0.214606,0.019185
924,-1.181881,0.069328,0.033609
925,-0.5388,0.069328,-0.009662
926,-0.400997,0.163972,-0.052934
927,0.10428,0.921129,0.048033
928,0.540657,1.110419,0.105728
929,0.058346,0.479454,0.062456
930,-0.745505,0.46368,0.033609
931,-0.584735,-0.056865,-0.009662
932,0.816263,-1.255697,-0.024086
933,2.148358,-1.586953,-0.110629
934,2.722538,-1.03486,-0.139476
935,1.022967,-0.577411,-0.110629
936,-0.929242,-0.530088,-0.052934
937,-1.687159,-0.798248,0.004761
938,-1.503421,-0.656281,0.033609
939,-0.860341,0.227069,0.07688
940,0.196149,0.65297,0.062456
941,0.517689,0.684518,-0.024086
942,0.379886,0.574099,-0.096205
943,0.701427,0.416358,-0.052934
944,0.265051,0.100876,0.004761
945,-0.607702,-0.183058,-0.024086
946,-1.572323,-0.372347,0.048033
947,-1.204848,-0.388121,0.033609
948,-1.319684,-0.119962,-0.009662
949,-1.342651,0.274391,-0.03851
950,0.035379,0.022005,-0.052934
951,1.803851,-0.640507,-0.081781
952,2.102424,-1.03486,-0.067357
953,0.931098,-0.892893,-0.125052
954,-0.148358,0.747614,0.033609
955,-0.630669,1.331256,0.134575
956,-0.21726,1.394353,0.062456
957,1.0,0.763388,-0.067357
958,0.196149,-0.719378,-0.096205
959,-0.263194,-0.482766,0.048033
960,0.265051,0.321713,0.134575
961,0.701427,0.794937,0.048033
962,0.150215,0.337488,-0.024086
963,-0.952209,0.258617,0.033609
964,-1.847929,0.069328,-0.009662
965,-0.860341,-0.482766,-0.081781
966,0.402854,-0.84557,-0.03851
967,1.505278,0.321713,0.120151
968,2.423964,0.258617,0.033609
969,0.425821,-0.309251,-0.03851
970,-1.457487,-0.940215,-0.009662
971,-0.952209,-0.908667,-0.024086
972,-0.676603,-1.366116,-0.110629
973,-0.423964,-0.309251,-0.096205
974,0.242083,1.331256,-0.096205
975,0.333952,0.684518,0.004761
976,0.127248,0.163972,0.019185
977,-0.010555,0.353262,-0.009662
978,-0.05649,0.353262,0.004761
979,-0.148358,0.38481,-0.009662
980,-0.21726,0.321713,-0.03851
981,-0.05649,0.053554,0.004761
982,-0.21726,-0.530088,-0.067357
983,0.379886,-0.640507,-0.096205
984,1.0,-0.514314,-0.052934
985,0.10428,-0.372347,-0.009662
986,-0.400997,-0.104187,-0.009662
987,-0.194293,0.03778,0.004761
988,-0.102424,0.006231,-0.03851
989,-0.194293,0.006231,-0.03851
990,-0.171326,-0.009543,-0.03851
991,-0.148358,0.085102,0.004761
992,-0.309129,0.03778,0.019185
993,-0.469899,-0.214606,-0.009662
994,-0.194293,-0.104187,0.004761
995,0.012412,-0.025317,-0.009662
996,0.127248,-0.056865,0.019185
997,0.081313,-0.072639,0.004761
998,-0.079457,-0.088413,-0.009662
999,-0.05649,-0.056865,-0.03851
1000,-0.102424,0.03778,0.019185
1001,-0.05649,0.03778,0.019185
1002,-0.033523,-0.025317,0.004761
1003,-0.21726,-0.167284,-0.03851
1004,-0.469899,-0.261928,0.004761
1005,-0.309129,-0.088413,0.062456
1006,-0.010555,-0.041091,0.048033
1007,0.081313,-0.246154,-0.081781
1008,0.081313,0.132424,-0.03851
1009,0.242083,0.03778,-0.024086
1010,0.127248,-0.041091,0.033609
1011,-0.010555,0.195521,0.062456
1012,-0.079457,0.11665,-0.009662
1013,-0.171326,-0.072639,0.019185
1014,-0.21726,-0.072639,-0.009662
1015,-0.148358,-0.104187,-0.03851
1016,-0.125391,-0.293477,-0.052934
1017,-0.033523,-0.104187,-0.03851
1018,0.058346,0.11665,-0.009662
1019,-0.171326,0.132424,-0.009662
1020,-0.355063,0.006231,-0.009662
1021,-0.355063,-0.104187,-0.024086
1022,-0.240227,-0.167284,-0.03851
1023,-0.148358,-0.277703,-0.009662
1024,0.310985,-0.072639,-0.024086
1025,0.517689,0.085102,-0.009662
1026,0.242083,0.069328,0.004761
1027,-0.079457,-0.041091,-0.009662
1028,-0.194293,-0.183058,-0.009662
1029,-0.171326,-0.372347,0.033609
1030,-0.286161,-0.277703,0.048033
1031,-0.263194,0.069328,0.033609
1032,-0.010555,-0.119962,0.004761
1033,0.196149,-0.056865,-0.067357
1034,0.471755,-0.072639,-0.03851
1035,0.379886,-0.167284,-0.024086
1036,0.196149,0.211295,0.004761
1037,0.150215,0.700292,-0.009662
1038,0.127248,0.605647,0.048033
1039,-0.05649,0.163972,-0.03851
1040,0.035379,0.163972,-0.024086
1041,0.196149,0.022005,0.048033
1042,-0.033523,-0.056865,-0.009662
1043,-0.102424,-0.088413,0.004761
1044,-0.194293,-0.261928,0.033609
1045,-0.286161,-0.325025,-0.024086
1046,-0.102424,-0.119962,0.004761
1047,-0.102424,-0.119962,-0.03851
1048,-0.125391,0.163972,-0.009662
1049,-0.148358,0.163972,0.033609
1050,-0.033523,-0.104187,-0.009662
1051,0.10428,-0.15151,-0.052934
1052,0.127248,-0.088413,-0.009662
1053,0.058346,0.022005,-0.009662
1054,-0.010555,-0.056865,0.004761
1055,-0.079457,-0.025317,0.019185
1056,-0.010555,0.069328,0.033609
1057,-0.033523,-0.056865,-0.009662
1058,-0.079457,-0.104187,-0.03851
1059,-0.033523,0.069328,0.004761
1060,0.012412,-0.104187,0.004761
1061,-0.010555,-0.119962,-0.009662
1062,-0.010555,-0.072639,0.004761
1063,-0.010555,-0.025317,0.019185
1064,-0.010555,-0.072639,0.033609
1065,-0.079457,-0.088413,0.019185
1066,0.035379,0.03778,-0.024086
1067,-0.033523,0.053554,-0.009662
1068,-0.033523,0.022005,-0.024086
1069,-0.010555,-0.025317,-0.024086
1070,-0.010555,-0.009543,-0.067357
1071,0.012412,-0.009543,0.004761
1072,-0.033523,-0.041091,-0.024086
1073,0.035379,-0.041091,-0.03851
1074,0.012412,0.006231,-0.03851
1075,-0.079457,-0.009543,-0.024086
1076,-0.079457,-0.088413,0.004761
1077,0.035379,-0.104187,0.004761
1078,0.081313,-0.041091,0.033609
1079,0.058346,-0.009543,0.048033
1080,-0.033523,-0.025317,0.019185
1081,-0.05649,-0.056865,-0.009662
1082,-0.102424,-0.072639,-0.03851
1083,-0.05649,0.006231,-0.03851
1084,0.012412,0.03778,-0.03851
1085,0.012412,0.022005,-0.024086
1086,-0.05649,-0.009543,-0.024086
1087,-0.079457,0.006231,-0.009662
1088,-0.010555,0.03778,0.004761
1089,0.012412,0.03778,0.033609
1090,-0.033523,0.03778,0.048033
1091,-0.05649,-0.009543,0.004761
1092,-0.033523,-0.056865,0.004761
1093,-0.010555,-0.025317,-0.009662
1094,-0.033523,-0.025317,-0.009662
1095,-0.033523,-0.025317,0.004761
1096,-0.010555,-0.009543,0.004761
1097,0.012412,-0.025317,0.004761
1098,0.012412,0.022005,0.004761
1099,0.012412,0.022005,0.004761
1100,-0.010555,-0.009543,0.004761
1101,0.035379,-0.041091,0.004761
1102,0.012412,-0.009543,0.019185
1103,0.012412,0.022005,0.004761
1104,0.012412,0.022005,0.019185
1105,-0.010555,-0.009543,-0.009662
1106,0.012412,-0.056865,0.004761
1107,-0.010555,-0.041091,-0.009662
1108,0.012412,0.085102,-0.009662
1109,-0.010555,0.053554,0.004761
1110,-0.05649,-0.041091,0.019185
1111,-0.05649,-0.041091,-0.024086
1112,-0.05649,-0.025317,-0.009662
1113,-0.033523,-0.009543,-0.024086
1114,-0.010555,0.006231,-0.03851
1115,-0.033523,0.022005,-0.03851
1116,-0.010555,0.053554,-0.024086
1117,-0.033523,0.11665,-0.009662
1118,-0.05649,0.085102,-0.009662
1119,-0.033523,-0.009543,-0.024086
1120,0.012412,-0.009543,-0.024086
1121,-0.033523,-0.056865,-0.009662
1122,0.012412,-0.104187,-0.009662
1123,-0.05649,-0.025317,0.004761
1124,-0.010555,0.022005,-0.024086
1125,-0.033523,-0.025317,0.004761
1126,-0.05649,-0.119962,-0.009662
1127,0.012412,-0.119962,0.004761
1128,0.035379,-0.104187,-0.009662
1129,-0.010555,-0.104187,-0.009662
1130,-0.033523,-0.119962,-0.024086
1131,0.035379,0.132424,-0.009662
1132,0.058346,0.258617,-0.009662
1133,0.058346,0.163972,-0.009662
1134,-0.010555,0.085102,-0.009662
1135,-0.010555,0.053554,0.004761
1136,0.081313,0.006231,-0.024086
1137,-0.033523,0.006231,-0.009662
1138,0.012412,0.006231,-0.009662
1139,0.012412,0.006231,0.004761
1140,-0.033523,-0.072639,-0.009662
1141,-0.033523,-0.135736,-0.009662
1142,-0.05649,-0.056865,-0.024086
1143,0.012412,-0.041091,0.004761
1144,-0.010555,0.022005,0.033609
1145,-0.010555,0.100876,0.033609
1146,-0.033523,0.163972,0.033609
1147,0.012412,0.100876,0.004761
1148,-0.079457,0.069328,0.019185
1149,-0.079457,-0.056865,0.019185
1150,-0.05649,-0.198832,-0.024086
1151,0.012412,-0.198832,-0.024086
1152,0.081313,-0.056865,-0.009662
1153,-0.033523,-0.135736,-0.067357
1154,-0.05649,0.11665,-0.03851
1155,0.081313,0.321713,-0.024086
1156,-0.010555,0.195521,-0.024086
1157,0.012412,0.053554,0.019185
1158,0.012412,0.006231,0.019185
1159,0.035379,0.006231,0.004761
1160,-0.010555,-0.072639,0.004761
1161,-0.010555,-0.088413,0.019185
1162,0.035379,-0.056865,0.033609
1163,-0.010555,-0.041091,-0.009662
1164,-0.010555,-0.041091,-0.009662
1165,0.012412,-0.041091,-0.009662
1166,-0.010555,-0.025317,0.004761
1167,0.012412,-0.041091,-0.009662
1168,0.035379,-0.056865,-0.009662
1169,0.012412,-0.104187,-0.009662
1170,-0.010555,-0.056865,-0.009662
1171,0.012412,-0.025317,-0.009662
1172,-0.010555,0.053554,-0.024086
1173,-0.010555,0.053554,0.048033
1174,0.012412,0.022005,-0.009662
1175,0.012412,-0.009543,0.019185
1176,0.081313,-0.041091,0.004761
1177,-0.010555,-0.025317,-0.009662
1178,0.058346,-0.009543,-0.009662
1179,-0.010555,-0.009543,-0.009662
1180,0.012412,-0.041091,-0.024086
1181,-0.010555,-0.025317,0.048033
1182,-0.05649,-0.025317,-0.024086
1183,0.012412,-0.025317,0.004761
1184,0.012412,-0.025317,0.004761
1185,-0.05649,-0.041091,0.004761
1186,-0.033523,-0.009543,-0.009662
1187,-0.033523,-0.009543,-0.009662
1188,-0.05649,-0.025317,-0.024086
1189,-0.033523,-0.041091,-0.009662
1190,-0.010555,-0.009543,-0.009662
1191,0.035379,-0.041091,-0.009662
1192,-0.033523,-0.025317,-0.009662
1193,0.035379,-0.041091,0.004761
1194,-0.010555,-0.025317,-0.009662
1195,0.012412,-0.009543,-0.009662
1196,-0.05649,-0.009543,-0.009662
1197,0.012412,-0.009543,0.004761
1198,0.035379,-0.009543,0.004761
1199,0.058346,0.022005,0.004761
1200,-0.010555,-0.009543,0.004761
1201,-0.010555,-0.009543,-0.009662
1202,0.012412,-0.009543,0.004761
1203,0.035379,0.006231,0.004761
1204,-0.010555,-0.041091,0.004761
1205,0.035379,-0.025317,-0.024086
1206,0.035379,-0.009543,-0.024086
1207,0.012412,-0.009543,0.004761
1208,0.035379,-0.009543,0.004761
1209,0.035379,-0.041091,0.004761
1210,0.035379,-0.025317,0.019185
1211,-0.033523,-0.041091,-0.009662
1212,-0.010555,-0.025317,-0.024086
1213,-0.05649,-0.041091,-0.024086
1214,0.035379,-0.009543,-0.009662
1215,-0.033523,-0.025317,-0.009662
1216,-0.010555,-0.009543,0.004761
1217,-0.033523,-0.025317,0.004761
1218,0.012412,-0.009543,0.004761
1219,-0.033523,0.006231,-0.024086
1220,-0.010555,-0.009543,-0.009662
1221,-0.05649,-0.025317,-0.009662
1222,-0.010555,-0.009543,-0.009662
1223,-0.033523,-0.025317,-0.009662
1224,-0.05649,-0.009543,-0.009662
1225,0.035379,-0.009543,0.004761
1226,0.012412,-0.009543,0.004761
1227,-0.010555,0.022005,0.004761
1228,0.012412,0.022005,0.004761
1229,-0.033523,-0.009543,0.004761
1230,-0.010555,-0.009543,0.004761
1231,-0.010555,-0.056865,-0.009662
1232,-0.033523,-0.025317,-0.009662
1233,0.035379,-0.041091,-0.009662
1234,-0.033523,-0.009543,0.004761
1235,0.058346,-0.025317,-0.009662
1236,-0.010555,-0.009543,0.004761
1237,-0.010555,-0.041091,0.019185
1238,0.058346,-0.041091,0.004761
1239,0.012412,-0.041091,0.004761
1240,0.035379,0.022005,0.004761
1241,0.058346,0.022005,0.019185
1242,0.035379,0.03778,0.004761
1243,0.012412,0.03778,0.004761
1244,0.012412,-0.025317,-0.009662
1245,0.035379,-0.056865,0.019185
1246,-0.033523,-0.072639,0.004761
1247,-0.010555,-0.056865,-0.009662
1248,-0.079457,-0.041091,-0.009662
1249,0.012412,-0.009543,0.004761
1250,-0.033523,-0.009543,-0.009662
1251,-0.010555,0.006231,0.004761
1252,-0.010555,0.03778,0.033609
1253,0.012412,0.03778,0.004761
1254,-0.05649,0.006231,-0.009662
1255,-0.010555,0.022005,-0.024086
1256,-0.010555,-0.009543,-0.03851
1257,-0.010555,-0.009543,-0.024086
1258,-0.010555,-0.041091,-0.009662
1259,-0.010555,-0.009543,-0.024086
1260,-0.033523,-0.025317,-0.024086
1261,-0.010555,-0.025317,-0.009662
1262,-0.010555,-0.025317,0.019185
1263,-0.010555,-0.009543,-0.009662
1264,-0.010555,0.006231,0.019185
1265,0.035379,0.022005,0.019185
1266,-0.010555,0.006231,0.019185
1267,0.035379,-0.009543,-0.009662
1268,0.012412,-0.041091,-0.024086
1269,-0.010555,-0.025317,-0.024086
1270,-0.010555,-0.025317,-0.03851
1271,-0.033523,-0.025317,-0.024086
1272,0.058346,-0.025317,-0.009662
1273,0.035379,0.006231,0.004761
1274,0.012412,-0.025317,0.004761
1275,0.012412,-0.009543,0.004761
1276,0.012412,-0.009543,0.004761
1277,0.012412,-0.009543,0.004761
1278,-0.010555,-0.025317,-0.009662
1279,-0.010555,-0.009543,0.004761
1280,0.012412,-0.025317,0.004761
1281,0.012412,-0.072639,-0.009662
1282,0.012412,-0.025317,-0.009662
1283,-0.033523,0.022005,0.019185
1284,0.012412,0.022005,-0.024086
1285,-0.010555,0.006231,0.004761
1286,0.012412,-0.025317,0.004761
1287,-0.010555,-0.025317,0.004761
1288,-0.05649,-0.025317,0.019185
1289,-0.010555,-0.009543,0.004761
1290,0.012412,-0.009543,-0.009662
1291,-0.033523,-0.009543,0.019185
1292,0.012412,-0.025317,0.004761
1293,-0.033523,0.006231,0.004761
1294,-0.010555,-0.009543,0.019185
1295,0.012412,-0.025317,0.004761
1296,-0.033523,-0.025317,-0.009662
1297,0.012412,0.006231,-0.009662
1298,-0.05649,-0.009543,-0.024086
1299,-0.033523,-0.009543,0.004761
1300,0.012412,-0.009543,0.019185
1301,-0.010555,-0.009543,0.019185
1302,-0.033523,-0.009543,-0.009662
1303,-0.010555,-0.025317,-0.009662
1304,0.012412,0.006231,0.004761
1305,0.081313,-0.009543,-0.009662
1306,0.012412,-0.009543,0.004761
1307,0.035379,-0.041091,-0.009662
1308,-0.010555,-0.025317,-0.009662
1309,-0.05649,-0.041091,0.004761
1310,-0.010555,-0.025317,0.004761
1311,0.035379,-0.009543,0.019185
1312,0.058346,-0.009543,0.033609
1313,-0.010555,-0.009543,0.019185
1314,-0.033523,-0.041091,0.004761
1315,-0.033523,0.006231,0.019185
1316,0.012412,-0.009543,0.004761
1317,0.012412,-0.009543,-0.009662
1318,-0.05649,-0.025317,0.004761
1319,-0.05649,-0.009543,0.004761
1320,-0.05649,0.006231,0.004761
1321,-0.010555,-0.025317,-0.009662
1322,-0.05649,-0.009543,0.004761
1323,-0.010555,-0.025317,0.004761
1324,0.012412,-0.009543,-0.009662
1325,-0.010555,-0.009543,0.004761
1326,-0.05649,-0.009543,-0.009662
1327,-0.010555,-0.009543,0.019185
1328,0.035379,-0.009543,0.004761
1329,-0.010555,-0.025317,0.019185
1330,0.012412,-0.009543,-0.009662
1331,0.035379,-0.009543,-0.009662
1332,0.012412,0.006231,0.004761
1333,-0.033523,0.006231,0.019185
1334,-0.079457,0.006231,-0.009662
1335,-0.010555,-0.025317,0.004761
1336,0.012412,-0.009543,-0.024086
1337,0.035379,-0.009543,0.004761
1338,0.058346,0.006231,0.004761
1339,0.012412,-0.025317,0.004761
1340,0.012412,-0.009543,-0.024086
1341,-0.010555,-0.009543,0.019185
1342,-0.033523,-0.025317,0.004761
1343,0.081313,-0.009543,0.004761
1344,-0.010555,-0.009543,0.004761
1345,-0.033523,-0.025317,-0.024086
1346,-0.05649,-0.009543,0.004761
1347,0.012412,-0.009543,0.004761
1348,0.012412,-0.009543,0.004761
1349,0.035379,-0.009543,0.004761
1350,-0.033523,0.006231,0.004761
1351,0.058346,0.006231,0.019185
1352,-0.033523,-0.025317,0.019185
1353,0.012412,-0.009543,0.019185
1354,-0.033523,-0.009543,0.019185
1355,0.012412,-0.009543,0.004761
1356,-0.05649,-0.025317,-0.009662
1357,-0.05649,-0.041091,-0.03851
1358,-0.05649,-0.041091,-0.024086
1359,-0.033523,-0.041091,-0.009662
1360,-0.05649,-0.041091,-0.009662
1361,-0.05649,-0.025317,-0.009662
1362,-0.033523,-0.009543,-0.009662
1363,0.012412,-0.009543,-0.024086
1364,-0.010555,-0.025317,-0.009662
1365,-0.010555,-0.009543,0.004761
1366,0.012412,0.006231,0.019185
1367,0.012412,0.006231,0.033609
1368,-0.010555,-0.009543,0.004761
1369,-0.033523,-0.025317,-0.024086
1370,0.035379,-0.009543,0.004761
1371,0.058346,-0.009543,0.004761
1372,0.035379,-0.009543,0.019185
1373,0.012412,-0.009543,-0.009662
1374,0.012412,-0.025317,-0.024086
1375,0.012412,-0.009543,0.004761
1376,-0.010555,-0.025317,0.004761
1377,-0.010555,-0.041091,0.019185
1378,0.058346,-0.009543,-0.009662
1379,0.058346,0.006231,0.004761
1380,-0.010555,-0.009543,0.019185
1381,-0.033523,-0.025317,0.019185
1382,0.012412,0.006231,0.004761
1383,-0.033523,0.006231,0.004761
1384,0.012412,-0.009543,-0.024086
1385,-0.033523,-0.009543,-0.009662
1386,-0.05649,-0.009543,0.004761
1387,-0.010555,-0.009543,-0.009662
1388,0.012412,-0.009543,0.004761
1389,-0.05649,-0.009543,0.019185
1390,-0.033523,-0.025317,0.004761
1391,-0.010555,-0.025317,0.004761
1392,0.012412,0.006231,0.004761
1393,-0.010555,-0.009543,-0.009662
1394,-0.010555,-0.009543,0.004761
1395,-0.010555,-0.009543,-0.009662
1396,-0.033523,-0.041091,0.004761
1397,0.012412,-0.009543,0.019185
1398,0.012412,0.022005,0.019185
1399,-0.010555,-0.009543,0.019185
1400,0.012412,-0.009543,0.019185
1401,-0.010555,0.006231,0.004761
1402,0.012412,-0.009543,0.004761
1403,0.035379,-0.009543,0.033609
1404,0.058346,-0.009543,0.019185
1405,0.058346,-0.025317,0.033609
1406,0.012412,-0.009543,0.033609
1407,-0.010555,-0.025317,0.004761
1408,-0.010555,-0.025317,0.004761
1409,0.058346,-0.025317,-0.009662
1410,0.012412,-0.025317,-0.024086
1411,-0.033523,-0.041091,-0.009662
1412,0.035379,-0.009543,-0.009662
1413,0.012412,-0.009543,-0.03851
1414,-0.010555,-0.041091,-0.024086
1415,0.058346,-0.041091,-0.024086
1416,-0.010555,-0.041091,-0.009662
1417,-0.05649,-0.025317,-0.009662
1418,-0.033523,0.006231,-0.009662
1419,-0.010555,-0.009543,0.004761
1420,-0.05649,-0.009543,0.004761
1421,-0.05649,-0.009543,0.004761
1422,-0.033523,-0.009543,0.004761
1423,-0.010555,0.022005,0.019185
1424,-0.010555,-0.025317,0.004761
1425,-0.010555,-0.009543,0.004761
1426,-0.010555,-0.025317,0.019185
1427,-0.010555,-0.009543,0.004761
1428,-0.010555,-0.009543,0.019185
1429,-0.010555,-0.025317,0.004761
1430,-0.033523,-0.009543,0.004761
1431,-0.010555,-0.009543,0.019185
1432,-0.010555,-0.009543,0.004761
1433,0.012412,-0.009543,0.004761
1434,0.058346,-0.025317,0.004761
1435,0.035379,-0.009543,-0.009662
1436,0.012412,-0.025317,-0.009662
1437,-0.010555,-0.009543,0.004761
1438,0.012412,-0.009543,0.004761
1439,-0.033523,-0.025317,-0.024086
1440,-0.010555,-0.025317,0.004761
1441,0.012412,-0.009543,0.019185
1442,0.012412,0.006231,0.004761
1443,0.035379,0.006231,0.019185
1444,0.035379,0.006231,0.019185
1445,0.058346,0.006231,0.019185
1446,-0.010555,-0.025317,0.004761
1447,0.012412,0.006231,-0.009662
1448,0.035379,-0.009543,0.004761
1449,0.012412,-0.009543,0.004761
1450,0.012412,0.006231,0.004761
1451,-0.033523,0.006231,-0.024086
1452,-0.033523,0.022005,-0.009662
1453,0.012412,-0.009543,-0.024086
1454,-0.010555,-0.056865,-0.009662
1455,-0.079457,-0.072639,0.004761
1456,0.012412,-0.072639,0.004761
1457,0.012412,-0.009543,0.004761
1458,-0.033523,-0.009543,-0.009662
1459,0.012412,-0.025317,-0.009662
1460,-0.033523,-0.025317,0.004761
1461,-0.033523,-0.025317,0.004761
1462,-0.05649,-0.025317,0.033609
1463,0.012412,-0.025317,0.019185
1464,0.012412,-0.009543,0.019185
1465,0.012412,-0.025317,0.004761
1466,-0.033523,-0.009543,0.004761
1467,0.012412,-0.009543,0.004761
1468,0.035379,-0.009543,0.004761
1469,0.012412,-0.025317,0.004761
1470,0.035379,-0.025317,-0.009662
1471,0.012412,0.022005,0.004761
1472,0.058346,0.006231,0.004761
1473,0.035379,-0.025317,0.004761
1474,0.012412,0.006231,0.004761
1475,0.012412,-0.025317,0.004761
1476,0.10428,0.006231,-0.009662
1477,-0.010555,-0.025317,-0.009662
1478,-0.010555,-0.009543,-0.03851
1479,0.012412,-0.009543,-0.024086
1480,0.012412,-0.009543,-0.009662
1481,0.012412,-0.009543,0.019185
1482,0.058346,0.006231,0.019185
1483,0.012412,0.006231,0.033609
1484,0.058346,-0.009543,-0.009662
1485,-0.010555,-0.025317,0.004761
1486,-0.010555,-0.025317,0.004761
1487,-0.010555,-0.025317,0.004761
1488,-0.010555,0.022005,0.019185
1489,-0.010555,-0.025317,0.004761
1490,-0.033523,-0.041091,-0.009662
1491,-0.033523,-0.025317,-0.009662
1492,0.012412,-0.009543,-0.009662
1493,-0.010555,-0.041091,0.004761
1494,-0.010555,-0.009543,-0.024086
1495,0.012412,-0.009543,-0.009662
1496,0.012412,-0.025317,-0.009662
1497,0.012412,0.006231,0.004761
1498,0.012412,-0.009543,-0.009662
1499,0.012412,-0.009543,0.004761
1500,0.035379,-0.025317,0.004761
1501,0.058346,-0.009543,0.019185
1502,0.012412,-0.009543,0.004761
1503,0.012412,0.006231,-0.03851
1504,0.012412,0.006231,-0.009662
1505,0.035379,-0.025317,-0.009662
1506,0.012412,-0.009543,0.004761
1507,0.035379,-0.025317,0.004761
1508,0.035379,-0.009543,-0.009662
1509,0.012412,-0.025317,0.019185
1510,-0.033523,-0.009543,0.004761
1511,0.035379,-0.009543,0.004761
1512,0.035379,-0.009543,0.019185
1513,0.035379,-0.009543,0.004761
1514,0.012412,-0.009543,0.004761
1515,0.035379,-0.025317,0.019185
1516,-0.010555,-0.009543,-0.009662
1517,-0.05649,-0.009543,0.019185
1518,-0.010555,-0.025317,-0.009662
1519,-0.033523,0.006231,0.019185
1520,0.035379,0.006231,0.004761
1521,-0.010555,-0.009543,0.019185
1522,-0.033523,-0.009543,0.004761
1523,0.012412,-0.009543,0.004761
1524,-0.033523,-0.025317,0.004761
1525,-0.010555,-0.009543,0.019185
1526,-0.010555,-0.009543,-0.009662
1527,0.012412,-0.009543,-0.009662
1528,-0.033523,-0.009543,0.004761
1529,-0.05649,0.006231,0.019185
1530,-0.010555,-0.009543,0.019185
1531,0.012412,0.006231,0.019185
1532,-0.033523,-0.009543,0.019185
1533,-0.010555,0.006231,0.004761
1534,0.035379,-0.009543,0.004761
1535,0.012412,-0.025317,0.019185
1536,0.035379,-0.025317,0.019185
1537,0.012412,0.006231,0.004761
1538,-0.033523,-0.025317,0.004761
1539,0.012412,-0.025317,-0.009662
1540,0.012412,-0.009543,0.004761
1541,0.012412,-0.025317,0.004761
1542,-0.05649,-0.009543,0.019185
1543,0.058346,-0.025317,-0.009662
1544,-0.033523,-0.009543,0.004761
1545,-0.010555,-0.025317,0.019185
1546,0.012412,-0.009543,0.004761
1547,0.035379,-0.025317,-0.009662
1548,0.012412,-0.025317,0.019185
1549,0.012412,0.006231,0.019185
1550,-0.010555,-0.009543,0.019185
1551,0.058346,-0.009543,0.019185
1552,-0.010555,0.006231,0.004761
1553,-0.033523,-0.025317,-0.024086
1554,0.012412,-0.025317,-0.03851
1555,-0.033523,-0.041091,-0.024086
1556,-0.079457,-0.025317,0.004761
1557,-0.010555,-0.025317,0.019185
1558,-0.010555,-0.025317,0.004761
1559,-0.033523,-0.009543,0.004761
1560,-0.033523,-0.009543,0.004761
1561,-0.010555,-0.025317,0.004761
1562,0.012412,-0.041091,0.004761
1563,0.012412,0.006231,0.004761
1564,-0.010555,-0.009543,0.004761
1565,0.035379,0.006231,0.019185
1566,-0.010555,-0.009543,0.004761
1567,0.058346,-0.025317,-0.009662
1568,0.012412,0.006231,0.019185
1569,0.035379,0.006231,0.019185
1570,0.058346,0.006231,0.004761
1571,0.012412,-0.009543,0.019185
1572,0.012412,-0.009543,-0.009662
1573,0.012412,-0.009543,-0.009662
1574,0.035379,-0.009543,0.004761
1575,0.035379,-0.009543,-0.009662
1576,0.012412,-0.025317,-0.009662
1577,-0.010555,-0.041091,-0.009662
1578,0.012412,-0.025317,0.004761
1579,-0.033523,-0.025317,0.004761
1580,-0.010555,-0.025317,0.019185
1581,-0.010555,-0.009543,0.033609
1582,0.012412,-0.009543,0.019185
1583,0.012412,0.006231,0.019185
1584,0.012412,-0.025317,0.004761
1585,-0.033523,-0.009543,0.004761
1586,-0.010555,-0.009543,-0.009662
1587,-0.010555,-0.009543,0.004761
1588,-0.010555,-0.025317,-0.009662
1589,-0.010555,0.006231,0.004761
1590,0.012412,-0.025317,0.004761
1591,0.012412,-0.009543,-0.024086
1592,-0.010555,-0.025317,-0.009662
1593,-0.010555,-0.025317,-0.024086
1594,0.058346,-0.009543,0.033609
1595,-0.05649,0.006231,0.019185
1596,0.035379,-0.009543,0.004761
1597,0.012412,0.006231,-0.009662
1598,0.012412,-0.025317,0.004761
1599,0.012412,0.006231,0.019185
1600,0.035379,-0.009543,0.019185
1601,0.012412,-0.025317,0.004761
1602,0.012412,-0.025317,-0.009662
1603,0.012412,-0.009543,-0.009662
1604,0.012412,-0.009543,-0.009662
1605,0.035379,-0.025317,-0.009662
1606,0.058346,-0.009543,-0.009662
1607,0.012412,-0.025317,-0.009662
1608,0.035379,0.006231,-0.009662
1609,0.058346,-0.009543,-0.009662
1610,0.012412,-0.009543,0.019185
1611,0.012412,-0.009543,0.019185
1612,0.012412,-0.009543,0.019185
1613,0.012412,-0.025317,0.019185
1614,0.035379,0.006231,0.004761
1615,0.012412,-0.009543,0.004761
1616,-0.033523,-0.041091,0.004761
1617,-0.010555,-0.009543,0.004761
1618,-0.010555,-0.009543,-0.024086
1619,-0.010555,-0.025317,-0.03851
1620,-0.05649,-0.025317,-0.024086
1621,0.012412,-0.009543,0.004761
1622,0.012412,0.006231,-0.009662
1623,-0.010555,0.006231,0.033609
1624,-0.010555,-0.009543,0.019185
1625,0.012412,-0.025317,0.004761
1626,-0.033523,-0.009543,-0.024086
1627,-0.079457,-0.009543,-0.009662
1628,-0.05649,-0.009543,-0.024086
1629,-0.05649,-0.025317,-0.024086
1630,-0.033523,0.006231,-0.024086
1631,-0.033523,-0.025317,0.004761
1632,0.012412,-0.009543,0.004761
1633,0.058346,-0.009543,0.033609
1634,0.035379,-0.009543,-0.009662
1635,-0.010555,-0.009543,-0.009662
1636,0.035379,-0.009543,0.004761
1637,0.081313,-0.009543,0.004761
1638,-0.010555,-0.056865,-0.009662
1639,-0.033523,-0.025317,-0.009662
1640,-0.010555,-0.025317,-0.009662
1641,-0.010555,-0.009543,0.004761
1642,0.012412,-0.009543,0.019185
1643,-0.010555,-0.025317,0.019185
1644,0.035379,-0.009543,0.019185
1645,0.012412,-0.025317,0.004761
1646,0.012412,-0.025317,0.004761
1647,-0.033523,-0.025317,0.004761
1648,0.035379,0.006231,0.048033
1649,0.012412,-0.025317,0.004761
1650,-0.010555,-0.009543,0.004761
1651,-0.010555,-0.025317,0.004761
1652,0.035379,-0.009543,0.004761
1653,0.012412,-0.009543,0.004761
1654,-0.010555,-0.009543,0.004761
1655,-0.033523,0.006231,0.004761
1656,0.012412,-0.009543,0.004761
1657,-0.033523,-0.009543,0.019185
1658,-0.033523,-0.009543,0.004761
1659,-0.125391,-0.009543,0.019185
1660,0.012412,-0.025317,-0.009662
1661,-0.033523,-0.009543,-0.009662
1662,-0.05649,-0.025317,0.004761
1663,0.012412,-0.009543,0.004761
1664,0.012412,-0.025317,0.004761
1665,0.012412,-0.009543,0.004761
1666,-0.033523,-0.025317,-0.009662
1667,-0.010555,-0.009543,0.004761
1668,0.058346,-0.009543,0.004761
1669,0.035379,0.006231,0.004761
1670,0.012412,0.006231,0.004761
1671,-0.010555,0.006231,0.019185
1672,0.035379,-0.009543,0.004761
1673,0.012412,-0.009543,0.004761
1674,0.035379,-0.025317,-0.009662
1675,-0.010555,-0.009543,0.004761
1676,0.058346,0.006231,-0.009662
1677,0.012412,-0.009543,-0.009662
1678,0.012412,-0.009543,0.004761
1679,-0.05649,-0.009543,0.004761
1680,0.035379,0.006231,0.019185
1681,0.012412,0.006231,0.004761
1682,-0.05649,-0.025317,-0.009662
1683,0.081313,-0.025317,-0.009662
1684,0.012412,-0.009543,-0.009662
1685,-0.010555,-0.009543,-0.024086
1686,-0.033523,-0.009543,-0.009662
1687,-0.010555,-0.025317,-0.009662
1688,0.058346,0.006231,0.004761
1689,-0.033523,-0.025317,0.004761
1690,-0.010555,-0.009543,0.019185
1691,-0.033523,0.006231,0.004761
1692,0.012412,-0.025317,0.019185
1693,-0.05649,-0.009543,0.004761
1694,-0.033523,0.006231,0.019185
1695,0.012412,-0.009543,0.004761
1696,0.012412,-0.009543,0.019185
1697,-0.010555,0.022005,0.004761
1698,-0.010555,0.006231,0.004761
1699,-0.010555,-0.009543,0.004761
1700,-0.010555,0.006231,0.004761
1701,-0.010555,-0.009543,-0.009662
1702,0.012412,-0.009543,-0.024086
1703,0.035379,-0.009543,-0.024086
1704,0.012412,-0.025317,-0.024086
1705,-0.010555,-0.041091,-0.03851
1706,-0.033523,-0.009543,-0.024086
1707,0.058346,-0.009543,0.004761
1708,0.035379,0.006231,0.019185
1709,0.012412,0.006231,0.033609
1710,0.058346,0.006231,0.004761
1711,0.058346,-0.025317,0.004761
1712,0.035379,-0.009543,0.019185
1713,-0.05649,-0.009543,0.019185
1714,0.058346,-0.009543,0.019185
1715,0.012412,-0.009543,0.004761
1716,0.012412,-0.041091,-0.009662
1717,-0.033523,-0.009543,-0.009662
1718,0.012412,-0.025317,-0.009662
1719,0.035379,-0.009543,-0.024086
1720,-0.010555,0.006231,-0.024086
1721,-0.033523,-0.041091,-0.024086
1722,0.035379,-0.041091,-0.009662
1723,0.012412,-0.025317,0.019185
1724,0.012412,-0.009543,0.004761
1725,-0.033523,-0.025317,0.019185
1726,-0.033523,-0.009543,0.004761
1727,0.012412,-0.025317,-0.009662
1728,-0.033523,-0.009543,0.004761
1729,-0.010555,-0.009543,0.019185
1730,-0.033523,-0.025317,0.004761
1731,0.012412,0.006231,0.004761
1732,0.035379,0.006231,0.004761
1733,-0.05649,0.006231,0.004761
1734,-0.010555,-0.025317,-0.009662
1735,-0.010555,-0.009543,-0.052934
1736,0.012412,-0.041091,-0.024086
1737,-0.033523,-0.025317,-0.024086
1738,-0.033523,-0.009543,0.004761
1739,0.035379,0.006231,0.033609
1740,0.012412,0.006231,0.019185
1741,0.012412,-0.009543,0.019185
1742,0.035379,0.006231,0.004761
1743,0.035379,-0.025317,0.004761
1744,-0.033523,-0.009543,0.004761
1745,0.035379,-0.009543,0.004761
1746,0.035379,-0.009543,0.019185
1747,0.035379,-0.009543,-0.009662
1748,-0.033523,-0.009543,0.004761
1749,0.012412,0.006231,-0.009662
1750,0.012412,-0.009543,0.004761
1751,0.012412,-0.009543,0.004761
1752,-0.033523,-0.025317,0.004761
1753,-0.033523,-0.009543,0.004761
1754,0.035379,-0.009543,0.004761
1755,0.035379,-0.025317,0.004761
1756,0.012412,-0.009543,-0.009662
1757,-0.033523,-0.025317,0.004761
1758,-0.010555,-0.009543,-0.009662
1759,-0.010555,-0.009543,0.004761
1760,-0.010555,-0.009543,0.004761
1761,-0.033523,-0.025317,0.004761
1762,0.012412,-0.009543,0.004761
1763,-0.010555,-0.025317,0.004761
1764,-0.05649,0.006231,0.004761
1765,-0.033523,0.006231,0.019185
1766,-0.033523,0.006231,0.004761
1767,-0.010555,-0.009543,0.019185
1768,-0.079457,-0.025317,0.019185
1769,0.012412,-0.009543,-0.009662
1770,0.012412,-0.025317,-0.024086
1771,0.035379,-0.009543,0.004761
1772,-0.033523,-0.025317,-0.009662
1773,-0.033523,-0.009543,-0.009662
1774,0.012412,0.006231,0.019185
1775,0.012412,0.006231,0.019185
1776,0.012412,-0.025317,0.004761
1777,0.012412,0.069328,-0.009662
1778,0.058346,-0.009543,0.004761
1779,0.035379,-0.009543,-0.009662
1780,0.012412,-0.009543,-0.009662
1781,0.035379,-0.009543,-0.009662
1782,0.012412,-0.009543,0.004761
1783,-0.010555,0.006231,-0.009662
1784,-0.010555,0.006231,0.019185
1785,0.012412,0.006231,0.004761
1786,-0.010555,-0.009543,-0.009662
1787,-0.010555,-0.025317,-0.009662
1788,-0.033523,-0.009543,0.004761
1789,-0.010555,-0.009543,-0.009662
1790,0.035379,-0.041091,0.004761
1791,0.012412,0.006231,-0.024086
1792,-0.010555,-0.025317,0.004761
1793,0.012412,0.006231,0.004761
1794,-0.033523,-0.025317,0.004761
1795,-0.010555,-0.009543,-0.009662
1796,-0.05649,-0.009543,0.004761
1797,0.035379,0.006231,0.019185
1798,-0.010555,0.006231,0.004761
1799,-0.010555,-0.009543,0.004761
1800,-0.010555,-0.009543,0.004761
1801,-0.010555,0.006231,-0.009662
1802,0.012412,0.006231,-0.009662
1803,-0.033523,-0.009543,-0.024086
1804,-0.010555,-0.009543,-0.009662
1805,-0.033523,-0.025317,0.004761
1806,0.035379,-0.009543,0.004761
1807,0.012412,-0.009543,-0.024086
1808,-0.010555,-0.025317,-0.024086
1809,0.012412,-0.025317,-0.009662
1810,-0.010555,0.006231,0.004761
1811,-0.033523,0.006231,0.004761
1812,0.012412,0.006231,-0.009662
1813,0.058346,-0.025317,0.004761
1814,-0.010555,-0.009543,0.004761
1815,0.035379,-0.025317,0.004761
1816,0.035379,-0.025317,0.019185
1817,0.012412,-0.009543,-0.009662
1818,-0.010555,-0.009543,-0.024086
1819,0.012412,-0.009543,-0.009662
1820,-0.05649,0.022005,-0.009662
1821,-0.010555,-0.009543,0.004761
1822,-0.010555,0.006231,0.004761
1823,0.012412,-0.009543,0.004761
1824,-0.033523,0.006231,0.004761
1825,0.012412,-0.009543,0.004761
1826,0.012412,0.006231,0.033609
1827,-0.010555,-0.009543,0.004761
1828,0.012412,0.006231,0.004761
1829,0.012412,-0.025317,-0.009662
1830,0.012412,-0.025317,0.004761
1831,-0.033523,-0.009543,0.004761
1832,0.012412,-0.025317,0.004761
1833,0.012412,0.006231,0.004761
1834,-0.033523,0.006231,0.004761
1835,-0.010555,-0.009543,-0.024086
1836,0.012412,-0.009543,0.004761
1837,0.012412,-0.009543,-0.024086
1838,0.035379,-0.025317,0.004761
1839,-0.010555,-0.025317,0.004761
1840,0.035379,-0.025317,0.004761
1841,0.058346,-0.009543,-0.024086
1842,0.012412,-0.009543,-0.024086
1843,-0.033523,-0.041091,-0.024086
1844,0.035379,-0.025317,-0.024086
1845,0.058346,-0.009543,0.004761
1846,-0.010555,-0.025317,-0.009662
1847,0.012412,-0.009543,-0.009662
1848,0.035379,-0.009543,-0.009662
1849,0.012412,-0.009543,-0.024086
1850,0.012412,-0.009543,0.004761
1851,-0.010555,0.006231,0.004761
1852,0.058346,0.006231,0.004761
1853,-0.010555,-0.009543,0.004761
1854,0.012412,-0.025317,-0.024086
1855,-0.05649,-0.025317,0.004761
1856,0.012412,-0.025317,-0.009662
1857,-0.010555,-0.025317,-0.009662
1858,0.012412,0.006231,0.004761
1859,-0.010555,0.006231,0.004761
1860,-0.033523,0.006231,0.004761
1861,-0.010555,0.006231,0.004761
1862,-0.033523,0.006231,0.004761
1863,-0.05649,-0.025317,0.004761
1864,0.012412,-0.009543,0.004761
1865,-0.010555,-0.025317,-0.009662
1866,-0.05649,-0.025317,-0.009662
1867,-0.05649,-0.009543,-0.009662
1868,-0.010555,0.006231,-0.009662
1869,0.035379,-0.009543,-0.009662
1870,-0.033523,0.006231,-0.009662
1871,0.012412,0.006231,0.004761
1872,0.035379,-0.009543,0.004761
1873,0.035379,-0.025317,0.004761
1874,0.035379,-0.009543,-0.009662
1875,0.058346,-0.009543,0.019185
1876,0.035379,-0.009543,0.019185
1877,-0.010555,-0.025317,0.019185
1878,-0.010555,-0.009543,0.004761
1879,0.035379,-0.009543,-0.009662
1880,0.012412,0.006231,0.019185
1881,-0.010555,0.006231,-0.009662
1882,-0.033523,-0.025317,-0.009662
1883,0.035379,-0.009543,-0.009662
1884,0.012412,-0.009543,-0.024086
1885,-0.010555,-0.025317,-0.03851
1886,-0.05649,-0.025317,0.019185
1887,0.058346,-0.025317,0.004761
1888,-0.010555,-0.025317,0.004761
1889,-0.033523,-0.009543,-0.009662
1890,0.012412,-0.009543,-0.009662
1891,-0.033523,-0.009543,-0.009662
1892,0.012412,-0.009543,0.004761
1893,-0.010555,-0.009543,0.019185
1894,-0.010555,-0.009543,0.004761
1895,-0.010555,0.006231,-0.009662
1896,-0.010555,0.006231,-0.009662
1897,0.012412,-0.009543,0.004761
1898,-0.05649,-0.025317,0.004761
1899,-0.010555,0.006231,0.004761
1900,-0.010555,-0.025317,0.004761
1901,-0.010555,0.006231,0.004761
1902,-0.010555,-0.025317,0.004761
1903,0.035379,-0.009543,0.004761
1904,0.012412,-0.009543,-0.009662
1905,-0.033523,-0.025317,0.004761
1906,-0.010555,0.006231,0.004761
1907,0.012412,0.006231,0.004761
1908,0.012412,-0.025317,-0.009662
1909,-0.010555,-0.009543,0.004761
1910,-0.010555,-0.009543,0.004761
1911,0.035379,-0.025317,0.019185
1912,0.035379,-0.025317,-0.009662
1913,-0.010555,-0.009543,-0.009662
1914,0.012412,-0.025317,0.004761
1915,0.035379,0.006231,0.004761
1916,-0.010555,-0.025317,0.004761
1917,-0.010555,-0.009543,-0.024086
1918,0.035379,-0.009543,-0.009662
1919,0.035379,-0.041091,-0.009662
1920,-0.010555,-0.041091,0.004761
1921,-0.010555,-0.009543,-0.024086
1922,0.012412,-0.009543,-0.03851
1923,-0.05649,-0.009543,-0.009662
1924,-0.033523,-0.025317,0.004761
1925,-0.033523,-0.025317,-0.009662
1926,0.012412,-0.009543,-0.009662
1927,-0.010555,-0.009543,-0.009662
1928,0.035379,-0.025317,0.004761
1929,-0.033523,-0.009543,0.033609
1930,-0.010555,0.006231,0.019185
1931,0.035379,-0.009543,0.004761
1932,-0.010555,-0.009543,0.004761
1933,-0.010555,0.006231,0.004761
1934,0.035379,-0.009543,0.004761
1935,0.012412,-0.009543,-0.009662
1936,-0.010555,-0.025317,0.004761
1937,-0.010555,0.006231,0.004761
1938,0.012412,0.006231,0.004761
1939,0.012412,-0.025317,-0.009662
1940,-0.010555,-0.025317,-0.009662
1941,0.012412,-0.009543,0.004761
1942,0.035379,-0.009543,0.019185
1943,0.058346,-0.025317,0.019185
1944,-0.010555,-0.009543,0.004761
1945,-0.010555,-0.009543,-0.009662
1946,0.035379,-0.009543,-0.009662
1947,0.012412,-0.009543,0.004761
1948,0.012412,-0.009543,0.004761
1949,0.058346,-0.009543,-0.009662
1950,0.058346,-0.009543,0.004761
1951,-0.010555,-0.009543,-0.009662
1952,0.012412,0.006231,0.048033
1953,0.012412,-0.009543,0.004761
1954,0.035379,0.006231,-0.009662
1955,0.012412,-0.025317,-0.024086
1956,-0.010555,-0.041091,-0.024086
1957,-0.05649,-0.009543,0.004761
1958,0.012412,-0.025317,0.004761
1959,-0.010555,0.006231,0.004761
1960,0.012412,0.006231,-0.009662
1961,0.035379,-0.009543,0.019185
1962,0.012412,-0.009543,0.004761
1963,-0.033523,-0.025317,-0.009662
1964,-0.010555,-0.009543,0.004761
1965,-0.010555,-0.009543,0.004761
1966,0.035379,-0.009543,0.004761
1967,-0.033523,0.006231,0.033609
1968,0.012412,0.022005,0.019185
1969,0.012412,0.022005,0.019185
1970,0.035379,-0.009543,-0.009662
1971,-0.079457,0.006231,-0.009662
1972,-0.010555,-0.025317,0.004761
1973,0.058346,0.006231,-0.024086
1974,0.058346,-0.025317,-0.009662
1975,0.012412,-0.025317,-0.009662
1976,0.012412,-0.009543,-0.009662
1977,0.035379,-0.009543,-0.009662
1978,0.012412,-0.009543,-0.009662
1979,-0.033523,-0.009543,-0.009662
1980,0.012412,-0.009543,-0.009662
1981,0.058346,-0.041091,-0.009662
1982,-0.010555,-0.009543,0.004761
1983,0.012412,0.006231,-0.009662
1984,-0.033523,-0.009543,-0.009662
1985,0.012412,-0.009543,-0.009662
1986,-0.010555,-0.009543,0.004761
1987,-0.010555,-0.025317,0.019185
1988,-0.010555,0.006231,0.019185
1989,-0.010555,0.006231,-0.009662
1990,0.012412,-0.009543,0.004761
1991,-0.033523,-0.009543,0.004761
1992,-0.033523,-0.025317,-0.009662
1993,-0.033523,-0.041091,-0.024086
1994,-0.010555,-0.025317,-0.009662
1995,0.012412,-0.009543,-0.009662
1996,-0.010555,-0.009543,0.004761
1997,0.035379,-0.009543,0.004761
1998,-0.010555,-0.025317,-0.024086
1999,-0.033523,-0.009543,-0.009662
2000,-0.010555,-0.025317,-0.009662
2001,0.081313,-0.009543,0.004761
2002,0.012412,-0.009543,-0.009662
2003,0.012412,-0.025317,-0.009662
2004,0.012412,-0.009543,-0.009662
2005,0.081313,-0.009543,0.004761
2006,-0.010555,-0.025317,-0.009662
2007,-0.010555,-0.025317,0.004761
2008,0.081313,-0.009543,-0.024086
2009,0.058346,-0.009543,0.019185
2010,-0.010555,0.006231,0.004761
2011,0.058346,-0.009543,0.004761
2012,0.058346,-0.009543,-0.009662
2013,0.127248,-0.025317,0.004761
2014,-0.010555,0.022005,0.019185
2015,-0.033523,-0.009543,-0.009662
2016,0.035379,0.006231,-0.009662
2017,-0.010555,-0.025317,-0.024086
2018,-0.033523,-0.025317,-0.009662
2019,-0.102424,-0.025317,0.004761
2020,-0.033523,-0.009543,0.004761
2021,-0.033523,-0.009543,0.004761
2022,-0.05649,0.006231,0.004761
2023,-0.033523,-0.025317,0.019185
2024,-0.033523,-0.009543,0.004761
2025,-0.010555,-0.009543,-0.009662
2026,-0.010555,-0.009543,0.048033
2027,0.035379,-0.009543,0.004761
2028,0.058346,-0.025317,0.004761
2029,-0.05649,0.006231,0.004761
2030,-0.010555,-0.009543,0.019185
2031,0.035379,-0.009543,0.019185
2032,0.035379,-0.009543,0.019185
2033,-0.010555,-0.009543,0.004761
2034,-0.010555,-0.009543,-0.009662
2035,0.012412,-0.009543,-0.009662
2036,0.058346,-0.009543,0.004761
2037,0.035379,-0.009543,0.004761
2038,-0.010555,0.006231,0.019185
2039,-0.033523,-0.025317,0.004761
2040,-0.010555,-0.025317,-0.009662
2041,-0.033523,-0.025317,-0.009662
2042,0.035379,-0.025317,0.004761
2043,0.035379,-0.009543,-0.024086
2044,-0.010555,-0.009543,0.004761
2045,-0.05649,-0.009543,0.004761
2046,-0.05649,-0.009543,-0.009662
2047,-0.010555,-0.025317,-0.009662
2048,0.012412,-0.009543,-0.024086
2049,-0.05649,-0.009543,-0.009662
2050,-0.05649,-0.009543,-0.009662
2051,0.012412,-0.009543,0.004761
2052,-0.010555,-0.009543,0.019185
2053,0.012412,-0.009543,0.004761
2054,-0.010555,-0.009543,0.019185
2055,0.035379,0.006231,0.004761
2056,-0.010555,-0.009543,0.004761
2057,-0.033523,-0.009543,0.019185
2058,-0.010555,0.006231,0.004761
2059,0.058346,-0.009543,0.004761
2060,-0.010555,-0.009543,-0.009662
2061,-0.010555,-0.025317,0.004761
2062,0.012412,-0.009543,0.004761
2063,0.035379,0.006231,0.004761
2064,-0.033523,0.006231,0.004761
2065,0.012412,-0.009543,-0.009662
2066,-0.010555,-0.009543,-0.009662
2067,-0.010555,-0.009543,-0.009662
2068,-0.05649,-0.025317,0.004761
2069,-0.010555,-0.025317,-0.009662
2070,0.035379,0.006231,-0.024086
2071,-0.033523,-0.009543,0.004761
2072,0.012412,-0.025317,0.019185
2073,0.035379,-0.009543,0.004761
2074,0.035379,-0.009543,-0.009662
2075,0.035379,-0.025317,-0.024086
2076,0.012412,-0.025317,-0.024086
2077,-0.010555,-0.009543,-0.009662
2078,-0.010555,-0.009543,0.004761
2079,0.012412,-0.025317,0.004761
2080,-0.033523,0.006231,0.033609
2081,-0.033523,-0.025317,0.033609
2082,-0.033523,-0.009543,-0.009662
2083,0.012412,-0.009543,0.004761
2084,-0.033523,-0.009543,0.004761
2085,-0.033523,-0.009543,0.004761
2086,-0.010555,-0.009543,-0.009662
2087,-0.010555,0.006231,0.004761
2088,-0.010555,-0.009543,0.019185
2089,0.012412,-0.009543,0.019185
2090,-0.033523,-0.009543,0.019185
2091,0.012412,-0.025317,-0.009662
2092,-0.010555,-0.009543,-0.009662
2093,-0.010555,-0.009543,0.019185
2094,0.058346,-0.025317,0.033609
2095,-0.05649,-0.009543,0.004761
2096,0.012412,-0.009543,0.004761
2097,0.012412,-0.041091,-0.024086
2098,0.012412,-0.025317,-0.03851
2099,-0.033523,-0.009543,-0.024086
2100,0.012412,-0.009543,-0.024086
2101,0.012412,0.006231,-0.009662
2102,0.058346,-0.009543,-0.009662
2103,0.035379,-0.009543,0.019185
2104,0.035379,0.006231,0.004761
2105,0.012412,-0.009543,0.019185
2106,-0.010555,-0.025317,-0.009662
2107,0.012412,-0.025317,-0.009662
2108,-0.010555,-0.009543,-0.009662
2109,0.058346,-0.009543,0.004761
2110,0.012412,-0.025317,0.004761
2111,-0.010555,-0.009543,0.004761
2112,0.012412,-0.025317,-0.009662
2113,0.012412,-0.009543,0.004761
2114,0.012412,-0.041091,-0.009662
2115,-0.033523,-0.009543,0.004761
2116,-0.010555,-0.009543,0.004761
2117,-0.033523,0.006231,-0.009662
2118,-0.033523,-0.009543,0.004761
2119,-0.033523,-0.009543,0.019185
2120,-0.05649,0.006231,0.004761
2121,-0.010555,-0.009543,-0.009662
2122,-0.033523,-0.009543,0.004761
2123,-0.010555,0.006231,0.004761
2124,0.012412,-0.025317,0.004761
2125,0.012412,-0.025317,0.004761
2126,-0.033523,-0.009543,-0.024086
2127,-0.033523,-0.009543,-0.009662
2128,-0.033523,-0.025317,-0.024086
2129,-0.033523,-0.009543,0.004761
2130,0.035379,0.006231,0.004761
2131,-0.033523,0.006231,0.019185
2132,0.012412,0.006231,0.033609
2133,0.012412,-0.025317,0.004761
2134,-0.010555,-0.025317,-0.009662
2135,-0.05649,-0.009543,0.004761
2136,-0.05649,-0.025317,0.004761
2137,0.035379,-0.025317,-0.009662
2138,0.012412,-0.009543,-0.024086
2139,-0.033523,-0.025317,0.004761
2140,-0.033523,-0.009543,0.004761
2141,0.058346,-0.025317,0.004761
2142,0.012412,-0.009543,-0.009662
2143,0.012412,-0.009543,-0.009662
2144,0.035379,-0.009543,-0.009662
2145,-0.033523,-0.009543,-0.024086
2146,0.012412,0.006231,0.004761
2147,-0.010555,0.006231,-0.024086
2148,-0.010555,-0.025317,-0.024086
2149,-0.033523,-0.009543,0.004761
2150,0.012412,-0.009543,0.004761
2151,-0.010555,0.006231,0.004761
2152,-0.010555,-0.009543,-0.009662
2153,-0.033523,-0.009543,0.004761
2154,-0.05649,-0.025317,-0.009662
2155,-0.05649,0.006231,0.019185
2156,0.012412,-0.009543,-0.009662
2157,-0.010555,0.006231,0.019185
2158,-0.033523,-0.025317,0.004761
2159,-0.010555,-0.025317,0.004761
2160,0.058346,-0.009543,0.019185
2161,0.035379,0.006231,-0.009662
2162,-0.010555,0.006231,0.004761
2163,0.012412,-0.009543,0.019185
2164,-0.010555,-0.009543,-0.009662
2165,0.012412,0.006231,-0.009662
2166,-0.05649,-0.009543,-0.009662
2167,0.012412,-0.025317,-0.024086
2168,0.035379,-0.025317,0.004761
2169,0.058346,-0.025317,0.004761
2170,0.035379,-0.009543,-0.009662
2171,0.058346,-0.009543,-0.024086
2172,0.035379,-0.009543,0.004761
2173,0.012412,-0.009543,-0.024086
2174,0.012412,0.006231,-0.009662
2175,-0.010555,-0.025317,-0.009662
2176,0.012412,-0.041091,-0.009662
2177,0.035379,-0.025317,-0.024086
2178,0.012412,-0.025317,-0.024086
2179,-0.010555,-0.025317,0.004761
2180,0.012412,-0.009543,0.019185
2181,-0.010555,-0.025317,0.019185
2182,-0.033523,-0.009543,-0.009662
2183,-0.05649,0.006231,0.004761
2184,0.012412,-0.009543,-0.009662
2185,-0.010555,0.006231,0.019185
2186,-0.033523,0.006231,0.019185
2187,-0.033523,0.006231,0.004761
2188,-0.033523,-0.025317,0.004761
2189,-0.010555,-0.041091,0.004761
2190,-0.05649,-0.009543,-0.009662
2191,0.012412,-0.009543,0.004761
2192,-0.033523,-0.009543,-0.024086
2193,-0.010555,-0.025317,0.004761
2194,-0.033523,-0.009543,-0.009662
2195,-0.010555,-0.041091,0.004761
2196,0.012412,-0.009543,-0.009662
2197,-0.010555,-0.009543,0.004761
2198,0.058346,0.006231,0.019185
2199,0.035379,0.006231,0.004761
2200,0.035379,-0.025317,0.048033
2201,-0.010555,0.006231,0.004761
2202,-0.010555,0.006231,0.004761
2203,0.012412,0.006231,-0.009662
2204,0.012412,-0.009543,-0.009662
2205,0.058346,-0.009543,-0.009662
2206,0.012412,-0.025317,-0.009662
2207,0.012412,-0.025317,-0.009662
2208,0.127248,-0.041091,-0.024086
2209,0.012412,-0.041091,-0.024086
2210,-0.033523,-0.025317,-0.009662
2211,0.058346,0.022005,0.004761
2212,0.035379,0.006231,-0.009662
2213,-0.033523,-0.025317,-0.024086
2214,-0.010555,0.006231,-0.009662
2215,0.035379,0.006231,-0.024086
2216,-0.010555,0.022005,-0.009662
2217,0.035379,0.03778,0.004761
2218,-0.033523,0.006231,0.004761
2219,-0.010555,0.006231,-0.009662
2220,-0.010555,-0.025317,0.004761
2221,-0.010555,-0.072639,0.004761
2222,-0.033523,-0.025317,-0.009662
2223,0.012412,-0.025317,0.004761
2224,0.012412,-0.009543,0.019185
2225,-0.033523,-0.009543,0.004761
2226,-0.010555,0.022005,-0.009662
2227,-0.010555,-0.025317,0.019185
2228,-0.010555,0.006231,0.019185
2229,0.012412,-0.009543,0.004761
2230,0.012412,-0.009543,-0.009662
2231,-0.010555,0.006231,-0.009662
2232,0.012412,0.006231,0.004761
2233,-0.033523,-0.041091,0.004761
2234,0.012412,-0.009543,-0.009662
2235,0.012412,-0.009543,-0.009662
2236,0.012412,0.006231,-0.009662
2237,0.012412,0.006231,-0.009662
2238,0.035379,-0.009543,0.004761
2239,0.081313,-0.009543,0.004761
2240,0.058346,-0.009543,0.019185
2241,-0.033523,-0.009543,0.019185
2242,0.012412,-0.025317,-0.024086
2243,0.058346,-0.009543,0.004761
2244,-0.010555,-0.025317,0.004761
2245,0.012412,-0.009543,-0.009662
2246,0.081313,-0.009543,0.004761
2247,0.035379,-0.025317,0.004761
2248,0.035379,-0.025317,0.019185
2249,-0.010555,-0.009543,0.004761
2250,-0.010555,-0.009543,0.004761
2251,-0.033523,0.006231,-0.009662
2252,-0.010555,-0.009543,-0.009662
2253,-0.010555,-0.009543,-0.009662
2254,-0.010555,-0.041091,-0.03851
2255,0.012412,-0.025317,-0.052934
2256,0.012412,-0.041091,0.004761
2257,-0.033523,-0.025317,-0.024086
2258,-0.010555,0.006231,0.019185
2259,-0.010555,-0.009543,0.019185
2260,-0.010555,0.022005,0.004761
2261,-0.033523,-0.009543,-0.009662
2262,-0.033523,-0.009543,-0.024086
2263,-0.010555,-0.009543,0.004761
2264,-0.010555,-0.009543,0.004761
2265,0.012412,0.006231,-0.009662
2266,-0.010555,-0.009543,0.004761
2267,0.012412,-0.009543,-0.024086
2268,-0.033523,-0.025317,-0.024086
2269,0.012412,-0.009543,-0.024086
2270,0.012412,-0.041091,-0.009662
2271,0.035379,-0.025317,-0.009662
2272,-0.010555,-0.025317,-0.024086
2273,0.035379,-0.025317,-0.024086
2274,0.012412,-0.009543,-0.009662
2275,0.081313,-0.009543,0.004761
2276,0.035379,0.006231,0.019185
2277,-0.010555,-0.009543,-0.009662
2278,0.081313,-0.009543,-0.03851
2279,0.012412,-0.009543,-0.009662
2280,0.035379,-0.009543,0.004761
2281,-0.010555,-0.025317,0.004761
2282,-0.010555,-0.009543,-0.009662
2283,0.035379,-0.009543,-0.009662
2284,-0.010555,-0.009543,-0.009662
2285,-0.033523,0.006231,0.004761
2286,0.012412,-0.009543,-0.009662
2287,0.035379,0.006231,0.004761
2288,0.012412,0.006231,0.019185
2289,-0.033523,-0.009543,0.004761
2290,0.012412,-0.009543,-0.024086
2291,0.012412,-0.009543,0.004761
2292,-0.05649,-0.009543,0.004761
2293,-0.010555,-0.025317,0.004761
2294,0.012412,-0.025317,0.004761
2295,-0.010555,0.006231,0.004761
2296,-0.010555,0.006231,0.004761
2297,0.035379,-0.009543,0.004761
2298,0.012412,-0.025317,0.004761
2299,0.012412,-0.009543,0.004761
2300,0.012412,-0.025317,0.004761
2301,0.012412,-0.025317,-0.009662
2302,0.035379,-0.041091,-0.024086
2303,0.012412,-0.009543,0.004761
2304,-0.010555,-0.009543,0.048033
2305,0.035379,0.006231,-0.009662
2306,0.058346,0.006231,-0.009662
2307,0.012412,-0.009543,0.004761
2308,-0.010555,0.006231,0.004761
2309,0.012412,-0.009543,0.004761
2310,0.012412,-0.009543,0.004761
2311,0.035379,-0.009543,0.004761
2312,0.035379,0.006231,-0.009662
2313,0.058346,0.006231,-0.024086
2314,0.012412,-0.009543,-0.009662
2315,-0.010555,-0.009543,-0.009662
2316,0.012412,-0.025317,0.004761
2317,0.058346,-0.009543,0.004761
2318,0.035379,-0.009543,-0.009662
2319,-0.010555,-0.009543,0.019185
2320,-0.033523,0.006231,0.004761
2321,0.012412,-0.009543,0.004761
2322,0.012412,-0.009543,0.004761
2323,-0.033523,-0.025317,0.004761
2324,-0.05649,-0.009543,0.004761
2325,-0.033523,0.006231,0.004761
2326,-0.033523,0.006231,-0.009662
2327,-0.010555,-0.009543,0.004761
2328,0.035379,-0.025317,0.004761
2329,0.035379,0.006231,-0.009662
2330,-0.079457,-0.009543,-0.009662
2331,-0.010555,-0.009543,-0.009662
2332,-0.010555,0.006231,-0.009662
2333,0.035379,-0.009543,-0.009662
2334,-0.010555,-0.009543,-0.009662
2335,0.012412,-0.009543,0.004761
2336,0.012412,0.006231,0.004761
2337,0.012412,-0.009543,-0.009662
2338,-0.033523,-0.009543,0.019185
2339,-0.033523,-0.009543,0.004761
2340,0.035379,-0.009543,0.004761
2341,0.058346,-0.025317,-0.009662
2342,0.035379,-0.009543,0.004761
2343,-0.033523,-0.009543,-0.009662
2344,0.012412,-0.009543,0.019185
2345,0.035379,-0.025317,0.004761
2346,-0.010555,-0.041091,0.004761
2347,-0.033523,-0.009543,0.004761
2348,0.035379,0.006231,-0.009662
2349,0.012412,-0.009543,-0.03851
2350,-0.010555,-0.009543,0.004761
2351,-0.05649,-0.009543,0.004761
2352,-0.010555,-0.009543,-0.009662
2353,-0.010555,-0.009543,-0.009662
2354,-0.033523,-0.025317,-0.024086
2355,-0.05649,-0.009543,0.019185
2356,-0.010555,-0.009543,-0.009662
2357,0.012412,-0.025317,-0.009662
2358,-0.010555,-0.009543,0.004761
2359,-0.033523,-0.025317,0.004761
2360,0.035379,0.006231,0.004761
2361,-0.010555,-0.009543,-0.009662
2362,-0.010555,0.006231,0.004761
2363,-0.010555,-0.009543,0.004761
2364,0.012412,-0.025317,-0.024086
2365,0.035379,0.006231,-0.009662
2366,-0.033523,-0.009543,0.004761
2367,0.012412,0.022005,0.019185
2368,-0.010555,-0.009543,0.004761
2369,-0.010555,-0.009543,0.019185
2370,-0.033523,-0.009543,0.004761
2371,0.012412,-0.009543,0.004761
2372,0.012412,-0.009543,0.004761
2373,0.012412,-0.009543,-0.009662
2374,-0.033523,-0.009543,-0.024086
2375,-0.033523,-0.041091,-0.009662
2376,0.012412,-0.009543,0.004761
2377,0.035379,-0.009543,-0.009662
2378,-0.010555,-0.025317,0.004761
2379,0.035379,0.006231,0.004761
2380,0.035379,-0.025317,-0.009662
2381,0.035379,-0.025317,0.004761
2382,0.012412,-0.009543,0.004761
2383,0.10428,-0.009543,0.019185
2384,0.012412,-0.009543,0.019185
2385,0.012412,0.006231,-0.009662
2386,-0.033523,-0.009543,-0.009662
2387,-0.05649,-0.025317,-0.009662
2388,-0.010555,-0.009543,-0.009662
2389,-0.010555,-0.009543,-0.009662
2390,-0.010555,-0.009543,0.004761
2391,-0.010555,-0.009543,0.004761
2392,-0.010555,0.006231,-0.009662
2393,-0.010555,-0.009543,-0.009662
2394,0.012412,-0.025317,-0.009662
2395,-0.010555,-0.009543,0.004761
2396,0.012412,-0.025317,-0.009662
2397,-0.05649,-0.025317,-0.009662
2398,-0.010555,0.006231,0.004761
2399,0.012412,-0.009543,0.019185
2400,0.081313,-0.009543,-0.009662
2401,0.012412,0.006231,0.019185
2402,-0.010555,-0.009543,0.019185
2403,-0.010555,-0.009543,0.004761
2404,-0.010555,-0.009543,-0.024086
2405,0.035379,0.006231,0.004761
2406,-0.010555,0.006231,-0.009662
2407,0.012412,0.006231,0.004761
2408,-0.010555,-0.025317,-0.009662
2409,0.012412,0.006231,-0.009662
2410,-0.010555,-0.025317,-0.009662
2411,-0.010555,-0.041091,0.004761
2412,0.012412,-0.025317,0.004761
2413,-0.010555,-0.009543,-0.009662
2414,0.012412,-0.025317,0.004761
2415,0.012412,-0.009543,0.004761
2416,-0.010555,-0.009543,0.004761
2417,-0.033523,-0.025317,-0.009662
2418,-0.033523,-0.009543,-0.024086
2419,0.012412,0.006231,0.004761
2420,0.012412,-0.025317,0.004761
2421,-0.010555,-0.025317,0.004761
2422,-0.033523,-0.009543,0.004761
2423,-0.033523,0.006231,0.004761
2424,-0.05649,-0.009543,-0.009662
2425,-0.033523,0.006231,0.004761
2426,-0.010555,-0.025317,0.019185
2427,-0.010555,-0.009543,-0.009662
2428,-0.010555,-0.025317,0.004761
2429,0.035379,-0.025317,-0.009662
2430,0.012412,-0.025317,-0.009662
2431,-0.010555,0.006231,0.004761
2432,-0.033523,0.006231,0.048033
2433,0.012412,-0.009543,0.004761
2434,0.058346,-0.025317,0.004761
2435,0.081313,0.022005,0.004761
2436,0.012412,-0.009543,0.004761
2437,0.035379,-0.009543,-0.009662
2438,0.035379,-0.009543,-0.009662
2439,0.035379,0.006231,-0.009662
2440,-0.010555,-0.025317,-0.009662
2441,0.012412,-0.025317,-0.009662
2442,0.012412,-0.009543,-0.024086
2443,-0.010555,-0.025317,0.004761
2444,0.012412,-0.009543,-0.009662
2445,-0.010555,-0.009543,0.004761
2446,0.035379,-0.009543,-0.009662
2447,-0.010555,-0.025317,0.019185
2448,-0.010555,-0.009543,0.004761
2449,-0.033523,-0.009543,0.004761
2450,0.012412,-0.009543,-0.009662
2451,0.012412,-0.025317,0.004761
2452,-0.05649,-0.009543,-0.009662
2453,-0.010555,-0.025317,-0.009662
2454,-0.010555,-0.009543,0.004761
2455,-0.033523,-0.041091,-0.009662
2456,0.012412,-0.025317,-0.009662
2457,-0.033523,-0.009543,-0.009662
2458,0.058346,-0.009543,-0.009662
2459,-0.079457,-0.041091,-0.009662
2460,-0.033523,-0.025317,-0.024086
2461,-0.010555,-0.009543,0.004761
2462,-0.010555,-0.025317,0.004761
2463,-0.033523,-0.009543,0.019185
2464,-0.033523,-0.009543,0.019185
2465,0.058346,-0.025317,0.004761
2466,0.127248,-0.009543,-0.009662
2467,0.058346,0.006231,-0.009662
2468,0.035379,-0.009543,0.019185
2469,0.035379,-0.009543,0.004761
2470,0.012412,-0.009543,0.004761
2471,-0.010555,-0.009543,0.019185
2472,-0.010555,0.006231,0.004761
2473,-0.010555,-0.009543,0.004761
2474,0.012412,-0.025317,-0.009662
2475,-0.010555,-0.025317,-0.009662
2476,-0.010555,-0.009543,0.004761
2477,0.012412,0.006231,-0.009662
2478,0.012412,-0.009543,-0.009662
2479,-0.010555,0.006231,-0.009662
2480,-0.033523,0.006231,-0.009662
2481,-0.010555,-0.009543,0.004761
2482,-0.033523,-0.009543,0.019185
2483,-0.010555,-0.025317,0.019185
2484,-0.033523,0.006231,-0.024086
2485,0.012412,-0.009543,0.004761
2486,-0.010555,-0.025317,-0.009662
2487,-0.05649,-0.025317,0.004761
2488,0.012412,0.006231,-0.009662
2489,0.035379,0.006231,0.019185
2490,-0.033523,-0.009543,-0.009662
2491,-0.010555,-0.009543,-0.009662
2492,-0.010555,-0.025317,0.004761
2493,0.035379,-0.009543,-0.009662
2494,-0.010555,-0.025317,-0.009662
2495,0.035379,-0.025317,-0.009662
2496,0.012412,-0.009543,-0.009662
2497,0.012412,-0.009543,-0.009662
2498,-0.033523,0.006231,-0.009662
2499,-0.010555,-0.009543,0.004761
2500,0.081313,0.006231,-0.009662
2501,-0.010555,-0.009543,0.004761
2502,-0.05649,-0.009543,-0.009662
2503,0.058346,-0.009543,0.004761
2504,0.081313,-0.025317,-0.009662
2505,0.058346,0.006231,0.004761
2506,0.035379,-0.025317,0.019185
2507,0.012412,-0.009543,-0.009662
2508,0.012412,-0.009543,0.004761
2509,-0.010555,-0.009543,-0.009662
2510,0.012412,0.022005,0.019185
2511,0.012412,0.006231,0.004761
2512,-0.010555,-0.009543,0.004761
2513,0.012412,-0.009543,-0.009662
2514,-0.033523,-0.009543,-0.024086
2515,-0.05649,0.006231,-0.024086
2516,-0.033523,0.006231,-0.024086
2517,-0.079457,-0.025317,-0.009662
2518,-0.010555,-0.025317,-0.024086
2519,0.012412,-0.009543,-0.024086
2520,-0.010555,-0.009543,0.004761
2521,-0.010555,-0.025317,0.004761
2522,-0.079457,-0.025317,0.004761
2523,0.035379,-0.009543,-0.009662
2524,0.035379,-0.009543,0.004761
2525,-0.010555,-0.025317,-0.009662
2526,-0.033523,-0.009543,0.004761
2527,0.012412,-0.009543,0.004761
2528,0.035379,0.022005,0.019185
2529,-0.010555,-0.025317,0.004761
2530,0.012412,0.006231,0.019185
2531,0.035379,-0.009543,0.004761
2532,0.012412,-0.009543,-0.009662
2533,0.012412,0.006231,-0.009662
2534,0.035379,-0.041091,-0.009662
2535,0.012412,-0.009543,0.033609
2536,0.035379,-0.009543,-0.009662
2537,-0.010555,-0.009543,-0.024086
2538,-0.010555,0.006231,-0.009662
2539,0.035379,-0.009543,0.004761
2540,0.012412,-0.009543,-0.009662
2541,-0.033523,-0.009543,0.004761
2542,-0.033523,-0.009543,-0.009662
2543,0.012412,-0.009543,-0.009662
2544,0.012412,-0.009543,0.004761
2545,-0.010555,0.022005,0.004761
2546,-0.010555,0.006231,0.004761
2547,0.035379,0.006231,-0.009662
2548,-0.010555,-0.041091,-0.009662
2549,-0.033523,-0.009543,-0.009662
2550,0.012412,0.006231,0.004761
2551,-0.033523,0.006231,0.004761
2552,-0.010555,-0.009543,-0.009662
2553,-0.010555,-0.009543,-0.024086
2554,0.012412,0.006231,-0.024086
2555,-0.010555,-0.025317,-0.009662
2556,-0.010555,-0.025317,-0.024086
2557,-0.033523,-0.025317,-0.009662
2558,0.035379,-0.041091,0.019185
2559,0.058346,-0.009543,0.004761
2560,0.012412,0.006231,0.004761
2561,0.058346,0.006231,0.004761
2562,0.012412,-0.009543,0.033609
2563,0.035379,-0.009543,-0.009662
2564,0.012412,-0.025317,-0.009662
2565,0.035379,0.006231,0.004761
2566,0.012412,0.006231,0.019185
2567,0.035379,0.006231,0.004761
2568,-0.010555,-0.025317,0.004761
2569,-0.010555,-0.009543,-0.009662
2570,-0.033523,-0.025317,-0.009662
2571,-0.010555,-0.025317,0.019185
2572,-0.033523,-0.009543,0.004761
2573,-0.033523,0.006231,0.019185
2574,0.035379,0.006231,-0.009662
2575,-0.010555,-0.009543,0.004761
2576,0.012412,0.006231,0.019185
2577,-0.05649,-0.009543,-0.009662
2578,0.012412,-0.009543,-0.024086
2579,-0.010555,0.006231,-0.024086
2580,-0.010555,-0.025317,0.004761
2581,-0.033523,-0.025317,0.004761
2582,-0.010555,-0.041091,-0.009662
2583,0.012412,-0.025317,0.004761
2584,-0.05649,-0.025317,-0.009662
2585,-0.033523,-0.025317,-0.024086
2586,-0.010555,-0.025317,0.004761
2587,-0.033523,-0.009543,0.004761
2588,-0.010555,0.006231,-0.009662
2589,0.012412,-0.009543,0.019185
2590,0.012412,0.006231,-0.009662
2591,-0.010555,-0.025317,-0.009662
2592,0.012412,0.006231,-0.03851
2593,0.058346,-0.009543,0.004761
2594,0.058346,-0.009543,0.019185
2595,0.035379,-0.009543,0.004761
2596,0.012412,0.006231,-0.009662
2597,0.012412,0.006231,-0.009662
2598,0.035379,-0.009543,-0.009662
2599,0.012412,-0.041091,-0.009662
2600,0.012412,-0.009543,-0.009662
2601,0.035379,-0.009543,-0.024086
2602,-0.010555,-0.009543,-0.009662
2603,-0.010555,-0.009543,-0.009662
2604,-0.010555,-0.009543,-0.009662
2605,0.012412,-0.025317,-0.024086
2606,0.012412,-0.009543,0.004761
2607,-0.010555,0.006231,-0.009662
2608,0.012412,-0.009543,-0.009662
2609,0.012412,0.006231,0.019185
2610,-0.010555,-0.009543,0.004761
2611,-0.033523,0.006231,0.004761
2612,-0.033523,-0.025317,-0.009662
2613,0.035379,-0.025317,0.004761
2614,0.012412,-0.009543,0.004761
2615,-0.033523,-0.009543,0.048033
2616,-0.010555,-0.025317,-0.009662
2617,0.035379,0.006231,-0.009662
2618,-0.010555,-0.025317,0.048033
2619,-0.010555,-0.009543,-0.009662
2620,-0.010555,0.006231,0.004761
2621,0.035379,0.022005,0.004761
2622,-0.033523,-0.009543,0.004761
2623,0.012412,-0.009543,0.004761
2624,0.012412,-0.025317,0.004761
2625,0.012412,0.006231,0.004761
2626,0.012412,-0.009543,-0.024086
2627,0.012412,-0.025317,0.004761
2628,0.035379,-0.025317,-0.024086
2629,0.012412,-0.025317,0.004761
2630,-0.010555,-0.025317,-0.009662
2631,0.012412,-0.009543,0.004761
2632,0.035379,0.006231,-0.009662
2633,0.081313,-0.009543,0.004761
2634,-0.033523,0.006231,-0.009662
2635,0.012412,-0.009543,-0.024086
2636,-0.033523,-0.025317,0.004761
2637,-0.010555,-0.009543,0.004761
2638,0.035379,-0.009543,0.004761
2639,-0.033523,0.006231,-0.009662
2640,0.012412,-0.009543,-0.009662
2641,-0.05649,-0.025317,-0.024086
2642,-0.010555,0.006231,-0.024086
2643,-0.010555,0.006231,0.004761
2644,-0.010555,-0.009543,-0.009662
2645,-0.010555,-0.009543,0.004761
2646,-0.079457,0.006231,0.004761
2647,-0.010555,0.006231,-0.009662
2648,-0.010555,-0.009543,-0.009662
2649,-0.033523,-0.025317,-0.009662
2650,-0.05649,-0.009543,-0.009662
2651,-0.010555,0.006231,0.004761
2652,-0.033523,-0.009543,-0.009662
2653,-0.033523,-0.009543,-0.009662
2654,-0.010555,-0.009543,0.004761
2655,0.035379,-0.009543,-0.009662
2656,0.058346,0.006231,-0.009662
2657,0.035379,-0.009543,-0.009662
2658,0.012412,0.006231,0.004761
2659,0.012412,-0.009543,-0.009662
2660,0.012412,-0.025317,-0.009662
2661,0.012412,-0.009543,-0.009662
2662,-0.033523,-0.009543,0.019185
2663,0.035379,-0.009543,0.004761
2664,0.058346,-0.025317,0.004761
2665,-0.010555,0.006231,0.004761
2666,-0.010555,-0.009543,-0.009662
2667,0.058346,0.006231,-0.009662
2668,0.081313,-0.009543,0.004761
2669,-0.010555,-0.009543,0.004761
2670,-0.05649,0.006231,0.004761
2671,-0.010555,-0.009543,0.004761
2672,-0.010555,-0.025317,-0.009662
2673,-0.05649,-0.041091,-0.024086
2674,-0.033523,-0.009543,-0.024086
2675,-0.033523,-0.009543,-0.009662
2676,-0.033523,-0.009543,-0.009662
2677,-0.010555,-0.009543,0.004761
2678,-0.033523,0.006231,-0.009662
2679,0.058346,-0.025317,-0.009662
2680,0.012412,-0.009543,0.004761
2681,-0.010555,-0.009543,-0.009662
2682,0.058346,0.006231,-0.03851
2683,0.035379,-0.009543,-0.009662
2684,-0.05649,-0.025317,-0.009662
2685,-0.05649,0.006231,-0.009662
2686,-0.033523,-0.025317,-0.009662
2687,0.035379,0.006231,-0.009662
2688,0.058346,-0.009543,0.019185
2689,0.012412,0.006231,0.004761
2690,0.058346,-0.009543,0.004761
2691,0.081313,0.006231,0.004761
2692,0.035379,0.006231,0.004761
2693,0.035379,-0.009543,-0.009662
2694,0.035379,-0.009543,-0.009662
2695,0.058346,-0.009543,-0.024086
2696,0.012412,0.006231,0.004761
2697,-0.033523,0.006231,0.019185
2698,0.012412,0.006231,0.033609
2699,0.012412,0.006231,0.004761
2700,0.012412,0.006231,-0.024086
2701,-0.033523,-0.025317,0.004761
2702,0.012412,-0.041091,-0.009662
2703,0.012412,-0.041091,-0.024086
2704,-0.033523,-0.009543,-0.024086
2705,-0.033523,-0.025317,-0.009662
2706,-0.033523,-0.025317,-0.009662
2707,0.012412,-0.009543,-0.009662
2708,-0.033523,-0.025317,0.004761
2709,-0.033523,-0.025317,0.004761
2710,0.012412,-0.009543,0.004761
2711,-0.010555,-0.009543,0.004761
2712,-0.05649,0.006231,-0.009662
2713,0.012412,-0.009543,0.004761
2714,-0.033523,-0.009543,-0.024086
2715,-0.05649,-0.009543,0.019185
2716,-0.033523,0.006231,0.004761
2717,-0.010555,-0.009543,0.004761
2718,0.035379,-0.025317,-0.009662
2719,0.012412,0.022005,-0.009662
2720,0.012412,-0.009543,-0.024086
2721,0.012412,-0.009543,-0.009662
2722,0.012412,-0.009543,-0.009662
2723,0.127248,-0.025317,0.004761
2724,-0.010555,-0.025317,-0.009662
2725,-0.010555,-0.009543,-0.009662
2726,0.127248,-0.009543,-0.009662
2727,-0.010555,-0.025317,-0.009662
2728,-0.010555,-0.025317,0.019185
2729,0.035379,-0.025317,0.019185
2730,0.012412,0.006231,0.004761
2731,-0.010555,0.006231,0.004761
2732,-0.010555,0.006231,0.004761
2733,0.012412,-0.009543,0.004761
2734,0.012412,0.03778,-0.009662
2735,-0.010555,0.006231,-0.009662
2736,-0.010555,-0.009543,0.004761
2737,-0.05649,-0.009543,-0.009662
2738,-0.010555,-0.009543,0.048033
2739,-0.05649,-0.009543,-0.009662
2740,-0.05649,-0.009543,0.004761
2741,-0.010555,-0.009543,-0.009662
2742,0.012412,-0.025317,-0.009662
2743,-0.033523,-0.009543,-0.009662
2744,0.012412,-0.025317,0.004761
2745,-0.010555,-0.009543,-0.009662
2746,0.012412,-0.009543,0.004761
2747,0.012412,-0.009543,-0.024086
2748,0.012412,-0.025317,0.004761
2749,0.012412,-0.009543,-0.024086
2750,-0.010555,0.006231,0.004761
2751,-0.010555,-0.009543,-0.009662
2752,0.058346,-0.009543,0.004761
2753,-0.010555,-0.009543,0.004761
2754,0.035379,-0.009543,0.004761
2755,-0.010555,-0.009543,-0.024086
2756,0.012412,-0.025317,0.004761
2757,0.035379,-0.009543,0.019185
2758,-0.010555,0.006231,0.004761
2759,0.012412,-0.025317,0.004761
2760,0.035379,0.006231,-0.009662
2761,0.10428,-0.009543,-0.009662
2762,0.035379,-0.025317,0.019185
2763,-0.010555,-0.025317,0.019185
2764,0.012412,-0.009543,-0.009662
2765,-0.010555,0.006231,0.004761
2766,-0.033523,-0.025317,0.004761
2767,-0.033523,-0.009543,-0.009662
2768,0.012412,-0.009543,0.004761
2769,0.035379,-0.009543,0.004761
2770,-0.010555,0.006231,0.004761
2771,-0.05649,-0.009543,0.019185
2772,-0.033523,-0.009543,0.019185
2773,-0.010555,-0.009543,0.004761
2774,-0.010555,-0.025317,-0.009662
2775,-0.033523,-0.009543,0.004761
2776,-0.010555,-0.009543,0.004761
2777,-0.033523,-0.025317,-0.009662
2778,-0.05649,-0.025317,-0.009662
2779,-0.033523,-0.025317,-0.024086
2780,0.012412,-0.025317,-0.009662
2781,0.058346,-0.009543,0.004761
2782,-0.033523,-0.009543,-0.009662
2783,0.012412,-0.009543,0.004761
2784,0.012412,-0.025317,0.004761
2785,-0.010555,-0.009543,-0.009662
2786,0.035379,-0.009543,-0.024086
2787,-0.033523,0.006231,-0.009662
2788,-0.010555,-0.009543,0.019185
2789,0.012412,-0.009543,0.004761
2790,0.058346,0.022005,0.004761
2791,-0.010555,0.006231,0.004761
2792,0.035379,-0.009543,-0.009662
2793,0.035379,-0.009543,-0.024086
2794,-0.010555,-0.041091,-0.009662
2795,0.058346,0.022005,0.004761
2796,0.081313,0.022005,0.019185
2797,0.012412,-0.009543,-0.009662
2798,-0.033523,-0.041091,0.019185
2799,-0.033523,-0.009543,0.004761
2800,-0.010555,-0.009543,0.004761
2801,-0.010555,-0.009543,0.004761
2802,-0.05649,-0.041091,-0.009662
2803,-0.05649,-0.009543,0.004761
2804,-0.033523,0.006231,-0.009662
2805,-0.079457,-0.025317,-0.009662
2806,-0.033523,0.006231,-0.009662
2807,-0.010555,-0.009543,-0.009662
2808,0.012412,-0.009543,0.004761
2809,-0.010555,-0.025317,0.004761
2810,0.012412,-0.009543,-0.009662
2811,-0.010555,-0.025317,0.004761
2812,-0.033523,0.006231,-0.009662
2813,-0.05649,-0.009543,-0.009662
2814,-0.033523,-0.025317,0.004761
2815,0.012412,0.006231,-0.009662
2816,0.035379,-0.009543,-0.024086
2817,-0.05649,0.006231,-0.009662
2818,-0.05649,-0.009543,-0.009662
2819,-0.033523,-0.009543,0.019185
2820,-0.010555,-0.009543,-0.009662
2821,0.012412,0.006231,-0.009662
2822,0.012412,-0.009543,0.004761
2823,0.035379,-0.009543,0.004761
2824,0.058346,0.006231,-0.009662
2825,0.012412,0.006231,0.004761
2826,-0.033523,-0.009543,-0.009662
2827,0.035379,-0.025317,-0.009662
2828,0.012412,-0.041091,0.019185
2829,-0.010555,-0.009543,-0.009662
2830,-0.010555,-0.009543,0.004761
2831,0.012412,-0.009543,0.048033
2832,0.035379,0.006231,-0.009662
2833,-0.033523,-0.009543,0.004761
2834,-0.010555,0.006231,0.004761
2835,0.035379,0.006231,0.004761
2836,0.012412,0.022005,0.019185
2837,0.012412,-0.009543,0.004761
2838,-0.010555,-0.009543,0.033609
2839,0.012412,-0.009543,0.004761
2840,0.012412,-0.009543,0.004761
2841,-0.010555,-0.025317,-0.024086
2842,-0.010555,-0.009543,-0.009662
2843,-0.010555,-0.025317,-0.009662
2844,-0.033523,-0.025317,-0.009662
2845,-0.033523,0.006231,0.004761
2846,-0.010555,-0.025317,0.019185
2847,-0.010555,0.006231,0.019185
2848,-0.033523,-0.009543,0.004761
2849,-0.010555,-0.009543,0.004761
2850,0.012412,0.006231,-0.009662
2851,-0.010555,-0.009543,0.004761
2852,0.035379,-0.009543,-0.009662
2853,-0.010555,-0.009543,-0.009662
2854,0.012412,-0.009543,-0.009662
2855,0.012412,-0.009543,0.019185
2856,-0.010555,-0.009543,0.019185
2857,0.012412,-0.009543,0.004761
2858,0.035379,0.022005,-0.009662
2859,0.035379,0.006231,0.004761
2860,0.035379,-0.025317,-0.009662
2861,0.035379,-0.025317,0.004761
2862,0.012412,-0.009543,-0.009662
2863,0.035379,-0.009543,0.004761
2864,0.012412,-0.009543,-0.009662
2865,0.012412,0.006231,-0.009662
2866,0.058346,-0.009543,0.004761
2867,0.058346,-0.009543,0.004761
2868,0.012412,-0.009543,-0.009662
2869,-0.010555,0.006231,-0.009662
2870,0.035379,0.006231,0.019185
2871,-0.033523,0.006231,0.004761
2872,-0.05649,-0.009543,0.019185
2873,-0.033523,-0.009543,0.004761
2874,-0.05649,0.006231,0.004761
2875,-0.010555,0.006231,0.004761
2876,-0.010555,-0.009543,0.004761
2877,-0.05649,0.006231,0.004761
2878,-0.010555,-0.025317,-0.009662
2879,-0.033523,-0.041091,0.004761
2880,-0.05649,-0.025317,-0.009662
2881,-0.010555,-0.041091,-0.009662
2882,0.012412,-0.009543,0.004761
2883,0.058346,-0.009543,-0.024086
2884,-0.010555,-0.009543,-0.009662
2885,0.012412,-0.009543,-0.024086
2886,-0.033523,0.006231,0.004761
2887,0.035379,-0.009543,0.004761
2888,0.058346,-0.025317,0.004761
2889,0.012412,-0.009543,-0.009662
2890,-0.010555,-0.025317,0.004761
2891,0.058346,-0.009543,0.004761
2892,0.012412,-0.009543,-0.024086
2893,0.012412,-0.009543,-0.024086
2894,0.012412,-0.009543,-0.009662
2895,0.035379,-0.009543,-0.009662
2896,-0.010555,-0.025317,-0.009662
2897,0.035379,-0.025317,-0.024086
2898,-0.010555,-0.025317,0.004761
2899,0.012412,-0.009543,-0.009662
2900,-0.05649,0.006231,0.019185
2901,0.012412,-0.025317,-0.009662
2902,0.012412,-0.009543,-0.009662
2903,-0.033523,0.006231,-0.009662
2904,-0.033523,-0.009543,-0.009662
2905,0.012412,-0.009543,0.004761
2906,0.012412,-0.009543,-0.009662
2907,-0.010555,0.006231,-0.009662
2908,-0.010555,0.006231,-0.009662
2909,-0.010555,-0.009543,0.004761
2910,-0.010555,-0.025317,-0.009662
2911,-0.010555,0.006231,0.004761
2912,0.035379,0.006231,0.019185
2913,0.035379,-0.009543,0.048033
2914,0.035379,-0.025317,-0.009662
2915,0.012412,0.006231,0.004761
2916,-0.010555,-0.009543,-0.024086
2917,0.035379,-0.009543,-0.024086
2918,0.012412,-0.009543,-0.009662
2919,0.012412,0.006231,0.004761
2920,0.012412,0.006231,0.004761
2921,0.127248,-0.025317,-0.009662
2922,0.012412,-0.009543,0.019185
2923,-0.010555,-0.009543,-0.009662
2924,0.035379,-0.009543,0.004761
2925,0.012412,-0.009543,-0.009662
2926,-0.010555,-0.009543,0.004761
2927,0.012412,-0.025317,-0.009662
2928,0.058346,0.022005,0.004761
2929,0.012412,-0.009543,-0.009662
2930,-0.033523,-0.009543,0.004761
2931,-0.05649,-0.009543,-0.009662
2932,0.012412,0.006231,0.004761
2933,-0.010555,-0.009543,-0.024086
2934,0.012412,0.006231,0.004761
2935,-0.010555,-0.009543,-0.009662
2936,-0.010555,-0.025317,0.004761
2937,-0.033523,-0.009543,-0.009662
2938,-0.05649,-0.009543,0.004761
2939,-0.05649,-0.009543,0.004761
2940,0.012412,-0.009543,0.019185
2941,-0.010555,-0.009543,-0.009662
2942,-0.010555,0.006231,-0.009662
2943,0.012412,0.006231,0.004761
2944,0.012412,-0.009543,0.004761
2945,0.012412,-0.009543,0.019185
2946,0.012412,0.006231,0.019185
2947,0.012412,-0.025317,0.019185
2948,0.058346,-0.009543,0.004761
2949,0.012412,0.006231,-0.009662
2950,-0.010555,-0.009543,-0.024086
2951,0.058346,-0.009543,0.004761
2952,0.035379,0.006231,-0.024086
2953,-0.033523,-0.025317,-0.009662
2954,-0.033523,-0.025317,0.004761
2955,0.035379,-0.009543,0.004761
2956,0.058346,-0.009543,0.019185
2957,0.012412,-0.009543,0.019185
2958,-0.033523,-0.009543,0.004761
2959,0.012412,-0.009543,0.004761
2960,-0.010555,0.006231,-0.009662
2961,-0.033523,-0.009543,0.004761
2962,-0.010555,-0.025317,-0.009662
2963,0.012412,-0.009543,0.004761
2964,-0.05649,-0.025317,-0.024086
2965,-0.033523,-0.025317,-0.009662
2966,-0.033523,-0.025317,0.019185
2967,-0.010555,-0.009543,0.004761
2968,-0.010555,-0.009543,-0.009662
2969,-0.05649,-0.009543,-0.024086
2970,0.012412,-0.009543,-0.009662
2971,0.058346,0.006231,-0.009662
2972,-0.033523,-0.009543,-0.009662
2973,-0.010555,-0.025317,0.004761
2974,0.012412,0.006231,-0.009662
2975,-0.010555,0.022005,0.048033
2976,0.058346,-0.025317,-0.009662
2977,-0.010555,0.006231,0.019185
2978,0.012412,-0.025317,-0.009662
2979,0.012412,-0.025317,0.004761
2980,0.058346,0.006231,-0.009662
2981,-0.033523,-0.009543,-0.009662
2982,0.012412,-0.025317,0.004761
2983,0.035379,-0.025317,-0.009662
2984,0.035379,-0.009543,-0.009662
2985,-0.033523,-0.009543,0.004761
2986,0.035379,-0.025317,0.004761
2987,0.035379,-0.025317,0.004761
2988,-0.010555,-0.009543,0.004761
2989,0.012412,0.006231,0.004761
2990,0.035379,-0.009543,0.004761
2991,0.012412,0.006231,-0.009662
2992,-0.079457,0.006231,-0.024086
2993,-0.033523,-0.009543,-0.009662
2994,0.012412,-0.041091,-0.009662
2995,-0.05649,-0.009543,-0.009662
2996,-0.05649,-0.009543,0.004761
2997,-0.033523,-0.009543,0.019185
2998,-0.033523,-0.025317,-0.024086
2999,-0.033523,-0.009543,-0.024086
3000,-0.033523,-0.056865,-0.024086
3001,0.012412,0.006231,-0.009662
3002,0.035379,-0.009543,-0.009662
3003,0.012412,0.006231,0.019185
3004,-0.010555,-0.009543,0.019185
3005,0.035379,0.022005,0.004761
3006,0.058346,-0.009543,0.004761
3007,0.058346,-0.009543,-0.009662
3008,0.012412,-0.025317,0.004761
3009,0.012412,-0.025317,0.004761
3010,0.012412,0.006231,-0.024086
3011,0.035379,-0.009543,-0.009662
3012,0.035379,-0.025317,-0.009662
3013,0.012412,-0.009543,-0.009662
3014,0.058346,0.006231,-0.009662
3015,-0.010555,0.006231,0.004761
3016,-0.033523,-0.025317,0.004761
3017,0.035379,0.022005,-0.009662
3018,0.012412,-0.009543,-0.009662
3019,-0.010555,-0.009543,-0.024086
3020,-0.010555,-0.009543,-0.024086
3021,0.035379,-0.009543,-0.009662
3022,-0.010555,-0.009543,0.004761
3023,0.012412,-0.009543,-0.009662
3024,-0.05649,0.006231,-0.009662
3025,0.012412,0.006231,-0.009662
3026,-0.010555,-0.009543,0.004761
3027,-0.010555,-0.009543,0.004761
3028,-0.033523,-0.009543,0.004761
3029,-0.010555,-0.009543,0.019185
3030,-0.010555,0.006231,0.019185
3031,-0.033523,-0.009543,0.004761
3032,0.035379,0.006231,-0.009662
3033,0.012412,-0.009543,-0.009662
3034,0.012412,-0.025317,-0.009662
3035,-0.05649,-0.025317,-0.009662
3036,0.035379,-0.041091,0.019185
3037,-0.033523,-0.025317,0.004761
3038,0.012412,-0.009543,-0.024086
3039,0.012412,0.006231,0.004761
3040,0.012412,-0.009543,-0.009662
3041,0.035379,0.006231,-0.009662
3042,0.058346,-0.009543,-0.009662
3043,0.012412,0.006231,0.004761
3044,0.035379,0.006231,0.004761
3045,-0.05649,-0.009543,0.004761
3046,-0.010555,0.006231,-0.024086
3047,-0.033523,-0.009543,-0.009662
3048,0.035379,-0.009543,-0.009662
3049,0.012412,-0.025317,-0.009662
3050,0.012412,-0.025317,0.004761
3051,-0.010555,0.006231,0.004761
3052,0.012412,-0.025317,-0.009662
3053,-0.010555,-0.009543,-0.009662
3054,0.012412,-0.009543,-0.009662
3055,0.012412,-0.009543,0.019185
3056,-0.010555,-0.025317,-0.009662
3057,-0.05649,-0.041091,-0.009662
3058,0.012412,0.006231,-0.009662
3059,-0.05649,-0.009543,-0.009662
3060,-0.010555,0.006231,0.004761
3061,-0.010555,-0.025317,-0.009662
3062,-0.05649,-0.009543,-0.009662
3063,-0.010555,-0.009543,-0.009662
3064,0.035379,0.006231,0.004761
3065,-0.033523,0.006231,0.004761
3066,-0.033523,-0.025317,0.019185
3067,0.012412,-0.009543,0.004761
3068,0.012412,0.006231,0.004761
3069,0.058346,0.006231,0.004761
3070,-0.010555,-0.009543,0.004761
3071,-0.010555,0.006231,-0.009662
3072,-0.033523,-0.009543,0.004761
3073,0.035379,0.006231,-0.009662
3074,-0.033523,-0.025317,0.004761
3075,-0.010555,-0.025317,0.019185
3076,-0.033523,-0.009543,-0.009662
3077,0.012412,-0.009543,-0.009662
3078,0.035379,-0.041091,-0.009662
3079,0.012412,0.006231,-0.024086
3080,0.035379,-0.025317,-0.009662
3081,-0.010555,-0.025317,-0.009662
3082,-0.033523,-0.009543,-0.009662
3083,0.035379,-0.009543,0.004761
3084,0.012412,0.006231,0.004761
3085,-0.010555,0.006231,0.004761
3086,-0.010555,0.022005,-0.009662
3087,0.035379,-0.009543,0.004761
3088,-0.010555,-0.025317,-0.009662
3089,0.012412,-0.009543,-0.009662
3090,-0.010555,0.006231,0.004761
3091,-0.033523,-0.009543,0.004761
3092,0.012412,-0.025317,-0.009662
3093,-0.010555,-0.009543,0.004761
3094,-0.010555,-0.009543,-0.009662
3095,-0.05649,-0.009543,-0.009662
3096,0.012412,-0.009543,-0.009662
3097,-0.010555,-0.009543,-0.009662
3098,-0.010555,-0.025317,-0.009662
3099,-0.010555,-0.009543,0.004761
3100,0.012412,-0.009543,-0.009662
3101,-0.05649,-0.009543,0.004761
3102,-0.010555,-0.009543,-0.009662
3103,0.012412,-0.025317,-0.024086
3104,0.012412,-0.009543,0.019185
3105,-0.010555,-0.009543,0.004761
3106,0.012412,-0.009543,0.019185
3107,0.012412,-0.009543,0.004761
3108,-0.010555,0.006231,0.004761
3109,0.058346,-0.009543,-0.009662
3110,0.012412,-0.009543,0.004761
3111,0.058346,-0.025317,-0.009662
3112,0.035379,-0.009543,0.004761
3113,-0.010555,-0.025317,0.004761
3114,0.012412,-0.009543,-0.009662
3115,0.035379,-0.009543,-0.009662
3116,0.058346,-0.009543,0.019185
3117,0.012412,-0.009543,0.019185
3118,0.035379,-0.009543,0.004761
3119,0.012412,0.006231,0.004761
3120,0.012412,-0.009543,0.004761
3121,-0.010555,-0.009543,0.004761
3122,-0.010555,-0.009543,-0.009662
3123,0.058346,-0.009543,0.004761
3124,0.012412,-0.056865,0.004761
3125,-0.010555,0.022005,0.004761
3126,0.012412,-0.009543,-0.009662
3127,-0.010555,-0.009543,-0.009662
3128,0.012412,-0.025317,-0.009662
3129,0.012412,-0.041091,-0.009662
3130,-0.010555,-0.009543,-0.009662
3131,-0.033523,0.022005,-0.024086
3132,-0.010555,-0.009543,-0.009662
3133,-0.033523,-0.009543,0.004761
3134,-0.05649,-0.025317,-0.009662
3135,-0.010555,0.006231,0.004761
3136,-0.033523,-0.009543,0.004761
3137,0.012412,-0.056865,-0.009662
3138,-0.033523,-0.009543,0.004761
3139,-0.033523,-0.009543,-0.009662
3140,0.012412,-0.025317,-0.009662
3141,-0.010555,-0.025317,0.004761
3142,-0.010555,-0.009543,-0.024086
3143,0.035379,-0.009543,-0.009662
3144,0.035379,-0.009543,-0.024086
3145,0.035379,0.006231,-0.009662
3146,0.012412,-0.009543,-0.009662
3147,0.012412,-0.009543,0.004761
3148,0.012412,0.006231,0.004761
3149,0.012412,0.006231,0.019185
3150,-0.010555,0.069328,0.004761
3151,0.058346,-0.009543,0.004761
3152,-0.010555,-0.009543,0.004761
3153,-0.010555,-0.009543,-0.03851
3154,0.035379,-0.009543,-0.024086
3155,-0.010555,-0.009543,-0.009662
3156,0.035379,-0.025317,0.004761
3157,-0.010555,-0.009543,0.004761
3158,0.035379,-0.025317,0.004761
3159,0.035379,-0.009543,-0.009662
3160,-0.033523,-0.025317,-0.009662
3161,-0.05649,-0.025317,-0.009662
3162,-0.033523,-0.025317,-0.009662
3163,0.035379,-0.009543,-0.024086
3164,-0.010555,0.006231,0.033609
3165,-0.033523,0.006231,0.019185
3166,-0.033523,-0.025317,0.004761
3167,-0.033523,-0.041091,-0.009662
3168,-0.010555,-0.009543,0.004761
3169,-0.010555,-0.009543,0.004761
3170,0.012412,0.006231,-0.024086
3171,-0.010555,-0.009543,-0.009662
3172,-0.010555,0.006231,0.004761
3173,0.012412,-0.009543,-0.009662
3174,0.012412,0.006231,0.004761
3175,-0.033523,-0.041091,-0.009662
3176,-0.010555,-0.009543,0.004761
3177,0.012412,-0.009543,0.004761
3178,0.035379,-0.025317,0.019185
3179,0.035379,0.022005,0.019185
3180,0.058346,-0.009543,-0.009662
3181,0.035379,-0.009543,0.004761
3182,0.035379,-0.009543,0.004761
3183,0.035379,-0.009543,-0.009662
3184,0.035379,-0.025317,-0.009662
3185,0.035379,-0.009543,-0.009662
3186,0.035379,-0.009543,-0.009662
3187,-0.033523,0.006231,0.019185
3188,-0.010555,-0.025317,-0.009662
3189,0.012412,0.022005,0.004761
3190,0.012412,-0.009543,-0.009662
3191,-0.033523,0.006231,-0.009662
3192,-0.033523,-0.025317,-0.024086
3193,-0.010555,-0.009543,-0.024086
3194,-0.010555,-0.009543,-0.009662
3195,0.012412,-0.009543,0.004761
3196,-0.05649,-0.009543,-0.024086
3197,-0.010555,-0.009543,0.004761
3198,-0.010555,0.006231,0.004761
3199,-0.033523,-0.009543,0.004761
3200,-0.033523,-0.025317,-0.009662
3201,-0.010555,-0.025317,-0.009662
3202,0.012412,-0.025317,-0.009662
3203,-0.033523,-0.009543,0.004761
3204,0.035379,0.006231,0.048033
3205,0.035379,-0.025317,-0.024086
3206,0.058346,0.006231,-0.009662
3207,-0.033523,-0.009543,0.004761
3208,0.058346,-0.009543,0.004761
3209,0.012412,-0.009543,0.004761
3210,0.012412,-0.009543,0.004761
3211,-0.05649,0.006231,0.004761
3212,-0.010555,-0.009543,0.004761
3213,0.035379,0.006231,-0.009662
3214,0.035379,0.006231,0.019185
3215,0.012412,-0.009543,0.004761
3216,0.035379,-0.009543,-0.009662
3217,0.058346,-0.009543,-0.009662
3218,0.035379,-0.009543,0.004761
3219,0.012412,-0.009543,-0.009662
3220,0.058346,0.006231,0.033609
3221,0.035379,-0.009543,-0.024086
3222,-0.033523,-0.009543,0.004761
3223,-0.010555,-0.009543,0.004761
3224,-0.079457,-0.009543,0.004761
3225,0.012412,-0.009543,-0.009662
3226,-0.010555,-0.009543,0.004761
3227,-0.05649,-0.025317,-0.009662
3228,0.012412,-0.009543,0.004761
3229,0.035379,0.006231,-0.009662
3230,-0.033523,-0.009543,0.004761
3231,0.035379,-0.009543,-0.009662
3232,-0.079457,0.006231,-0.009662
3233,-0.033523,-0.025317,0.004761
3234,-0.05649,-0.009543,0.004761
3235,-0.010555,-0.009543,0.019185
3236,0.012412,0.006231,0.004761
3237,-0.010555,-0.009543,0.019185
3238,-0.05649,0.006231,0.004761
3239,-0.033523,-0.025317,-0.009662
3240,0.012412,-0.009543,-0.009662
3241,0.012412,-0.025317,0.004761
3242,-0.010555,-0.009543,-0.024086
3243,0.012412,-0.025317,-0.009662
3244,0.058346,-0.025317,-0.009662
3245,0.012412,-0.009543,0.004761
3246,0.012412,-0.025317,-0.009662
3247,0.012412,0.006231,0.019185
3248,0.012412,-0.025317,-0.009662
3249,0.012412,-0.041091,0.004761
3250,0.012412,-0.009543,0.004761
3251,0.058346,0.006231,0.004761
3252,-0.010555,-0.009543,0.004761
3253,0.012412,-0.025317,-0.024086
3254,0.012412,-0.009543,-0.024086
3255,0.012412,-0.009543,-0.009662
3256,0.012412,0.006231,0.004761
3257,0.012412,-0.009543,0.033609
3258,0.012412,-0.009543,0.004761
3259,-0.05649,-0.009543,0.004761
3260,0.081313,-0.009543,0.004761
3261,0.012412,0.006231,0.004761
3262,-0.010555,-0.009543,0.019185
3263,-0.033523,-0.009543,0.004761
3264,-0.033523,-0.025317,0.019185
3265,-0.033523,-0.009543,0.004761
3266,-0.010555,-0.025317,-0.009662
3267,0.012412,-0.009543,-0.009662
3268,0.012412,-0.025317,-0.024086
3269,-0.010555,-0.041091,-0.009662
3270,0.012412,-0.009543,-0.009662
3271,0.035379,-0.025317,-0.009662
3272,0.035379,-0.009543,-0.009662
3273,-0.033523,-0.025317,-0.024086
3274,-0.033523,-0.025317,-0.009662
3275,0.012412,-0.009543,-0.024086
3276,-0.010555,-0.009543,0.004761
3277,0.012412,-0.009543,0.004761
3278,0.012412,-0.041091,0.004761
3279,0.012412,-0.025317,0.004761
3280,0.058346,0.006231,0.004761
3281,0.035379,-0.009543,0.004761
3282,0.058346,-0.009543,0.004761
3283,0.012412,-0.009543,0.004761
3284,0.012412,-0.025317,-0.009662
3285,0.035379,0.006231,0.004761
3286,-0.010555,-0.009543,0.004761
3287,0.058346,0.006231,0.019185
3288,0.012412,-0.009543,-0.009662
3289,0.012412,-0.009543,-0.009662
3290,-0.010555,-0.009543,0.004761
3291,0.035379,0.022005,0.004761
3292,-0.010555,0.006231,-0.024086
3293,-0.010555,-0.009543,-0.009662
3294,-0.033523,-0.009543,-0.024086
3295,-0.079457,-0.009543,-0.009662
3296,0.035379,-0.009543,-0.009662
3297,0.012412,-0.025317,-0.009662
3298,-0.05649,-0.025317,-0.009662
3299,-0.033523,-0.041091,-0.009662
3300,-0.033523,0.006231,-0.009662
3301,-0.010555,0.006231,0.004761
3302,-0.033523,-0.009543,-0.009662
3303,0.035379,0.022005,0.004761
3304,-0.033523,-0.009543,-0.009662
3305,-0.010555,0.006231,0.004761
3306,-0.010555,-0.009543,0.004761
3307,0.012412,-0.009543,0.004761
3308,-0.010555,-0.025317,0.048033
3309,-0.010555,-0.009543,0.004761
3310,-0.010555,-0.009543,-0.024086
3311,0.012412,-0.009543,-0.009662
3312,-0.010555,-0.009543,0.004761
3313,-0.010555,0.006231,0.004761
3314,-0.033523,-0.025317,0.004761
3315,0.012412,-0.009543,-0.009662
3316,0.035379,-0.025317,0.004761
3317,0.035379,-0.009543,-0.009662
3318,-0.010555,-0.009543,0.033609
3319,0.058346,-0.009543,0.004761
3320,0.012412,0.006231,0.004761
3321,0.035379,-0.025317,0.004761
3322,-0.033523,0.006231,-0.009662
3323,0.058346,-0.025317,-0.009662
3324,-0.010555,-0.009543,-0.009662
3325,0.012412,-0.025317,-0.024086
3326,0.012412,-0.009543,-0.009662
3327,0.035379,-0.009543,0.004761
3328,-0.010555,-0.009543,0.004761
3329,-0.033523,-0.009543,-0.024086
3330,-0.010555,-0.041091,-0.024086
3331,0.012412,-0.025317,-0.024086
3332,-0.010555,-0.025317,-0.03851
3333,-0.033523,-0.009543,0.004761
3334,-0.010555,-0.009543,0.004761
3335,-0.010555,-0.009543,0.004761
3336,-0.05649,-0.009543,0.019185
3337,-0.010555,-0.009543,0.019185
3338,0.012412,-0.009543,-0.009662
3339,0.012412,0.006231,0.004761
3340,-0.010555,0.006231,-0.024086
3341,-0.033523,0.006231,0.004761
3342,0.012412,-0.009543,0.004761
3343,0.012412,-0.009543,-0.009662
3344,-0.010555,-0.025317,0.004761
3345,-0.010555,-0.025317,0.019185
3346,0.035379,0.006231,-0.009662
3347,0.035379,-0.009543,0.004761
3348,0.012412,0.006231,0.004761
3349,-0.010555,0.006231,0.019185
3350,0.012412,-0.009543,0.004761
3351,0.012412,0.006231,-0.024086
3352,-0.010555,-0.009543,0.004761
3353,0.012412,-0.009543,-0.024086
3354,0.035379,-0.025317,-0.009662
3355,0.012412,-0.009543,0.019185
3356,0.012412,-0.009543,0.004761
3357,-0.010555,-0.009543,0.004761
3358,0.058346,-0.025317,-0.009662
3359,0.058346,-0.009543,0.004761
3360,0.035379,-0.009543,0.004761
3361,-0.033523,-0.009543,0.004761
3362,0.058346,-0.009543,-0.009662
3363,0.012412,-0.025317,-0.024086
3364,-0.010555,-0.009543,-0.009662
3365,-0.010555,-0.009543,-0.009662
3366,0.012412,-0.041091,-0.009662
3367,-0.033523,-0.041091,-0.009662
3368,-0.033523,0.006231,-0.009662
3369,0.012412,0.006231,0.019185
3370,-0.033523,-0.009543,0.004761
3371,-0.010555,-0.009543,-0.024086
3372,-0.010555,-0.009543,0.004761
3373,-0.079457,-0.025317,-0.009662
3374,0.035379,-0.025317,0.004761
3375,0.012412,-0.009543,-0.009662
3376,0.012412,-0.025317,0.019185
3377,-0.033523,0.006231,-0.009662
3378,-0.010555,-0.009543,0.004761
3379,-0.010555,-0.009543,0.004761
3380,-0.05649,-0.009543,0.004761
3381,-0.033523,-0.025317,0.019185
3382,0.035379,-0.025317,0.004761
3383,0.035379,-0.009543,-0.009662
3384,-0.033523,-0.025317,-0.009662
3385,0.012412,-0.009543,0.004761
3386,0.035379,-0.009543,-0.009662
3387,-0.010555,0.006231,-0.024086
3388,0.012412,-0.025317,-0.024086
3389,0.035379,-0.009543,-0.009662
3390,0.035379,-0.009543,-0.009662
3391,-0.010555,-0.009543,-0.009662
3392,-0.033523,0.006231,0.004761
3393,0.035379,-0.009543,0.004761
3394,0.081313,0.006231,0.004761
3395,-0.010555,-0.009543,0.004761
3396,-0.033523,-0.025317,0.004761
3397,0.012412,-0.025317,0.004761
3398,0.035379,-0.009543,-0.009662
3399,0.012412,0.006231,0.004761
3400,0.012412,-0.009543,0.004761
3401,-0.033523,0.006231,0.004761
3402,0.012412,-0.009543,0.019185
3403,-0.033523,-0.025317,0.004761
3404,-0.05649,-0.009543,0.004761
3405,-0.010555,-0.025317,-0.009662
3406,-0.033523,-0.009543,-0.024086
3407,0.035379,-0.009543,0.004761
3408,-0.010555,-0.009543,0.004761
3409,-0.010555,-0.025317,-0.009662
3410,0.012412,-0.009543,-0.024086
3411,0.012412,-0.009543,0.004761
3412,-0.010555,0.006231,0.019185
3413,-0.010555,-0.009543,0.004761
3414,0.012412,-0.009543,0.004761
3415,-0.079457,-0.009543,0.004761
3416,-0.010555,-0.009543,-0.009662
3417,0.012412,-0.009543,-0.024086
3418,-0.010555,-0.009543,-0.009662
3419,0.058346,0.006231,0.004761
3420,-0.05649,-0.009543,0.048033
3421,0.035379,-0.009543,-0.009662
3422,0.012412,-0.009543,0.019185
3423,-0.010555,-0.009543,-0.024086
3424,-0.033523,-0.009543,0.004761
3425,-0.010555,-0.009543,-0.009662
3426,0.058346,0.006231,0.004761
3427,-0.010555,0.006231,0.004761
3428,0.035379,-0.041091,-0.009662
3429,0.081313,0.006231,-0.009662
3430,0.012412,-0.009543,-0.009662
3431,0.012412,-0.009543,-0.024086
3432,-0.05649,-0.009543,-0.009662
3433,-0.010555,-0.025317,-0.024086
3434,-0.010555,0.022005,-0.009662
3435,-0.010555,0.006231,-0.009662
3436,-0.010555,0.006231,-0.009662
3437,0.035379,-0.009543,0.004761
3438,-0.033523,0.022005,-0.024086
3439,0.012412,0.006231,-0.024086
3440,-0.033523,-0.009543,0.004761
3441,-0.033523,0.006231,0.004761
3442,-0.010555,0.006231,-0.009662
3443,0.058346,-0.025317,-0.009662
3444,-0.033523,-0.009543,0.004761
3445,-0.033523,-0.009543,0.004761
3446,0.012412,0.022005,-0.009662
3447,-0.033523,-0.009543,0.004761
3448,-0.010555,-0.009543,-0.009662
3449,0.012412,-0.009543,0.004761
3450,-0.010555,-0.009543,0.019185
3451,-0.010555,-0.009543,0.004761
3452,0.058346,-0.025317,0.004761
3453,0.035379,-0.009543,0.004761
3454,0.012412,-0.009543,-0.024086
3455,0.035379,-0.009543,-0.024086
3456,0.012412,-0.009543,-0.009662
3457,-0.010555,-0.009543,-0.009662
3458,0.035379,-0.025317,-0.009662
3459,0.012412,-0.009543,-0.024086
3460,0.012412,0.006231,-0.009662
3461,0.012412,-0.025317,0.019185
3462,0.035379,-0.009543,0.004761
3463,-0.010555,0.006231,-0.009662
3464,-0.010555,0.006231,-0.024086
3465,-0.010555,0.006231,-0.009662
3466,-0.010555,-0.025317,-0.009662
3467,-0.05649,0.006231,-0.009662
3468,0.012412,0.006231,0.004761
3469,0.058346,-0.009543,-0.009662
3470,-0.033523,-0.009543,0.033609
3471,-0.033523,0.022005,0.048033
3472,0.012412,0.022005,0.004761
3473,0.058346,0.006231,-0.009662
3474,-0.010555,0.006231,-0.009662
3475,0.012412,-0.025317,-0.009662
3476,-0.010555,-0.025317,-0.024086
3477,0.012412,-0.025317,-0.024086
3478,-0.010555,-0.009543,-0.009662
3479,0.012412,-0.009543,0.004761
3480,-0.010555,-0.025317,0.004761
3481,-0.033523,-0.009543,0.004761
3482,-0.05649,-0.009543,0.019185
3483,-0.033523,0.006231,0.004761
3484,-0.010555,-0.009543,0.019185
3485,0.058346,-0.025317,0.004761
3486,-0.033523,-0.025317,0.004761
3487,-0.033523,-0.009543,0.004761
3488,0.012412,0.006231,0.004761
3489,0.081313,-0.009543,0.004761
3490,-0.010555,0.006231,0.004761
3491,0.012412,0.006231,-0.009662
3492,0.058346,-0.009543,-0.024086
3493,0.035379,-0.025317,0.004761
3494,-0.033523,-0.009543,0.019185
3495,0.035379,-0.025317,-0.009662
3496,0.035379,-0.009543,0.004761
3497,-0.010555,-0.009543,0.004761
3498,0.012412,-0.009543,0.019185
3499,0.058346,0.006231,0.004761
3500,0.035379,-0.041091,0.004761
3501,0.012412,-0.025317,-0.009662
3502,0.012412,-0.009543,0.004761
3503,0.035379,0.006231,0.004761
3504,0.058346,-0.009543,0.004761
3505,-0.010555,-0.009543,0.004761
3506,-0.033523,-0.009543,-0.009662
3507,-0.033523,-0.009543,-0.009662
3508,0.012412,-0.025317,-0.024086
3509,-0.05649,-0.009543,-0.009662
3510,-0.033523,-0.009543,-0.009662
3511,-0.010555,-0.009543,-0.009662
3512,-0.010555,0.006231,0.004761
3513,-0.033523,0.006231,0.004761
3514,-0.05649,-0.009543,0.004761
3515,-0.033523,-0.009543,-0.024086
3516,0.035379,0.006231,-0.009662
3517,-0.010555,-0.009543,-0.009662
3518,0.035379,-0.025317,-0.009662
3519,0.035379,-0.009543,-0.009662
3520,0.035379,0.006231,0.019185
3521,-0.033523,0.006231,0.004761
3522,0.012412,0.006231,0.004761
3523,-0.010555,-0.009543,-0.009662
3524,-0.010555,-0.009543,-0.009662
3525,0.035379,0.006231,0.019185
3526,-0.010555,-0.009543,0.004761
3527,0.012412,-0.025317,-0.009662
3528,0.035379,-0.009543,-0.009662
3529,0.012412,0.006231,-0.009662
3530,0.058346,0.006231,0.004761
3531,0.035379,-0.025317,0.019185
3532,-0.033523,0.006231,-0.024086
3533,-0.010555,-0.009543,-0.024086
3534,-0.010555,-0.009543,-0.009662
3535,-0.010555,-0.009543,0.004761
3536,0.035379,0.022005,-0.009662
3537,0.035379,-0.009543,0.019185
3538,-0.05649,-0.025317,0.004761
3539,-0.010555,0.006231,0.004761
3540,0.012412,-0.009543,-0.009662
3541,-0.010555,-0.025317,0.004761
3542,0.012412,0.006231,-0.009662
3543,-0.05649,-0.009543,0.004761
3544,-0.033523,-0.009543,-0.024086
3545,-0.010555,-0.009543,-0.024086
3546,0.012412,-0.009543,0.004761
3547,-0.033523,-0.009543,-0.009662
3548,-0.05649,-0.009543,-0.009662
3549,-0.05649,-0.009543,-0.009662
3550,-0.010555,-0.025317,0.019185
3551,0.012412,0.006231,-0.009662
3552,0.035379,-0.009543,-0.009662
3553,-0.010555,0.006231,0.004761
3554,0.012412,0.006231,0.004761
3555,0.035379,-0.009543,0.004761
3556,-0.010555,-0.025317,-0.009662
3557,0.035379,-0.041091,-0.009662
3558,0.035379,-0.009543,0.004761
3559,0.035379,0.006231,-0.009662
3560,-0.033523,-0.009543,-0.009662
3561,0.012412,0.006231,0.004761
3562,-0.010555,-0.009543,-0.009662
3563,0.035379,0.006231,-0.024086
3564,-0.010555,-0.025317,-0.024086
3565,-0.010555,-0.025317,0.004761
3566,0.081313,-0.009543,0.004761
3567,0.012412,-0.009543,-0.009662
3568,-0.033523,-0.025317,0.004761
3569,-0.033523,0.006231,0.004761
3570,0.035379,0.006231,0.019185
3571,0.058346,0.006231,0.004761
3572,-0.010555,-0.009543,0.004761
3573,0.035379,-0.025317,0.004761
3574,-0.033523,-0.009543,-0.009662
3575,0.012412,-0.041091,0.004761
3576,-0.010555,-0.009543,0.019185
3577,-0.05649,-0.025317,-0.009662
3578,-0.010555,0.006231,-0.009662
3579,-0.010555,-0.041091,-0.009662
3580,-0.05649,-0.009543,0.004761
3581,-0.033523,-0.041091,0.004761
3582,-0.010555,0.006231,0.019185
3583,-0.033523,0.006231,0.004761
3584,-0.010555,-0.025317,-0.009662
3585,-0.033523,0.006231,-0.009662
3586,-0.010555,-0.025317,-0.009662
3587,0.058346,-0.009543,-0.009662
3588,-0.05649,-0.009543,-0.024086
3589,0.012412,0.006231,-0.009662
3590,-0.033523,0.006231,-0.009662
3591,0.035379,0.006231,-0.009662
3592,-0.033523,-0.009543,-0.009662
3593,-0.010555,-0.009543,0.004761
3594,-0.010555,-0.009543,0.004761
3595,0.012412,-0.009543,-0.009662
