# Requested Sampling Rate (Hz):,1000
# Actual Sampling Rate (Hz):,998.947
# Requested Duration (s):,5.0
# Actual Duration (s):,5.047
# REST Calibration:,832.0600347222207,831.6700347222207,832.6898611111126
# MAX Calibration:,886.0000,887.0000,888.0000
# Normalization: MVC-based  (x_norm = (x - REST) / (MAX - REST))
sample_idx,EMG1,EMG2,EMG3
0,-0.001113,0.024037,0.023687
1,-0.019652,0.005964,-0.012473
2,-0.001113,0.005964,-0.012473
3,-0.001113,0.005964,0.023687
4,-0.001113,0.005964,0.023687
5,-0.001113,0.005964,0.005607
6,-0.019652,0.005964,0.023687
7,-0.001113,-0.01211,0.005607
8,-0.001113,-0.01211,-0.012473
9,-0.019652,0.005964,-0.048632
10,0.017426,-0.01211,-0.012473
11,-0.001113,-0.01211,-0.030552
12,-0.019652,0.005964,-0.012473
13,-0.001113,0.024037,0.005607
14,-0.001113,-0.01211,-0.012473
15,-0.001113,0.005964,-0.030552
16,-0.019652,0.005964,0.005607
17,-0.019652,0.005964,0.023687
18,-0.001113,0.04211,0.041767
19,0.017426,0.005964,0.023687
20,0.017426,0.024037,0.023687
21,-0.001113,-0.01211,0.023687
22,0.017426,0.005964,0.005607
23,0.017426,-0.01211,-0.012473
24,0.017426,-0.01211,0.005607
25,-0.019652,0.005964,0.005607
26,-0.038191,0.005964,-0.012473
27,-0.001113,0.005964,-0.012473
28,-0.001113,0.005964,0.005607
29,-0.019652,0.005964,0.005607
30,-0.019652,0.005964,-0.012473
31,-0.019652,0.005964,0.005607
32,-0.001113,0.005964,0.005607
33,-0.019652,0.024037,-0.012473
34,0.017426,0.005964,0.023687
35,-0.001113,0.005964,0.023687
36,-0.019652,-0.01211,0.023687
37,-0.001113,0.024037,0.023687
38,-0.019652,0.005964,0.005607
39,-0.019652,0.005964,0.005607
40,-0.001113,0.005964,-0.012473
41,-0.001113,-0.01211,0.023687
42,-0.001113,-0.01211,-0.012473
43,-0.001113,0.005964,-0.012473
44,-0.019652,0.005964,-0.030552
45,-0.019652,-0.01211,-0.012473
46,-0.019652,-0.01211,-0.030552
47,-0.001113,0.005964,-0.030552
48,-0.001113,-0.030183,-0.012473
49,-0.001113,0.024037,0.005607
50,-0.019652,0.005964,-0.012473
51,-0.001113,0.024037,0.005607
52,0.035965,0.024037,0.023687
53,-0.001113,-0.01211,0.041767
54,0.017426,0.024037,0.005607
55,-0.001113,0.024037,0.005607
56,-0.001113,0.024037,0.023687
57,-0.019652,-0.01211,0.023687
58,-0.019652,0.005964,-0.030552
59,-0.001113,-0.01211,0.023687
60,-0.001113,-0.01211,0.005607
61,-0.001113,0.005964,-0.012473
62,-0.001113,0.005964,-0.012473
63,-0.001113,0.005964,-0.012473
64,0.017426,0.005964,0.005607
65,-0.038191,0.005964,-0.012473
66,-0.001113,0.005964,0.005607
67,-0.019652,0.005964,0.023687
68,-0.019652,-0.01211,-0.030552
69,-0.019652,0.005964,0.005607
70,-0.019652,0.024037,0.005607
71,-0.001113,0.024037,0.023687
72,-0.019652,-0.01211,0.005607
73,-0.001113,0.024037,0.023687
74,-0.019652,0.005964,0.023687
75,-0.019652,-0.01211,0.005607
76,-0.019652,0.005964,-0.030552
77,-0.001113,-0.01211,0.005607
78,-0.001113,0.005964,0.005607
79,-0.001113,0.024037,-0.012473
80,-0.001113,-0.01211,-0.030552
81,-0.019652,0.005964,0.005607
82,-0.019652,-0.01211,-0.030552
83,-0.001113,0.005964,-0.012473
84,-0.019652,-0.01211,0.005607
85,-0.038191,-0.01211,0.005607
86,-0.019652,0.005964,-0.012473
87,-0.001113,-0.01211,0.023687
88,-0.019652,0.005964,0.005607
89,-0.001113,0.005964,0.005607
90,-0.001113,0.024037,0.005607
91,0.035965,0.024037,0.023687
92,-0.019652,0.005964,0.005607
93,-0.038191,0.005964,-0.012473
94,0.017426,0.024037,-0.030552
95,0.017426,0.005964,0.005607
96,0.017426,-0.01211,-0.012473
97,-0.001113,0.005964,-0.030552
98,0.017426,0.005964,-0.012473
99,-0.038191,-0.01211,-0.012473
100,-0.001113,0.005964,-0.030552
101,-0.001113,-0.01211,0.005607
102,-0.001113,0.005964,-0.012473
103,-0.019652,0.005964,-0.012473
104,-0.001113,-0.01211,0.005607
105,-0.019652,-0.01211,0.005607
106,-0.001113,0.005964,0.041767
107,-0.019652,0.005964,0.005607
108,-0.001113,-0.01211,0.023687
109,-0.001113,0.005964,0.023687
110,-0.001113,0.024037,0.005607
111,-0.001113,0.005964,0.005607
112,-0.001113,0.04211,0.023687
113,-0.001113,0.024037,0.023687
114,-0.001113,0.005964,-0.012473
115,-0.001113,0.005964,-0.030552
116,-0.019652,0.005964,-0.030552
117,-0.001113,0.024037,-0.030552
118,-0.038191,-0.01211,-0.012473
119,0.017426,0.005964,0.005607
120,-0.001113,0.005964,0.023687
121,-0.038191,0.005964,-0.012473
122,-0.001113,0.005964,-0.012473
123,-0.001113,0.005964,0.023687
124,-0.001113,0.005964,0.005607
125,-0.001113,0.005964,0.005607
126,-0.019652,0.005964,0.005607
127,-0.001113,0.005964,0.005607
128,-0.019652,0.005964,0.005607
129,-0.019652,0.005964,0.023687
130,-0.019652,0.005964,0.023687
131,0.017426,0.024037,0.005607
132,0.017426,0.024037,-0.012473
133,-0.019652,0.024037,0.005607
134,-0.019652,0.024037,-0.012473
135,0.017426,0.005964,-0.030552
136,-0.001113,0.024037,0.005607
137,-0.001113,0.005964,0.005607
138,-0.019652,0.005964,0.023687
139,-0.019652,-0.01211,0.005607
140,-0.019652,-0.01211,0.023687
141,-0.001113,-0.01211,0.023687
142,-0.001113,0.005964,0.005607
143,-0.001113,-0.01211,0.023687
144,-0.001113,0.005964,0.023687
145,-0.001113,-0.01211,-0.012473
146,-0.001113,-0.01211,0.005607
147,-0.001113,0.024037,0.005607
148,0.017426,0.005964,-0.012473
149,-0.019652,-0.01211,-0.012473
150,-0.001113,-0.01211,-0.012473
151,-0.019652,0.005964,0.005607
152,0.017426,-0.01211,-0.012473
153,-0.019652,0.005964,0.005607
154,0.017426,0.024037,0.005607
155,0.017426,0.005964,0.005607
156,-0.001113,0.024037,-0.012473
157,-0.019652,0.024037,0.005607
158,-0.001113,0.005964,0.023687
159,-0.019652,-0.030183,0.023687
160,-0.019652,0.005964,-0.012473
161,-0.019652,-0.01211,0.023687
162,-0.001113,0.005964,0.005607
163,0.017426,0.005964,-0.012473
164,-0.001113,0.005964,-0.030552
165,-0.001113,0.005964,0.077927
166,-0.038191,-0.01211,-0.012473
167,-0.019652,0.024037,0.005607
168,-0.001113,0.005964,-0.012473
169,-0.001113,0.005964,-0.030552
170,-0.001113,-0.01211,-0.012473
171,-0.001113,0.005964,0.023687
172,0.017426,0.005964,0.005607
173,0.017426,0.005964,0.023687
174,-0.001113,0.024037,0.005607
175,0.017426,0.005964,0.023687
176,-0.001113,0.005964,-0.012473
177,-0.019652,0.005964,0.005607
178,-0.001113,0.005964,0.005607
179,-0.001113,0.005964,0.005607
180,-0.001113,0.005964,0.005607
181,-0.001113,0.005964,-0.012473
182,-0.001113,0.005964,-0.030552
183,-0.001113,0.005964,0.005607
184,-0.001113,0.005964,-0.030552
185,-0.001113,0.024037,-0.012473
186,-0.001113,0.005964,0.005607
187,0.017426,0.024037,-0.012473
188,-0.001113,0.005964,0.005607
189,-0.001113,0.005964,0.023687
190,-0.001113,0.005964,0.023687
191,-0.001113,0.005964,0.023687
192,-0.001113,0.005964,0.005607
193,-0.001113,0.005964,0.023687
194,-0.001113,0.024037,0.005607
195,-0.001113,0.024037,-0.012473
196,-0.001113,0.005964,0.041767
197,-0.019652,0.005964,0.005607
198,0.017426,0.005964,-0.012473
199,-0.001113,-0.030183,-0.030552
200,-0.001113,0.005964,0.005607
201,-0.019652,-0.01211,0.005607
202,-0.001113,0.005964,-0.030552
203,0.017426,0.005964,0.005607
204,-0.001113,0.005964,0.005607
205,0.017426,0.005964,-0.012473
206,-0.001113,0.005964,0.005607
207,-0.001113,-0.01211,0.005607
208,-0.001113,0.005964,0.005607
209,-0.001113,0.005964,0.005607
210,-0.001113,0.005964,0.005607
211,-0.001113,0.005964,0.023687
212,-0.019652,0.024037,-0.012473
213,0.017426,0.005964,0.005607
214,-0.001113,0.005964,0.005607
215,-0.001113,0.005964,0.023687
216,-0.019652,0.024037,0.023687
217,-0.019652,0.005964,0.005607
218,-0.019652,-0.01211,-0.012473
219,0.017426,0.005964,-0.048632
220,-0.019652,0.005964,0.005607
221,-0.001113,0.005964,-0.012473
222,-0.001113,0.005964,-0.048632
223,-0.019652,0.024037,-0.012473
224,-0.001113,0.005964,0.005607
225,-0.001113,-0.01211,0.023687
226,-0.001113,0.005964,0.023687
227,-0.019652,0.024037,0.023687
228,0.035965,0.024037,0.023687
229,-0.001113,0.024037,0.023687
230,-0.001113,0.024037,0.005607
231,0.017426,0.024037,0.005607
232,-0.001113,0.005964,-0.012473
233,-0.019652,-0.01211,-0.030552
234,-0.019652,-0.01211,-0.030552
235,-0.019652,0.005964,-0.012473
236,-0.001113,-0.01211,-0.012473
237,-0.001113,0.024037,-0.012473
238,-0.001113,0.005964,0.005607
239,-0.001113,0.005964,0.023687
240,-0.019652,0.04211,0.005607
241,-0.001113,0.005964,-0.012473
242,-0.001113,0.005964,0.023687
243,-0.001113,0.005964,0.041767
244,-0.001113,0.024037,0.023687
245,-0.038191,0.005964,0.041767
246,-0.019652,0.005964,0.005607
247,-0.019652,0.005964,-0.012473
248,-0.038191,-0.01211,-0.012473
249,-0.019652,0.005964,0.005607
250,0.017426,-0.01211,-0.012473
251,0.054504,0.005964,-0.012473
252,0.035965,0.005964,-0.012473
253,0.035965,0.005964,-0.012473
254,-0.001113,0.024037,-0.012473
255,0.017426,0.005964,-0.030552
256,0.017426,0.024037,0.005607
257,-0.001113,0.005964,-0.030552
258,-0.019652,0.005964,-0.012473
259,-0.001113,0.005964,0.005607
260,-0.019652,-0.01211,0.005607
261,-0.001113,0.005964,0.023687
262,-0.019652,0.024037,0.023687
263,0.017426,0.005964,0.023687
264,-0.019652,0.005964,0.005607
265,-0.038191,-0.01211,-0.012473
266,-0.019652,0.005964,0.005607
267,-0.019652,0.024037,0.005607
268,-0.001113,0.005964,-0.030552
269,-0.001113,0.005964,-0.030552
270,-0.019652,0.005964,-0.012473
271,-0.001113,0.005964,-0.030552
272,0.017426,0.024037,-0.012473
273,0.017426,0.005964,0.005607
274,-0.001113,0.005964,0.023687
275,-0.001113,0.005964,0.023687
276,-0.001113,-0.01211,0.023687
277,-0.001113,0.024037,0.041767
278,-0.001113,0.024037,0.023687
279,0.017426,0.005964,0.023687
280,-0.001113,0.005964,0.041767
281,-0.001113,0.005964,0.023687
282,-0.001113,0.024037,0.023687
283,-0.001113,0.024037,-0.012473
284,-0.001113,-0.01211,0.023687
285,-0.019652,-0.01211,-0.030552
286,-0.019652,0.005964,-0.030552
287,-0.019652,0.024037,-0.012473
288,-0.001113,-0.01211,-0.012473
289,-0.001113,-0.01211,-0.048632
290,-0.001113,0.005964,-0.012473
291,0.017426,0.005964,-0.012473
292,-0.001113,0.024037,0.041767
293,-0.001113,-0.01211,-0.012473
294,-0.019652,-0.01211,0.023687
295,-0.001113,0.005964,0.041767
296,-0.001113,0.024037,0.005607
297,-0.019652,0.005964,0.041767
298,-0.019652,0.005964,0.041767
299,-0.001113,0.024037,0.005607
300,-0.019652,0.005964,-0.012473
301,0.017426,0.005964,0.005607
302,-0.038191,0.024037,-0.012473
303,-0.001113,0.024037,-0.012473
304,-0.038191,0.005964,-0.030552
305,-0.038191,0.005964,0.005607
306,-0.038191,-0.01211,-0.030552
307,-0.05673,-0.01211,-0.012473
308,0.017426,0.005964,0.005607
309,0.035965,0.005964,0.005607
310,0.054504,0.024037,-0.012473
311,0.035965,-0.01211,0.023687
312,0.035965,0.005964,0.023687
313,-0.019652,0.005964,0.005607
314,-0.019652,0.005964,0.005607
315,-0.038191,0.024037,0.041767
316,-0.038191,-0.01211,0.005607
317,-0.038191,-0.01211,-0.012473
318,-0.038191,0.005964,-0.012473
319,-0.019652,0.005964,0.005607
320,0.017426,0.024037,-0.012473
321,0.035965,0.005964,-0.030552
322,0.017426,0.005964,0.005607
323,-0.001113,0.005964,-0.030552
324,0.017426,0.005964,-0.012473
325,-0.001113,0.005964,-0.012473
326,-0.019652,0.005964,0.005607
327,-0.001113,0.005964,0.023687
328,-0.019652,0.005964,-0.012473
329,0.017426,-0.01211,0.023687
330,-0.001113,0.005964,0.005607
331,-0.001113,0.005964,-0.012473
332,-0.001113,0.005964,0.023687
333,-0.001113,0.024037,-0.012473
334,0.035965,0.005964,-0.012473
335,-0.019652,0.005964,-0.012473
336,-0.019652,0.024037,-0.030552
337,-0.019652,-0.01211,0.005607
338,-0.001113,0.005964,-0.012473
339,-0.019652,0.024037,-0.030552
340,-0.019652,0.005964,-0.012473
341,-0.001113,0.005964,-0.030552
342,-0.038191,0.024037,-0.012473
343,0.035965,0.005964,0.023687
344,0.017426,0.005964,0.041767
345,0.017426,0.024037,0.023687
346,-0.001113,0.005964,0.023687
347,-0.038191,-0.01211,0.041767
348,-0.038191,0.005964,-0.012473
349,-0.05673,-0.01211,0.005607
350,-0.001113,0.005964,0.041767
351,0.017426,0.024037,0.023687
352,-0.001113,0.024037,0.005607
353,-0.038191,0.005964,-0.012473
354,-0.019652,0.005964,-0.012473
355,0.017426,0.005964,-0.012473
356,0.073044,0.024037,-0.030552
357,0.128661,0.005964,0.005607
358,0.110122,0.005964,0.005607
359,0.035965,0.005964,-0.030552
360,-0.001113,0.005964,0.023687
361,-0.001113,0.005964,0.005607
362,-0.038191,-0.01211,0.023687
363,-0.112348,0.005964,0.005607
364,-0.05673,0.024037,0.023687
365,-0.038191,0.005964,0.023687
366,-0.001113,0.024037,0.023687
367,-0.019652,0.005964,0.041767
368,-0.001113,-0.01211,0.005607
369,-0.038191,0.024037,-0.012473
370,-0.019652,0.005964,-0.030552
371,-0.038191,0.005964,-0.030552
372,-0.019652,-0.01211,-0.012473
373,-0.019652,0.024037,-0.012473
374,0.035965,0.005964,0.005607
375,0.165739,0.024037,0.005607
376,0.202817,0.024037,-0.012473
377,0.184278,0.005964,-0.012473
378,0.1472,0.005964,0.023687
379,0.110122,0.005964,0.023687
380,0.054504,0.005964,0.023687
381,-0.093809,-0.01211,0.005607
382,-0.260661,0.005964,0.041767
383,-0.242122,-0.01211,0.023687
384,-0.167965,0.005964,0.005607
385,-0.07527,-0.01211,0.041767
386,-0.093809,0.024037,0.023687
387,-0.038191,0.024037,-0.012473
388,-0.038191,0.005964,-0.048632
389,-0.019652,-0.01211,-0.030552
390,-0.038191,-0.01211,-0.012473
391,-0.001113,-0.01211,-0.048632
392,-0.001113,-0.030183,-0.012473
393,-0.001113,-0.01211,0.005607
394,0.017426,0.024037,-0.012473
395,-0.001113,0.005964,0.005607
396,-0.001113,0.024037,0.041767
397,-0.019652,0.005964,0.041767
398,-0.019652,0.005964,0.023687
399,-0.001113,0.005964,0.023687
400,-0.001113,0.024037,0.023687
401,-0.038191,0.005964,0.023687
402,-0.05673,-0.01211,-0.012473
403,-0.038191,-0.01211,-0.012473
404,0.035965,0.005964,-0.012473
405,0.073044,0.04211,-0.012473
406,-0.001113,0.024037,-0.012473
407,-0.07527,-0.030183,-0.012473
408,-0.038191,-0.01211,-0.012473
409,-0.019652,0.005964,-0.012473
410,0.017426,0.005964,0.005607
411,0.128661,0.005964,-0.030552
412,0.035965,0.024037,-0.012473
413,0.017426,-0.030183,0.005607
414,0.017426,0.005964,0.023687
415,-0.001113,0.005964,0.005607
416,-0.001113,0.024037,0.005607
417,-0.019652,0.005964,0.041767
418,-0.019652,0.005964,-0.012473
419,-0.001113,0.005964,-0.012473
420,-0.001113,0.005964,0.023687
421,-0.001113,-0.01211,0.005607
422,0.035965,0.024037,-0.012473
423,0.017426,0.005964,-0.030552
424,0.017426,0.005964,-0.012473
425,0.035965,0.024037,-0.030552
426,0.110122,0.024037,-0.030552
427,0.221357,0.04211,0.005607
428,0.239896,0.024037,0.023687
429,0.184278,0.024037,-0.012473
430,0.184278,0.04211,-0.012473
431,0.165739,-0.01211,-0.012473
432,-0.038191,-0.030183,0.005607
433,-0.316278,-0.06633,0.005607
434,-0.371896,-0.01211,0.023687
435,-0.149426,0.024037,0.041767
436,-0.093809,0.005964,0.005607
437,-0.112348,0.024037,0.023687
438,-0.05673,-0.01211,0.023687
439,-0.019652,0.005964,0.023687
440,-0.05673,0.005964,-0.012473
441,-0.05673,0.024037,-0.012473
442,-0.019652,0.024037,-0.012473
443,-0.001113,-0.01211,-0.012473
444,-0.001113,-0.030183,-0.012473
445,-0.038191,0.005964,0.005607
446,-0.038191,-0.01211,0.005607
447,-0.019652,-0.01211,-0.012473
448,-0.001113,0.005964,0.005607
449,-0.038191,0.005964,0.005607
450,-0.019652,0.005964,0.005607
451,-0.038191,-0.030183,0.005607
452,-0.001113,0.005964,0.005607
453,0.017426,-0.01211,0.005607
454,0.073044,0.005964,0.023687
455,0.035965,0.024037,0.023687
456,-0.019652,-0.01211,-0.012473
457,-0.038191,-0.01211,-0.012473
458,-0.019652,0.005964,-0.012473
459,0.054504,0.060184,0.023687
460,0.073044,0.060184,0.005607
461,0.091583,0.060184,0.005607
462,0.035965,0.024037,0.023687
463,0.073044,0.024037,0.023687
464,0.073044,0.024037,-0.012473
465,0.054504,0.005964,-0.012473
466,-0.019652,0.024037,0.005607
467,-0.038191,0.024037,0.005607
468,-0.093809,0.005964,0.005607
469,-0.112348,0.024037,0.023687
470,-0.05673,0.005964,-0.012473
471,0.128661,0.024037,0.005607
472,0.091583,0.024037,-0.012473
473,0.1472,0.024037,0.077927
474,0.128661,0.024037,0.005607
475,0.073044,0.024037,-0.012473
476,-0.07527,0.005964,0.005607
477,-0.316278,-0.030183,-0.012473
478,-0.167965,-0.01211,-0.030552
479,-0.001113,0.005964,-0.012473
480,0.035965,-0.01211,-0.012473
481,0.017426,-0.01211,0.023687
482,0.054504,0.005964,0.023687
483,0.017426,0.005964,0.023687
484,-0.07527,-0.01211,0.005607
485,-0.112348,0.005964,0.005607
486,-0.05673,0.005964,0.041767
487,-0.07527,-0.01211,0.023687
488,-0.05673,0.005964,-0.012473
489,-0.001113,0.04211,-0.030552
490,0.035965,0.005964,-0.012473
491,0.054504,0.005964,-0.012473
492,0.035965,0.005964,-0.030552
493,0.017426,0.005964,-0.012473
494,-0.001113,0.04211,0.023687
495,0.017426,0.005964,-0.012473
496,-0.038191,0.005964,0.005607
497,-0.038191,-0.01211,0.005607
498,-0.07527,0.005964,0.005607
499,-0.019652,0.005964,0.005607
500,-0.019652,0.005964,0.023687
501,0.035965,0.024037,0.023687
502,-0.001113,0.04211,-0.012473
503,0.091583,0.024037,-0.012473
504,0.035965,0.024037,0.023687
505,0.017426,0.005964,0.023687
506,-0.019652,0.024037,-0.012473
507,-0.001113,0.005964,-0.030552
508,-0.019652,-0.030183,0.005607
509,-0.019652,-0.030183,-0.012473
510,-0.093809,-0.01211,-0.030552
511,0.035965,-0.01211,0.023687
512,0.110122,-0.01211,0.023687
513,0.091583,-0.030183,-0.030552
514,0.091583,-0.030183,-0.012473
515,0.054504,-0.01211,0.023687
516,-0.038191,-0.01211,0.023687
517,-0.205043,0.005964,0.005607
518,-0.167965,0.024037,0.023687
519,0.110122,0.024037,0.023687
520,0.110122,0.04211,0.005607
521,0.128661,0.060184,0.023687
522,0.128661,0.078257,0.005607
523,0.073044,0.078257,-0.012473
524,0.017426,0.024037,-0.030552
525,-0.019652,0.024037,-0.012473
526,-0.038191,0.005964,0.005607
527,-0.149426,0.005964,-0.012473
528,-0.05673,0.024037,-0.012473
529,-0.019652,0.024037,0.005607
530,-0.001113,0.024037,-0.030552
531,-0.05673,0.024037,-0.012473
532,-0.05673,0.005964,0.023687
533,-0.05673,0.005964,0.023687
534,-0.038191,0.024037,0.005607
535,-0.019652,-0.01211,0.023687
536,-0.019652,0.005964,0.023687
537,-0.001113,0.005964,0.023687
538,-0.019652,0.005964,-0.030552
539,0.035965,0.005964,0.023687
540,0.073044,0.005964,0.005607
541,0.073044,0.005964,0.005607
542,-0.019652,0.024037,-0.012473
543,-0.05673,0.005964,0.005607
544,-0.038191,0.005964,0.005607
545,-0.130887,-0.030183,0.005607
546,-0.149426,-0.030183,0.005607
547,0.035965,-0.01211,0.023687
548,-0.001113,-0.048257,-0.012473
549,-0.093809,-0.048257,-0.030552
550,-0.001113,-0.030183,-0.012473
551,0.1472,-0.01211,0.005607
552,0.110122,0.024037,0.005607
553,0.035965,0.005964,0.005607
554,0.165739,0.024037,0.005607
555,0.1472,0.024037,-0.012473
556,-0.093809,0.024037,-0.030552
557,-0.019652,0.04211,0.023687
558,-0.038191,0.04211,0.005607
559,-0.093809,0.024037,-0.012473
560,-0.167965,0.005964,0.005607
561,-0.038191,0.04211,0.005607
562,-0.001113,-0.01211,-0.048632
563,-0.001113,-0.030183,0.005607
564,-0.019652,-0.06633,0.023687
565,-0.149426,-0.06633,-0.012473
566,-0.05673,-0.030183,0.005607
567,0.035965,-0.048257,0.005607
568,-0.07527,-0.048257,0.005607
569,-0.07527,0.024037,0.005607
570,-0.112348,0.114404,-0.012473
571,0.091583,0.078257,0.041767
572,0.128661,0.04211,0.023687
573,-0.07527,-0.06633,-0.012473
574,-0.130887,-0.084403,0.005607
575,-0.149426,-0.12055,0.023687
576,-0.019652,-0.06633,0.005607
577,0.091583,-0.030183,-0.030552
578,0.202817,0.024037,-0.012473
579,0.165739,-0.030183,-0.030552
580,0.017426,-0.030183,-0.030552
581,-0.186504,0.04211,0.005607
582,-0.149426,0.04211,0.023687
583,0.128661,0.04211,0.005607
584,0.165739,0.005964,0.005607
585,0.1472,0.078257,0.023687
586,0.054504,0.096331,0.005607
587,-0.07527,0.060184,-0.030552
588,-0.205043,0.096331,0.023687
589,-0.05673,0.114404,0.023687
590,-0.019652,0.132477,-0.012473
591,-0.038191,0.114404,-0.012473
592,0.054504,0.078257,0.005607
593,0.073044,0.005964,0.005607
594,0.073044,-0.030183,-0.012473
595,0.184278,-0.030183,0.005607
596,0.221357,-0.030183,-0.012473
597,0.202817,-0.030183,-0.012473
598,0.276974,0.024037,-0.030552
599,0.239896,0.060184,0.023687
600,-0.130887,0.024037,-0.012473
601,-0.334817,-0.030183,-0.048632
602,-0.223583,0.005964,-0.012473
603,-0.093809,0.024037,0.023687
604,-0.112348,0.024037,0.005607
605,-0.149426,-0.01211,0.005607
606,-0.019652,-0.01211,0.041767
607,0.073044,-0.01211,-0.012473
608,0.110122,0.005964,-0.030552
609,0.128661,0.04211,0.041767
610,0.035965,0.04211,-0.012473
611,0.017426,0.005964,-0.012473
612,-0.019652,0.024037,-0.012473
613,-0.001113,-0.01211,0.005607
614,-0.019652,0.005964,-0.012473
615,-0.038191,0.024037,0.005607
616,-0.038191,0.024037,0.005607
617,-0.130887,0.04211,0.023687
618,-0.149426,0.024037,-0.012473
619,-0.038191,0.024037,-0.012473
620,-0.038191,-0.01211,0.005607
621,-0.05673,-0.030183,0.005607
622,-0.038191,0.005964,-0.012473
623,0.017426,0.024037,0.041767
624,0.184278,0.024037,0.041767
625,0.276974,-0.01211,0.005607
626,0.36967,-0.01211,-0.012473
627,0.239896,-0.048257,-0.012473
628,-0.001113,-0.06633,-0.030552
629,-0.186504,-0.030183,-0.030552
630,-0.186504,-0.030183,-0.012473
631,-0.260661,0.005964,-0.030552
632,0.054504,0.078257,-0.012473
633,-0.038191,0.04211,0.005607
634,-0.130887,-0.01211,0.005607
635,-0.001113,0.04211,0.023687
636,0.202817,0.060184,0.023687
637,0.128661,-0.01211,0.041767
638,0.035965,0.005964,0.041767
639,-0.186504,0.005964,0.005607
640,-0.186504,-0.048257,0.023687
641,-0.112348,-0.084403,0.023687
642,-0.2792,-0.12055,0.005607
643,-0.2792,-0.192844,0.005607
644,-0.205043,-0.17477,-0.030552
645,0.1472,-0.102477,0.023687
646,0.295513,-0.048257,0.005607
647,0.36967,0.024037,-0.048632
648,0.332591,0.024037,-0.066712
649,0.128661,0.078257,-0.084792
650,0.1472,0.240918,-0.048632
651,0.332591,0.204771,0.005607
652,0.332591,0.168624,0.023687
653,0.054504,0.114404,0.023687
654,-0.353356,0.024037,0.041767
655,-0.408974,0.005964,0.059847
656,-0.297739,-0.030183,0.041767
657,-0.223583,-0.048257,0.023687
658,-0.112348,0.005964,0.059847
659,-0.112348,0.005964,0.041767
660,-0.149426,-0.01211,-0.012473
661,-0.149426,0.005964,-0.048632
662,0.110122,0.078257,-0.012473
663,0.314052,0.168624,-0.012473
664,-0.001113,0.024037,-0.048632
665,-0.149426,0.005964,-0.012473
666,-0.05673,0.078257,0.005607
667,0.054504,0.078257,-0.012473
668,0.1472,0.060184,0.005607
669,-0.001113,0.024037,0.005607
670,0.202817,-0.17477,-0.012473
671,-0.019652,-0.22899,-0.012473
672,0.184278,-0.102477,0.041767
673,0.239896,-0.048257,0.041767
674,0.184278,0.024037,0.005607
675,0.184278,0.114404,0.005607
676,0.035965,0.060184,0.005607
677,-0.149426,0.04211,-0.030552
678,-0.2792,0.005964,-0.012473
679,-0.557287,-0.06633,0.005607
680,-0.149426,-0.102477,0.023687
681,0.017426,-0.12055,0.005607
682,-0.167965,-0.12055,0.005607
683,-0.093809,-0.102477,0.041767
684,-0.093809,-0.192844,-0.012473
685,-0.167965,-0.030183,0.023687
686,0.295513,0.240918,0.059847
687,0.406748,0.04211,0.023687
688,0.610678,0.060184,-0.012473
689,0.295513,0.060184,-0.012473
690,-0.186504,-0.030183,-0.012473
691,0.295513,-0.01211,0.005607
692,0.5736,0.04211,0.005607
693,0.276974,-0.01211,0.023687
694,-0.001113,-0.030183,-0.012473
695,-0.2792,0.168624,-0.012473
696,-0.316278,0.186697,-0.030552
697,-0.242122,0.349358,-0.012473
698,0.128661,0.277064,0.023687
699,0.165739,0.060184,-0.012473
700,-0.130887,-0.048257,-0.012473
701,-0.390435,-0.102477,0.005607
702,-0.167965,-0.138624,0.005607
703,-0.130887,-0.156697,0.005607
704,-0.001113,-0.06633,0.041767
705,0.035965,-0.192844,0.023687
706,-0.07527,-0.265137,-0.012473
707,-0.446052,-0.192844,0.023687
708,-0.353356,0.060184,0.023687
709,0.035965,0.132477,0.023687
710,0.258435,0.114404,-0.048632
711,0.184278,0.295138,-0.012473
712,-0.242122,0.132477,-0.012473
713,-0.2792,0.04211,-0.012473
714,-0.001113,-0.06633,0.005607
715,0.462365,-0.084403,0.023687
716,0.36967,0.114404,0.023687
717,0.221357,0.078257,-0.030552
718,-0.05673,0.096331,-0.030552
719,-0.446052,-0.030183,-0.030552
720,0.165739,0.005964,0.041767
721,0.443826,0.005964,0.059847
722,0.332591,-0.12055,0.059847
723,0.035965,-0.192844,0.023687
724,-0.260661,-0.06633,0.023687
725,0.091583,0.313211,0.005607
726,0.314052,0.385505,-0.012473
727,0.091583,0.349358,-0.030552
728,0.054504,-0.01211,-0.030552
729,0.110122,-0.192844,-0.030552
730,-0.05673,-0.030183,0.005607
731,-0.149426,0.114404,0.005607
732,-0.2792,-0.01211,0.023687
733,-0.05673,-0.084403,0.005607
734,-0.260661,-0.463945,0.005607
735,-0.520209,-0.518165,0.005607
736,-0.668522,-0.084403,0.023687
737,-0.297739,-0.06633,-0.012473
738,0.314052,0.132477,-0.012473
739,0.239896,0.765046,0.041767
740,0.110122,0.584312,-0.012473
741,0.1472,0.186697,-0.012473
742,0.128661,0.005964,0.005607
743,-0.07527,-0.01211,0.023687
744,-0.05673,-0.030183,0.077927
745,0.128661,0.024037,0.059847
746,0.258435,0.005964,0.059847
747,0.184278,-0.156697,-0.012473
748,0.128661,-0.283211,-0.066712
749,-0.093809,-0.301284,-0.084792
750,-0.019652,-0.337431,-0.066712
751,0.406748,0.005964,0.023687
752,0.425287,0.204771,0.077927
753,0.332591,0.060184,0.041767
754,0.073044,0.150551,-0.030552
755,-0.130887,0.313211,-0.030552
756,-0.353356,-0.22899,-0.030552
757,-0.557287,-0.048257,0.041767
758,-0.408974,-0.048257,0.041767
759,-0.260661,-0.12055,0.041767
760,0.110122,-0.247064,0.041767
761,0.091583,-0.391651,-0.012473
762,-0.48313,-0.319357,-0.048632
763,-0.501669,-0.102477,0.005607
764,-0.205043,0.240918,-0.030552
765,-0.167965,0.313211,-0.012473
766,0.332591,0.349358,-0.048632
767,0.165739,0.385505,-0.012473
768,0.184278,0.168624,-0.012473
769,0.128661,0.078257,0.023687
770,0.666296,0.024037,0.059847
771,0.462365,0.132477,0.041767
772,-0.316278,-0.210917,-0.066712
773,-0.001113,-0.482018,-0.030552
774,0.054504,-0.445871,0.005607
775,0.443826,-0.01211,0.059847
776,0.017426,0.024037,0.005607
777,0.054504,0.277064,0.041767
778,0.073044,0.186697,0.005607
779,-0.649983,-0.048257,-0.012473
780,-0.427513,-0.030183,0.023687
781,-0.07527,0.078257,0.023687
782,0.295513,0.204771,-0.048632
783,-0.130887,0.457798,-0.102872
784,-0.7056,0.240918,-0.030552
785,-0.371896,-0.048257,-0.012473
786,-0.149426,-0.084403,0.023687
787,0.1472,-0.102477,0.023687
788,0.406748,-0.06633,0.023687
789,0.276974,-0.283211,-0.012473
790,-0.149426,-0.102477,0.005607
791,-0.334817,0.331285,0.005607
792,-0.316278,0.222844,-0.066712
793,0.314052,0.367431,-0.012473
794,0.5736,0.222844,0.059847
795,0.425287,0.096331,0.041767
796,-0.001113,-0.06633,0.059847
797,0.054504,0.005964,0.005607
798,-0.334817,0.060184,0.005607
799,-0.557287,-0.030183,-0.048632
800,-0.390435,0.005964,-0.048632
801,-0.093809,-0.192844,-0.048632
802,-0.130887,-0.463945,-0.012473
803,-0.05673,-0.554311,0.023687
804,-0.05673,-0.500091,0.041767
805,0.017426,-0.22899,0.023687
806,0.1472,0.258991,0.023687
807,0.425287,0.457798,0.005607
808,0.629217,0.168624,-0.012473
809,0.388209,-0.102477,-0.012473
810,-0.149426,-0.048257,0.023687
811,-0.371896,-0.084403,-0.012473
812,0.555061,0.150551,-0.012473
813,0.536522,0.313211,0.041767
814,0.054504,-0.030183,-0.030552
815,-0.631443,-0.17477,-0.012473
816,-0.353356,-0.355504,-0.030552
817,-0.019652,-0.12055,0.023687
818,0.184278,0.222844,0.059847
819,0.295513,0.837339,0.077927
820,0.221357,0.439725,-0.012473
821,-0.297739,0.005964,-0.066712
822,-0.130887,-0.01211,0.005607
823,-0.390435,-0.06633,0.059847
824,0.128661,-0.01211,0.077927
825,0.35113,-0.17477,0.059847
826,0.017426,-0.22899,0.023687
827,-0.149426,-0.22899,0.005607
828,-0.7056,-0.12055,-0.030552
829,-0.334817,0.04211,-0.012473
830,0.276974,-0.102477,-0.030552
831,0.406748,0.240918,0.041767
832,-0.316278,0.204771,0.005607
833,0.202817,0.150551,-0.012473
834,0.276974,0.078257,-0.084792
835,-0.334817,-0.192844,-0.102872
836,-0.427513,-0.12055,-0.012473
837,-0.334817,-0.319357,0.023687
838,-0.371896,-0.12055,0.041767
839,0.295513,0.349358,0.114086
840,0.536522,-0.048257,0.059847
841,0.517983,0.114404,-0.030552
842,-0.186504,0.403578,-0.048632
843,-0.205043,0.222844,-0.012473
844,-0.427513,0.078257,0.023687
845,-0.186504,-0.01211,0.041767
846,0.035965,0.04211,0.023687
847,0.035965,-0.102477,-0.030552
848,-0.019652,0.096331,-0.030552
849,0.073044,0.024037,-0.012473
850,0.36967,-0.156697,0.005607
851,0.1472,-0.210917,-0.030552
852,0.035965,-0.01211,-0.012473
853,-0.093809,0.060184,0.023687
854,-0.594365,0.096331,0.023687
855,-0.427513,0.060184,0.005607
856,-0.038191,-0.138624,0.023687
857,0.054504,-0.355504,0.041767
858,0.314052,-0.644678,0.023687
859,0.202817,-0.825412,-0.012473
860,0.35113,-0.084403,0.005607
861,0.962922,0.584312,-0.012473
862,0.332591,0.927706,-0.012473
863,-0.408974,0.638532,0.005607
864,-0.334817,0.096331,0.005607
865,-0.371896,-0.138624,0.005607
866,-0.446052,-0.337431,-0.030552
867,-0.742678,-0.482018,-0.084792
868,-0.205043,-0.084403,-0.012473
869,-0.446052,0.150551,0.077927
870,-0.297739,0.349358,0.096007
871,-0.001113,0.150551,0.041767
872,0.647757,0.277064,0.059847
873,0.555061,0.240918,0.005607
874,0.184278,-0.030183,0.041767
875,-0.205043,-0.391651,-0.012473
876,-0.2792,-0.753119,-0.048632
877,0.221357,-0.463945,-0.066712
878,0.851687,-0.084403,-0.012473
879,0.833148,0.222844,-0.012473
880,0.388209,0.005964,-0.102872
881,0.110122,0.367431,-0.084792
882,-0.205043,0.656606,-0.012473
883,-0.130887,0.439725,0.023687
884,-0.242122,0.186697,0.041767
885,-0.186504,0.096331,0.059847
886,-0.594365,0.114404,0.041767
887,-0.130887,0.349358,-0.012473
888,0.091583,0.313211,0.023687
889,0.35113,0.240918,0.096007
890,0.165739,0.04211,0.077927
891,-0.538748,0.005964,0.023687
892,-0.297739,-0.373578,-0.012473
893,0.054504,-0.12055,0.005607
894,0.276974,-0.22899,-0.048632
895,0.017426,-0.138624,-0.030552
896,0.073044,0.150551,0.023687
897,0.36967,0.04211,0.059847
898,0.629217,-0.138624,0.041767
899,0.314052,-0.210917,0.005607
900,0.110122,0.277064,-0.048632
901,-0.130887,0.168624,-0.048632
902,-0.167965,-0.192844,-0.030552
903,-0.446052,-0.482018,0.023687
904,-1.132,-0.518165,-0.012473
905,-0.7056,-0.283211,0.023687
906,-0.05673,-0.030183,0.059847
907,-0.05673,-0.06633,-0.012473
908,-0.149426,-0.06633,-0.048632
909,-0.038191,-0.337431,-0.030552
910,0.239896,-0.030183,0.005607
911,0.054504,0.222844,0.041767
912,0.1472,0.132477,0.005607
913,0.536522,0.150551,0.023687
914,0.202817,-0.192844,-0.012473
915,-0.167965,-0.030183,0.023687
916,0.202817,0.258991,0.023687
917,0.406748,0.132477,-0.012473
918,-0.001113,0.204771,-0.012473
919,-0.260661,-0.048257,-0.048632
920,-0.316278,0.114404,0.005607
921,0.480904,0.403578,0.077927
922,0.740452,0.385505,0.096007
923,0.925843,0.204771,0.077927
924,-0.316278,-0.048257,-0.030552
925,-1.280313,-0.17477,-0.066712
926,0.073044,-0.12055,0.005607
927,0.647757,0.096331,0.023687
928,0.480904,-0.06633,-0.048632
929,-0.408974,-0.030183,-0.139032
930,-0.724139,0.367431,-0.030552
931,-0.297739,0.277064,0.023687
932,-0.038191,0.114404,0.023687
933,0.425287,-0.06633,0.059847
934,0.128661,-0.265137,0.023687
935,-0.149426,-0.102477,0.005607
936,-0.167965,-0.12055,0.059847
937,0.165739,0.060184,0.077927
938,-0.297739,0.078257,-0.012473
939,-0.242122,-0.030183,-0.066712
940,0.202817,0.096331,-0.012473
941,0.091583,0.186697,-0.030552
942,-0.575826,0.096331,-0.030552
943,-0.390435,0.024037,0.005607
944,0.295513,0.005964,0.077927
945,0.184278,-0.156697,0.023687
946,-0.112348,-0.192844,0.005607
947,-0.205043,-0.17477,0.023687
948,0.258435,-0.084403,0.023687
949,0.721913,-0.06633,-0.048632
950,0.110122,0.060184,-0.048632
951,-0.316278,0.04211,-0.012473
952,-0.464591,-0.030183,0.005607
953,-0.631443,0.005964,-0.012473
954,0.073044,0.060184,0.023687
955,0.443826,-0.102477,0.041767
956,0.647757,-0.247064,0.041767
957,0.462365,-0.337431,0.005607
958,-0.07527,-0.283211,-0.030552
959,-0.223583,-0.102477,-0.066712
960,-0.205043,0.493945,0.005607
961,0.258435,0.005964,0.041767
962,0.239896,-0.463945,0.041767
963,0.184278,-0.265137,0.023687
964,0.128661,0.403578,0.023687
965,-0.48313,0.439725,0.023687
966,-0.835374,0.096331,-0.066712
967,-0.242122,0.060184,-0.048632
968,0.462365,0.277064,0.041767
969,0.36967,0.403578,0.077927
970,0.054504,0.240918,0.005607
971,-0.334817,0.024037,-0.030552
972,-0.575826,0.132477,-0.012473
973,0.184278,0.186697,0.041767
974,0.314052,0.060184,0.059847
975,0.1472,-0.048257,0.023687
976,-0.242122,0.04211,-0.012473
977,-0.093809,-0.22899,-0.048632
978,0.258435,-0.06633,-0.012473
979,-0.316278,-0.102477,0.077927
980,-0.149426,-0.301284,0.023687
981,0.035965,-0.373578,-0.066712
982,-0.130887,-0.265137,-0.102872
983,-0.612904,0.005964,-0.066712
984,-0.575826,-0.06633,-0.030552
985,0.721913,0.024037,0.005607
986,0.870226,-0.102477,0.023687
987,0.870226,-0.102477,-0.030552
988,0.221357,0.439725,0.005607
989,-0.334817,0.132477,0.023687
990,-0.186504,0.132477,0.059847
991,-0.07527,0.277064,0.077927
992,0.1472,0.060184,0.077927
993,0.36967,0.132477,0.059847
994,0.499444,-0.06633,-0.012473
995,0.406748,-0.138624,-0.084792
996,-0.167965,0.04211,-0.030552
997,-0.631443,-0.030183,0.023687
998,-0.427513,-0.210917,0.005607
999,-0.260661,-0.337431,-0.012473
1000,-0.557287,-0.319357,0.023687
1001,-0.853913,-0.210917,-0.012473
1002,-0.167965,-0.210917,0.023687
1003,0.165739,-0.12055,0.005607
1004,0.480904,0.186697,-0.012473
1005,0.962922,0.403578,-0.030552
1006,0.555061,0.584312,0.023687
1007,-0.260661,0.475872,0.005607
1008,-0.130887,0.349358,0.005607
1009,0.221357,0.114404,-0.012473
1010,-0.167965,-0.048257,0.005607
1011,-0.371896,-0.084403,-0.012473
1012,-0.353356,0.168624,0.023687
1013,-0.149426,0.096331,0.041767
1014,0.035965,-0.102477,0.041767
1015,0.295513,-0.102477,-0.012473
1016,0.592139,0.04211,-0.084792
1017,0.36967,0.132477,-0.048632
1018,-0.316278,0.060184,-0.048632
1019,-0.038191,0.222844,-0.048632
1020,0.332591,0.132477,0.023687
1021,0.017426,0.096331,0.077927
1022,-0.186504,-0.138624,0.005607
1023,-0.501669,-0.210917,-0.012473
1024,-0.7056,-0.301284,0.077927
1025,-0.353356,-0.301284,0.077927
1026,-0.334817,-0.247064,0.005607
1027,-0.149426,-0.048257,-0.048632
1028,-0.186504,0.005964,-0.066712
1029,0.202817,-0.048257,-0.048632
1030,0.536522,-0.102477,-0.012473
1031,0.128661,-0.17477,-0.012473
1032,-0.07527,0.186697,0.059847
1033,0.035965,0.168624,0.041767
1034,0.276974,0.04211,0.005607
1035,0.165739,-0.12055,-0.066712
1036,0.184278,0.457798,-0.048632
1037,0.239896,0.295138,-0.048632
1038,-0.557287,-0.01211,0.023687
1039,-0.316278,-0.210917,0.077927
1040,-0.038191,-0.138624,0.023687
1041,0.165739,0.078257,0.041767
1042,0.239896,0.024037,0.023687
1043,0.1472,0.240918,0.041767
1044,0.054504,0.096331,-0.012473
1045,0.629217,0.078257,0.041767
1046,0.629217,-0.283211,-0.048632
1047,-0.038191,-0.463945,-0.030552
1048,-0.297739,-0.138624,-0.084792
1049,-1.039304,0.258991,0.005607
1050,-0.130887,0.150551,0.005607
1051,0.258435,0.005964,0.005607
1052,0.258435,0.096331,-0.030552
1053,-0.093809,-0.06633,0.023687
1054,-0.48313,-0.030183,0.096007
1055,-0.167965,0.150551,0.132166
1056,0.054504,0.150551,0.059847
1057,0.388209,-0.22899,-0.030552
1058,0.499444,-0.138624,-0.030552
1059,0.480904,-0.210917,0.023687
1060,-0.07527,-0.156697,-0.012473
1061,0.184278,0.258991,-0.030552
1062,-0.260661,0.168624,-0.084792
1063,-0.149426,0.078257,-0.048632
1064,-0.112348,-0.030183,-0.012473
1065,-0.205043,0.024037,-0.012473
1066,-0.965148,-0.337431,0.023687
1067,-0.724139,-0.373578,0.005607
1068,0.017426,-0.210917,0.005607
1069,-0.038191,0.078257,-0.030552
1070,0.314052,0.728899,0.041767
1071,0.258435,0.295138,0.059847
1072,0.202817,-0.048257,0.023687
1073,-0.112348,-0.102477,0.005607
1074,0.1472,0.060184,-0.012473
1075,0.054504,0.277064,0.005607
1076,0.258435,0.258991,0.077927
1077,-0.093809,0.222844,0.059847
1078,-0.149426,0.186697,-0.012473
1079,-0.2792,-0.084403,-0.084792
1080,-0.093809,-0.247064,-0.066712
1081,0.425287,-0.17477,-0.030552
1082,0.239896,0.078257,0.005607
1083,0.239896,0.421652,0.041767
1084,0.073044,-0.01211,0.005607
1085,-0.038191,-0.355504,-0.084792
1086,-0.167965,-0.373578,-0.012473
1087,0.054504,-0.355504,0.005607
1088,0.128661,0.060184,0.059847
1089,0.165739,0.114404,0.059847
1090,0.314052,0.240918,0.059847
1091,0.258435,-0.06633,0.059847
1092,0.073044,-0.138624,-0.012473
1093,-0.724139,-0.192844,-0.084792
1094,-0.983687,-0.337431,-0.048632
1095,-0.408974,-0.22899,-0.012473
1096,0.239896,0.240918,0.041767
1097,0.406748,0.439725,0.023687
1098,0.555061,0.530092,0.059847
1099,0.314052,0.204771,0.005607
1100,0.035965,0.078257,-0.030552
1101,-0.093809,-0.01211,-0.048632
1102,0.202817,-0.084403,-0.066712
1103,-0.149426,-0.030183,0.005607
1104,-0.242122,-0.156697,0.005607
1105,0.1472,-0.22899,0.023687
1106,0.388209,-0.265137,0.005607
1107,0.035965,-0.156697,-0.066712
1108,0.128661,0.331285,0.005607
1109,-0.242122,-0.12055,-0.012473
1110,-0.687061,-0.192844,0.041767
1111,-0.260661,-0.427798,0.059847
1112,0.073044,-0.01211,0.005607
1113,-0.668522,-0.283211,-0.048632
1114,-0.427513,0.024037,-0.048632
1115,0.035965,0.439725,-0.012473
1116,0.314052,0.566239,0.005607
1117,0.073044,0.530092,0.005607
1118,0.035965,0.240918,-0.066712
1119,0.202817,-0.01211,-0.030552
1120,0.221357,-0.156697,0.023687
1121,0.295513,-0.156697,0.041767
1122,0.36967,0.024037,0.023687
1123,-0.001113,0.204771,0.005607
1124,-0.260661,0.204771,0.005607
1125,-0.390435,-0.030183,0.023687
1126,-0.316278,-0.102477,0.077927
1127,0.091583,0.005964,0.023687
1128,0.36967,0.078257,-0.048632
1129,0.870226,0.005964,0.005607
1130,0.851687,0.005964,0.005607
1131,0.091583,-0.084403,-0.030552
1132,-0.594365,-0.12055,-0.066712
1133,-0.297739,0.114404,0.005607
1134,-0.001113,0.222844,0.041767
1135,-0.05673,0.060184,0.005607
1136,-0.186504,-0.084403,0.059847
1137,0.017426,-0.084403,0.077927
1138,-0.112348,-0.319357,0.005607
1139,-0.353356,-0.102477,0.005607
1140,-0.371896,-0.192844,-0.030552
1141,0.017426,-0.17477,-0.048632
1142,0.35113,-0.192844,-0.012473
1143,-0.093809,-0.06633,0.041767
1144,-0.149426,0.04211,0.023687
1145,-0.167965,0.114404,0.041767
1146,0.258435,-0.17477,0.041767
1147,0.684835,0.186697,0.023687
1148,0.276974,0.186697,-0.012473
1149,-0.316278,0.132477,-0.048632
1150,-0.390435,0.005964,-0.048632
1151,-0.612904,-0.192844,-0.048632
1152,-0.205043,-0.247064,0.023687
1153,0.073044,-0.06633,0.005607
1154,0.35113,0.132477,-0.030552
1155,0.110122,0.493945,0.005607
1156,-0.186504,0.349358,0.023687
1157,-0.371896,0.186697,0.041767
1158,0.054504,0.024037,0.059847
1159,0.1472,-0.084403,0.041767
1160,0.054504,-0.301284,0.041767
1161,0.091583,-0.17477,-0.012473
1162,0.276974,0.349358,-0.048632
1163,0.035965,0.168624,-0.084792
1164,0.054504,-0.030183,-0.048632
1165,0.425287,-0.156697,-0.012473
1166,0.202817,-0.373578,-0.030552
1167,-0.093809,0.186697,-0.012473
1168,-0.2792,0.114404,-0.012473
1169,-0.223583,0.005964,0.005607
1170,0.035965,0.060184,0.005607
1171,0.258435,0.060184,0.023687
1172,0.054504,-0.048257,0.041767
1173,-0.408974,-0.06633,0.041767
1174,-0.112348,0.04211,0.023687
1175,-0.001113,0.096331,0.059847
1176,0.073044,0.024037,0.023687
1177,-0.019652,-0.265137,-0.048632
1178,0.017426,-0.247064,-0.030552
1179,-0.05673,-0.01211,0.023687
1180,-0.093809,0.240918,-0.030552
1181,0.202817,0.222844,-0.048632
1182,0.406748,0.024037,-0.012473
1183,0.1472,-0.084403,-0.048632
1184,-0.427513,-0.247064,-0.066712
1185,-0.205043,-0.265137,-0.012473
1186,0.054504,-0.192844,0.005607
1187,0.073044,-0.319357,0.005607
1188,0.035965,-0.084403,0.023687
1189,0.035965,-0.030183,0.041767
1190,-0.2792,0.421652,0.023687
1191,-0.223583,0.457798,0.005607
1192,-0.07527,0.457798,0.005607
1193,-0.242122,0.060184,0.023687
1194,-0.408974,-0.409724,-0.030552
1195,-0.297739,-0.482018,0.023687
1196,0.239896,-0.156697,-0.030552
1197,0.462365,0.150551,-0.012473
1198,0.555061,0.457798,-0.012473
1199,0.314052,0.493945,0.023687
1200,-0.186504,0.439725,-0.012473
1201,-0.223583,0.331285,-0.030552
1202,0.1472,0.078257,0.005607
1203,0.295513,-0.337431,0.005607
1204,-0.038191,-0.391651,-0.012473
1205,-0.07527,-0.463945,0.005607
1206,0.017426,-0.102477,-0.030552
1207,-0.112348,0.024037,-0.012473
1208,-0.07527,0.114404,0.041767
1209,-0.371896,-0.030183,0.059847
1210,-0.001113,0.024037,0.059847
1211,0.184278,0.005964,0.023687
1212,0.258435,-0.084403,0.041767
1213,-0.093809,-0.138624,0.077927
1214,-0.353356,-0.156697,0.005607
1215,-0.186504,-0.138624,-0.066712
1216,-0.242122,0.168624,-0.048632
1217,0.202817,0.475872,0.041767
1218,0.1472,0.295138,0.005607
1219,0.054504,0.096331,-0.030552
1220,0.035965,0.168624,-0.030552
1221,0.054504,0.078257,-0.030552
1222,0.1472,-0.084403,-0.030552
1223,-0.001113,-0.156697,0.041767
1224,0.073044,-0.102477,0.077927
1225,0.128661,-0.17477,0.041767
1226,-0.001113,-0.12055,0.005607
1227,0.073044,-0.048257,-0.012473
1228,0.221357,0.258991,0.005607
1229,0.202817,0.349358,0.005607
1230,-0.093809,0.114404,0.023687
1231,-0.297739,-0.01211,0.023687
1232,-0.260661,-0.102477,-0.012473
1233,-0.316278,-0.12055,-0.030552
1234,-0.167965,-0.048257,-0.048632
1235,0.035965,0.078257,-0.030552
1236,0.165739,0.078257,-0.030552
1237,0.110122,0.024037,-0.012473
1238,-0.130887,-0.102477,-0.048632
1239,0.091583,0.005964,-0.048632
1240,0.165739,0.024037,0.005607
1241,-0.001113,-0.084403,0.005607
1242,0.110122,-0.06633,0.023687
1243,-0.371896,-0.048257,0.023687
1244,-0.112348,-0.01211,0.041767
1245,-0.093809,-0.138624,0.023687
1246,-0.093809,-0.283211,0.023687
1247,-0.093809,-0.500091,-0.048632
1248,-0.130887,-0.319357,-0.030552
1249,-0.07527,0.024037,-0.030552
1250,0.073044,0.457798,-0.030552
1251,0.110122,0.258991,-0.012473
1252,0.184278,0.186697,0.005607
1253,0.239896,0.078257,-0.012473
1254,0.073044,0.04211,0.023687
1255,-0.019652,0.04211,0.005607
1256,0.073044,0.078257,0.023687
1257,-0.186504,0.005964,0.041767
1258,-0.130887,-0.030183,0.023687
1259,-0.038191,-0.084403,0.005607
1260,-0.093809,-0.102477,0.005607
1261,-0.093809,0.024037,0.005607
1262,0.035965,0.024037,0.041767
1263,0.073044,0.114404,-0.012473
1264,0.054504,0.186697,-0.012473
1265,-0.019652,0.005964,0.005607
1266,0.035965,-0.084403,-0.012473
1267,0.128661,0.078257,-0.012473
1268,0.110122,0.005964,-0.048632
1269,0.035965,0.005964,-0.012473
1270,0.017426,0.005964,-0.030552
1271,-0.001113,-0.048257,-0.030552
1272,-0.019652,-0.138624,-0.012473
1273,-0.167965,-0.17477,0.005607
1274,-0.167965,-0.06633,0.077927
1275,-0.07527,-0.01211,0.005607
1276,0.054504,0.096331,0.023687
1277,0.1472,0.150551,0.023687
1278,0.165739,0.060184,0.041767
1279,0.073044,0.04211,0.023687
1280,-0.001113,-0.01211,-0.012473
1281,-0.001113,-0.01211,0.023687
1282,0.054504,0.04211,-0.012473
1283,-0.001113,0.005964,0.023687
1284,-0.019652,-0.030183,-0.012473
1285,-0.019652,0.04211,-0.030552
1286,-0.05673,0.005964,0.005607
1287,-0.019652,-0.06633,-0.012473
1288,0.035965,-0.048257,-0.030552
1289,0.035965,-0.01211,-0.012473
1290,0.017426,0.114404,0.005607
1291,-0.001113,0.04211,0.005607
1292,-0.001113,-0.030183,-0.012473
1293,-0.001113,-0.06633,0.005607
1294,-0.001113,-0.048257,0.005607
1295,0.017426,-0.01211,-0.012473
1296,-0.001113,0.096331,0.023687
1297,-0.038191,0.060184,0.005607
1298,-0.019652,0.114404,0.023687
1299,-0.001113,0.024037,0.023687
1300,-0.019652,0.005964,0.041767
1301,0.017426,0.005964,0.023687
1302,0.017426,-0.030183,-0.012473
1303,-0.001113,-0.01211,-0.030552
1304,-0.05673,-0.01211,-0.012473
1305,-0.019652,-0.048257,-0.012473
1306,-0.05673,-0.06633,0.005607
1307,-0.07527,-0.06633,0.005607
1308,0.035965,0.168624,0.059847
1309,0.035965,0.078257,0.005607
1310,-0.001113,0.04211,0.005607
1311,-0.001113,0.024037,0.023687
1312,-0.038191,0.04211,0.005607
1313,0.017426,0.024037,-0.012473
1314,0.017426,-0.01211,0.023687
1315,0.017426,-0.030183,-0.012473
1316,0.017426,0.005964,-0.012473
1317,0.128661,0.04211,-0.012473
1318,0.221357,0.005964,0.005607
1319,0.239896,0.04211,-0.012473
1320,-0.07527,0.005964,-0.012473
1321,-0.186504,-0.01211,-0.012473
1322,-0.242122,-0.030183,-0.030552
1323,-0.130887,-0.030183,-0.012473
1324,-0.038191,0.005964,0.023687
1325,-0.001113,0.005964,0.023687
1326,0.035965,-0.01211,0.041767
1327,-0.001113,-0.01211,0.023687
1328,-0.001113,0.005964,0.041767
1329,-0.038191,0.005964,0.041767
1330,-0.001113,0.005964,0.005607
1331,-0.001113,0.005964,0.023687
1332,-0.001113,0.005964,0.005607
1333,-0.019652,0.005964,-0.012473
1334,-0.019652,-0.01211,-0.048632
1335,-0.019652,0.005964,-0.048632
1336,-0.019652,-0.030183,-0.012473
1337,-0.038191,-0.01211,-0.048632
1338,-0.038191,-0.030183,-0.030552
1339,-0.019652,-0.01211,-0.030552
1340,-0.019652,-0.06633,-0.048632
1341,-0.019652,-0.084403,0.005607
1342,-0.001113,-0.06633,0.059847
1343,-0.038191,-0.030183,0.041767
1344,-0.038191,0.005964,0.023687
1345,-0.001113,0.114404,0.041767
1346,-0.001113,0.060184,0.077927
1347,-0.019652,0.024037,0.023687
1348,-0.038191,0.04211,0.005607
1349,0.017426,0.04211,0.023687
1350,-0.001113,0.024037,0.005607
1351,0.017426,0.005964,-0.030552
1352,-0.038191,0.005964,-0.030552
1353,-0.001113,-0.01211,-0.030552
1354,-0.019652,-0.01211,-0.030552
1355,-0.001113,-0.01211,-0.048632
1356,-0.001113,-0.01211,-0.012473
1357,0.017426,0.005964,0.005607
1358,-0.001113,0.005964,0.005607
1359,-0.001113,-0.01211,0.023687
1360,0.017426,0.005964,0.041767
1361,-0.001113,-0.01211,0.041767
1362,-0.001113,-0.01211,0.005607
1363,-0.001113,0.024037,0.041767
1364,-0.001113,0.005964,0.005607
1365,-0.001113,-0.030183,-0.012473
1366,-0.001113,-0.01211,0.023687
1367,-0.019652,-0.048257,0.005607
1368,-0.001113,-0.01211,-0.012473
1369,-0.001113,0.005964,-0.030552
1370,-0.001113,0.005964,0.005607
1371,0.017426,0.005964,0.005607
1372,-0.001113,-0.01211,-0.012473
1373,0.017426,0.005964,0.005607
1374,-0.001113,-0.01211,-0.012473
1375,0.017426,-0.01211,-0.030552
1376,-0.001113,-0.01211,-0.030552
1377,-0.001113,0.005964,0.023687
1378,-0.001113,0.005964,0.023687
1379,0.017426,0.005964,-0.030552
1380,0.017426,0.005964,0.005607
1381,-0.001113,0.005964,0.023687
1382,0.017426,0.005964,0.005607
1383,-0.001113,-0.030183,0.005607
1384,0.017426,0.005964,0.041767
1385,-0.019652,0.005964,0.023687
1386,-0.001113,0.005964,0.023687
1387,-0.001113,0.005964,-0.012473
1388,0.017426,0.005964,0.023687
1389,-0.001113,0.005964,0.005607
1390,-0.001113,0.024037,0.023687
1391,-0.001113,0.005964,0.041767
1392,0.017426,-0.01211,0.023687
1393,-0.001113,0.005964,-0.012473
1394,-0.001113,0.005964,0.005607
1395,-0.001113,0.005964,0.023687
1396,-0.001113,0.005964,0.005607
1397,-0.001113,0.005964,0.023687
1398,-0.001113,0.024037,0.005607
1399,0.017426,0.005964,0.005607
1400,-0.001113,0.005964,-0.012473
1401,-0.001113,0.005964,-0.030552
1402,0.017426,-0.01211,0.005607
1403,-0.001113,0.005964,-0.012473
1404,-0.001113,0.005964,-0.030552
1405,0.017426,0.04211,0.005607
1406,-0.038191,0.005964,0.005607
1407,-0.001113,0.005964,-0.012473
1408,0.017426,0.005964,-0.012473
1409,0.017426,-0.01211,0.005607
1410,-0.001113,-0.01211,-0.012473
1411,0.017426,0.005964,0.005607
1412,-0.001113,0.005964,0.005607
1413,-0.05673,0.005964,0.023687
1414,0.017426,-0.01211,0.005607
1415,-0.019652,0.024037,0.023687
1416,-0.019652,0.005964,0.005607
1417,-0.019652,-0.01211,-0.012473
1418,-0.019652,-0.01211,-0.030552
1419,0.054504,0.005964,0.005607
1420,0.035965,0.005964,0.005607
1421,-0.001113,0.005964,-0.030552
1422,0.017426,-0.01211,-0.030552
1423,-0.001113,-0.01211,-0.012473
1424,-0.001113,-0.01211,-0.012473
1425,0.017426,-0.01211,-0.030552
1426,-0.001113,0.005964,-0.030552
1427,-0.019652,0.005964,0.023687
1428,-0.001113,0.005964,0.005607
1429,-0.019652,0.005964,0.023687
1430,0.017426,0.005964,0.023687
1431,-0.019652,0.024037,0.041767
1432,-0.019652,0.024037,0.023687
1433,0.017426,0.024037,0.023687
1434,-0.019652,0.005964,0.023687
1435,-0.019652,0.024037,0.005607
1436,0.017426,0.024037,-0.012473
1437,-0.001113,0.005964,0.005607
1438,-0.001113,0.005964,-0.012473
1439,0.017426,0.005964,-0.030552
1440,-0.019652,0.005964,0.005607
1441,-0.001113,-0.01211,-0.030552
1442,0.017426,0.005964,-0.030552
1443,-0.001113,-0.01211,-0.012473
1444,-0.001113,0.005964,-0.012473
1445,-0.001113,-0.01211,0.005607
1446,-0.001113,-0.01211,-0.012473
1447,-0.001113,-0.01211,0.005607
1448,-0.001113,0.005964,0.023687
1449,0.017426,-0.01211,-0.012473
1450,0.017426,0.005964,0.005607
1451,-0.001113,0.005964,0.023687
1452,-0.019652,-0.01211,0.023687
1453,0.017426,0.024037,-0.012473
1454,-0.019652,0.005964,0.005607
1455,-0.001113,0.005964,-0.012473
1456,-0.001113,0.005964,-0.012473
1457,0.017426,0.005964,-0.012473
1458,-0.001113,0.024037,0.023687
1459,-0.001113,0.024037,0.005607
1460,-0.001113,0.024037,0.023687
1461,0.017426,0.024037,0.005607
1462,0.017426,0.024037,0.059847
1463,0.017426,0.024037,0.023687
1464,0.017426,0.024037,0.023687
1465,-0.019652,0.005964,0.023687
1466,-0.001113,0.005964,0.005607
1467,-0.001113,-0.01211,0.023687
1468,-0.001113,0.024037,0.023687
1469,-0.001113,0.024037,0.005607
1470,-0.001113,0.005964,-0.012473
1471,0.017426,0.005964,-0.030552
1472,0.017426,0.005964,0.005607
1473,-0.001113,0.005964,-0.012473
1474,-0.001113,0.005964,-0.012473
1475,0.017426,0.005964,0.023687
1476,-0.001113,0.005964,0.005607
1477,0.017426,0.005964,-0.030552
1478,0.017426,0.005964,0.005607
1479,-0.001113,-0.01211,0.005607
1480,0.035965,0.005964,0.023687
1481,-0.019652,-0.01211,0.005607
1482,0.017426,0.024037,0.023687
1483,-0.001113,-0.01211,0.023687
1484,0.017426,0.005964,0.005607
1485,-0.001113,-0.01211,0.005607
1486,-0.001113,0.005964,0.023687
1487,-0.001113,0.024037,0.005607
1488,-0.001113,-0.01211,-0.012473
1489,-0.001113,0.005964,-0.030552
1490,-0.001113,0.005964,-0.012473
1491,0.017426,0.005964,-0.030552
1492,-0.001113,-0.01211,-0.012473
1493,0.017426,-0.01211,0.005607
1494,0.017426,0.005964,-0.012473
1495,-0.001113,0.005964,0.005607
1496,-0.019652,0.005964,0.005607
1497,-0.001113,-0.01211,0.023687
1498,-0.001113,0.005964,0.005607
1499,0.017426,0.005964,0.041767
1500,-0.019652,0.005964,0.005607
1501,-0.001113,0.005964,0.005607
1502,-0.019652,0.005964,0.005607
1503,0.035965,0.005964,0.005607
1504,-0.001113,0.005964,-0.012473
1505,-0.001113,0.005964,-0.012473
1506,-0.001113,0.024037,-0.048632
1507,-0.001113,0.005964,-0.030552
1508,-0.001113,-0.01211,-0.030552
1509,-0.019652,0.005964,-0.048632
1510,0.017426,-0.01211,-0.012473
1511,-0.001113,-0.01211,0.005607
1512,-0.001113,-0.01211,-0.012473
1513,-0.019652,0.005964,0.023687
1514,-0.001113,0.005964,0.041767
1515,0.017426,0.005964,0.041767
1516,-0.001113,0.005964,0.023687
1517,-0.019652,0.024037,0.041767
1518,-0.001113,-0.01211,0.041767
1519,0.017426,-0.01211,0.005607
1520,0.017426,-0.030183,0.041767
1521,-0.001113,0.005964,0.023687
1522,0.017426,0.005964,0.005607
1523,-0.001113,-0.01211,0.005607
1524,-0.001113,-0.01211,-0.030552
1525,-0.001113,0.005964,0.005607
1526,-0.001113,0.005964,-0.030552
1527,0.017426,0.04211,-0.012473
1528,-0.019652,0.005964,-0.030552
1529,-0.001113,-0.01211,-0.030552
1530,-0.019652,0.005964,-0.012473
1531,-0.019652,0.005964,0.005607
1532,-0.001113,0.005964,0.023687
1533,0.017426,0.005964,0.005607
1534,0.017426,-0.01211,-0.030552
1535,-0.001113,-0.01211,0.023687
1536,-0.001113,0.005964,0.023687
1537,-0.001113,0.005964,0.005607
1538,-0.019652,0.005964,0.077927
1539,-0.001113,0.005964,0.023687
1540,-0.001113,0.005964,0.005607
1541,-0.001113,0.005964,0.005607
1542,0.017426,0.005964,0.023687
1543,0.017426,-0.01211,0.023687
1544,-0.019652,0.024037,-0.012473
1545,-0.001113,0.005964,0.005607
1546,0.017426,0.005964,0.023687
1547,0.017426,0.024037,-0.030552
1548,-0.019652,0.024037,-0.012473
1549,-0.019652,-0.01211,0.005607
1550,0.035965,-0.01211,0.005607
1551,-0.001113,0.005964,-0.030552
1552,-0.001113,-0.01211,-0.012473
1553,-0.001113,-0.01211,0.005607
1554,-0.001113,0.005964,0.005607
1555,-0.019652,0.005964,0.005607
1556,-0.019652,-0.01211,0.041767
1557,-0.019652,0.005964,0.023687
1558,-0.001113,0.024037,0.023687
1559,-0.001113,-0.01211,-0.012473
1560,-0.019652,0.024037,0.005607
1561,0.035965,-0.01211,-0.030552
1562,0.017426,-0.01211,-0.048632
1563,-0.001113,0.005964,-0.030552
1564,-0.019652,0.005964,-0.048632
1565,-0.001113,0.024037,-0.048632
1566,-0.001113,-0.01211,0.005607
1567,-0.001113,-0.01211,0.023687
1568,-0.001113,0.005964,0.059847
1569,-0.001113,-0.01211,0.041767
1570,-0.001113,-0.01211,0.041767
1571,-0.001113,-0.01211,0.041767
1572,-0.019652,0.024037,0.041767
1573,-0.001113,0.005964,0.041767
1574,0.017426,0.005964,0.023687
1575,0.017426,0.005964,-0.012473
1576,-0.001113,-0.01211,-0.012473
1577,-0.001113,-0.01211,-0.030552
1578,-0.001113,-0.01211,-0.012473
1579,0.017426,-0.01211,-0.030552
1580,-0.001113,0.005964,-0.030552
1581,-0.001113,0.005964,-0.012473
1582,-0.019652,-0.01211,-0.012473
1583,-0.001113,-0.01211,-0.030552
1584,-0.001113,-0.01211,-0.030552
1585,-0.001113,-0.01211,0.005607
1586,-0.001113,-0.01211,-0.030552
1587,0.017426,-0.01211,0.005607
1588,-0.001113,-0.01211,0.041767
1589,0.017426,0.005964,0.041767
1590,-0.019652,0.005964,0.023687
1591,-0.001113,0.005964,0.041767
1592,-0.001113,0.005964,0.005607
1593,-0.001113,0.024037,-0.012473
1594,-0.001113,0.005964,-0.012473
1595,-0.001113,0.024037,0.005607
1596,-0.001113,0.005964,0.023687
1597,-0.001113,-0.030183,0.005607
1598,-0.001113,0.005964,0.023687
1599,-0.001113,0.005964,0.023687
1600,0.017426,-0.01211,-0.012473
1601,-0.001113,0.024037,0.005607
1602,-0.001113,0.005964,0.041767
1603,-0.019652,-0.01211,0.023687
1604,-0.001113,0.005964,0.005607
1605,-0.001113,0.005964,0.005607
1606,0.017426,0.005964,0.005607
1607,0.017426,-0.01211,-0.030552
1608,-0.001113,0.005964,0.023687
1609,-0.019652,0.005964,0.005607
1610,0.017426,0.005964,-0.012473
1611,-0.001113,0.005964,0.005607
1612,-0.001113,0.005964,-0.012473
1613,-0.001113,0.005964,0.005607
1614,-0.001113,0.04211,-0.012473
1615,-0.001113,0.005964,-0.012473
1616,-0.001113,0.005964,0.005607
1617,-0.001113,-0.01211,-0.030552
1618,-0.019652,-0.01211,-0.012473
1619,-0.001113,-0.01211,0.005607
1620,-0.001113,0.024037,0.005607
1621,0.017426,0.005964,0.041767
1622,-0.001113,0.024037,0.005607
1623,0.017426,0.005964,0.023687
1624,-0.001113,0.024037,0.005607
1625,-0.001113,0.005964,0.023687
1626,-0.001113,-0.01211,0.041767
1627,-0.001113,0.024037,0.005607
1628,-0.019652,0.005964,0.005607
1629,-0.001113,0.005964,-0.030552
1630,-0.019652,0.005964,-0.012473
1631,-0.001113,0.005964,0.005607
1632,-0.019652,-0.01211,-0.030552
1633,0.017426,0.024037,-0.012473
1634,-0.001113,0.005964,0.023687
1635,-0.001113,-0.01211,-0.030552
1636,-0.001113,-0.01211,0.005607
1637,-0.019652,0.005964,0.023687
1638,-0.019652,-0.01211,0.023687
1639,-0.001113,0.005964,0.023687
1640,-0.001113,0.005964,0.023687
1641,-0.001113,0.005964,0.023687
1642,0.017426,0.005964,-0.012473
1643,-0.001113,-0.01211,-0.012473
1644,0.017426,-0.01211,0.005607
1645,0.017426,0.005964,-0.012473
1646,-0.001113,0.005964,-0.012473
1647,-0.019652,0.005964,-0.012473
1648,-0.001113,0.005964,-0.012473
1649,-0.001113,0.005964,-0.012473
1650,-0.001113,-0.01211,0.005607
1651,-0.019652,0.005964,0.023687
1652,-0.001113,0.005964,0.005607
1653,-0.001113,0.005964,0.023687
1654,-0.001113,0.024037,0.023687
1655,-0.001113,-0.030183,0.023687
1656,-0.001113,0.005964,-0.012473
1657,-0.001113,0.005964,0.005607
1658,-0.001113,-0.01211,-0.012473
1659,-0.001113,-0.030183,-0.012473
1660,-0.001113,-0.030183,-0.012473
1661,-0.001113,-0.01211,0.005607
1662,0.017426,0.005964,0.005607
1663,-0.001113,0.005964,0.023687
1664,-0.001113,0.005964,-0.030552
1665,-0.001113,0.024037,0.005607
1666,0.017426,0.005964,-0.048632
1667,0.017426,0.005964,-0.048632
1668,-0.001113,0.005964,-0.012473
1669,-0.001113,-0.01211,0.023687
1670,-0.001113,-0.01211,0.005607
1671,0.017426,0.005964,0.023687
1672,-0.019652,-0.01211,0.059847
1673,-0.05673,-0.01211,0.059847
1674,-0.001113,-0.01211,0.059847
1675,0.017426,-0.01211,0.059847
1676,-0.001113,0.005964,0.005607
1677,0.017426,0.005964,-0.030552
1678,0.017426,-0.01211,-0.012473
1679,0.017426,0.005964,-0.012473
1680,-0.001113,0.005964,-0.030552
1681,-0.019652,0.005964,-0.030552
1682,-0.001113,0.005964,0.005607
1683,0.017426,0.005964,0.005607
1684,-0.001113,0.005964,-0.012473
1685,-0.019652,0.005964,0.023687
1686,0.017426,0.024037,0.023687
1687,-0.001113,0.005964,0.059847
1688,-0.001113,0.005964,0.023687
1689,-0.019652,-0.01211,0.023687
1690,0.017426,0.005964,0.023687
1691,0.017426,0.024037,0.005607
1692,-0.001113,0.005964,-0.012473
1693,-0.001113,-0.01211,0.005607
1694,-0.001113,0.005964,-0.012473
1695,-0.001113,0.005964,-0.030552
1696,-0.019652,-0.01211,-0.012473
1697,-0.001113,-0.030183,0.005607
1698,-0.019652,0.005964,-0.012473
1699,-0.001113,0.005964,-0.030552
1700,-0.038191,-0.01211,0.005607
1701,-0.001113,-0.01211,-0.048632
1702,-0.001113,-0.01211,-0.012473
1703,0.017426,-0.030183,0.041767
1704,-0.019652,0.005964,0.041767
1705,-0.001113,-0.01211,0.023687
1706,-0.019652,0.005964,0.023687
1707,-0.001113,0.024037,0.041767
1708,0.017426,0.005964,0.023687
1709,-0.001113,0.005964,0.005607
1710,-0.001113,0.024037,0.023687
1711,0.017426,0.005964,0.005607
1712,0.017426,-0.01211,-0.012473
1713,-0.001113,-0.01211,-0.030552
1714,-0.001113,0.005964,-0.012473
1715,-0.001113,-0.01211,-0.030552
1716,-0.019652,0.024037,0.005607
1717,-0.001113,-0.01211,0.005607
1718,-0.001113,0.005964,0.005607
1719,0.017426,-0.01211,0.005607
1720,-0.001113,0.024037,-0.012473
1721,-0.001113,0.005964,0.005607
1722,-0.001113,0.005964,0.005607
1723,-0.001113,0.005964,-0.012473
1724,0.017426,0.005964,0.005607
1725,-0.001113,0.005964,-0.012473
1726,0.035965,-0.01211,-0.048632
1727,-0.001113,-0.01211,-0.012473
1728,-0.001113,-0.01211,-0.012473
1729,-0.001113,-0.030183,-0.012473
1730,-0.001113,0.005964,-0.012473
1731,0.017426,0.005964,0.005607
1732,0.017426,0.005964,-0.012473
1733,0.017426,0.005964,0.005607
1734,-0.001113,0.005964,0.041767
1735,-0.019652,-0.01211,-0.012473
1736,0.017426,-0.01211,-0.012473
1737,-0.001113,0.005964,0.041767
1738,0.017426,0.005964,0.023687
1739,-0.019652,-0.01211,0.023687
1740,-0.001113,0.005964,0.041767
1741,0.035965,0.024037,0.096007
1742,-0.001113,0.024037,0.059847
1743,0.017426,0.024037,0.005607
1744,-0.001113,0.024037,-0.012473
1745,-0.001113,0.005964,-0.012473
1746,-0.001113,0.005964,-0.012473
1747,0.017426,0.005964,0.005607
1748,-0.001113,0.005964,0.005607
1749,-0.001113,0.005964,-0.030552
1750,-0.001113,0.005964,-0.012473
1751,-0.001113,-0.01211,-0.012473
1752,-0.019652,-0.030183,-0.012473
1753,-0.001113,-0.01211,-0.012473
1754,-0.001113,-0.01211,-0.012473
1755,-0.001113,0.005964,0.005607
1756,-0.001113,0.005964,0.005607
1757,-0.001113,0.005964,0.005607
1758,0.017426,0.005964,0.059847
1759,-0.001113,0.005964,0.059847
1760,-0.001113,0.024037,-0.012473
1761,-0.001113,0.005964,-0.030552
1762,0.017426,0.024037,-0.030552
1763,-0.019652,0.005964,-0.048632
1764,0.017426,-0.01211,-0.048632
1765,-0.001113,-0.01211,-0.012473
1766,0.017426,0.005964,0.041767
1767,-0.001113,0.005964,0.023687
1768,0.017426,0.04211,0.041767
1769,-0.001113,0.024037,0.059847
1770,-0.001113,0.005964,0.041767
1771,0.017426,0.024037,0.005607
1772,-0.001113,0.005964,0.005607
1773,-0.019652,0.005964,0.023687
1774,-0.001113,0.005964,0.005607
1775,0.017426,-0.01211,-0.012473
1776,-0.001113,0.005964,0.005607
1777,-0.001113,-0.01211,-0.012473
1778,-0.001113,0.024037,-0.030552
1779,-0.001113,0.005964,0.005607
1780,-0.001113,-0.01211,-0.048632
1781,0.035965,-0.01211,-0.048632
1782,-0.001113,0.005964,-0.030552
1783,-0.001113,-0.01211,0.005607
1784,0.017426,-0.01211,-0.012473
1785,-0.001113,0.005964,0.005607
1786,-0.019652,-0.030183,0.005607
1787,-0.001113,0.005964,0.023687
1788,-0.019652,0.005964,0.005607
1789,-0.001113,0.005964,0.023687
1790,-0.019652,0.005964,0.023687
1791,0.017426,-0.01211,0.005607
1792,-0.019652,0.005964,-0.030552
1793,-0.001113,0.005964,-0.012473
1794,0.017426,0.005964,-0.012473
1795,-0.001113,0.005964,-0.030552
1796,-0.001113,-0.01211,-0.030552
1797,-0.019652,0.005964,-0.048632
1798,-0.001113,0.024037,-0.048632
1799,-0.019652,-0.01211,-0.030552
1800,-0.001113,-0.01211,0.005607
1801,-0.001113,-0.01211,0.023687
1802,-0.019652,-0.01211,0.005607
1803,-0.001113,0.024037,0.023687
1804,0.017426,0.005964,0.023687
1805,-0.001113,-0.01211,0.005607
1806,-0.001113,0.024037,0.023687
1807,0.017426,0.024037,0.041767
1808,0.017426,0.024037,0.023687
1809,-0.001113,0.005964,0.023687
1810,-0.001113,-0.01211,-0.012473
1811,-0.038191,0.024037,0.005607
1812,-0.001113,0.005964,0.005607
1813,-0.001113,0.005964,-0.012473
1814,-0.001113,0.005964,-0.012473
1815,0.017426,-0.01211,-0.030552
1816,0.017426,-0.01211,-0.030552
1817,-0.001113,0.005964,-0.012473
1818,-0.001113,-0.01211,0.023687
1819,-0.001113,0.005964,0.005607
1820,-0.001113,-0.01211,0.005607
1821,-0.001113,0.005964,0.041767
1822,-0.001113,-0.01211,0.005607
1823,0.017426,0.005964,0.005607
1824,-0.019652,0.005964,0.041767
1825,0.017426,0.005964,-0.012473
1826,0.017426,-0.01211,-0.012473
1827,-0.001113,0.005964,-0.030552
1828,-0.001113,0.005964,-0.012473
1829,0.017426,0.005964,-0.030552
1830,0.017426,0.005964,-0.012473
1831,-0.001113,-0.01211,0.023687
1832,-0.001113,-0.01211,0.005607
1833,-0.001113,0.024037,0.005607
1834,-0.001113,0.005964,0.005607
1835,-0.001113,-0.01211,0.023687
1836,-0.001113,0.005964,0.005607
1837,0.017426,0.005964,0.023687
1838,-0.001113,0.024037,0.059847
1839,-0.001113,0.005964,0.023687
1840,0.017426,0.005964,-0.030552
1841,0.017426,0.005964,0.023687
1842,-0.001113,0.005964,0.005607
1843,-0.001113,0.005964,-0.012473
1844,-0.001113,0.005964,-0.048632
1845,-0.001113,0.005964,-0.030552
1846,-0.019652,0.005964,-0.030552
1847,-0.001113,-0.01211,-0.030552
1848,-0.001113,0.005964,-0.030552
1849,-0.001113,-0.01211,0.005607
1850,-0.001113,-0.01211,-0.012473
1851,-0.001113,0.005964,-0.012473
1852,0.017426,0.005964,0.023687
1853,-0.001113,0.005964,0.023687
1854,-0.001113,0.005964,-0.012473
1855,-0.001113,0.024037,0.023687
1856,0.017426,0.024037,0.041767
1857,-0.001113,0.024037,0.005607
1858,-0.019652,-0.01211,-0.012473
1859,-0.001113,0.005964,0.023687
1860,-0.001113,0.005964,0.023687
1861,-0.019652,0.024037,0.023687
1862,-0.001113,0.024037,0.005607
1863,-0.001113,0.024037,0.023687
1864,-0.001113,0.024037,0.023687
1865,-0.019652,0.005964,0.005607
1866,-0.019652,0.024037,0.041767
1867,-0.001113,0.005964,0.005607
1868,-0.001113,0.024037,0.005607
1869,-0.001113,0.005964,0.005607
1870,-0.001113,0.005964,0.023687
1871,-0.001113,0.005964,-0.012473
1872,-0.001113,0.005964,0.023687
1873,-0.001113,0.005964,0.023687
1874,-0.019652,-0.01211,-0.012473
1875,0.017426,-0.01211,-0.012473
1876,-0.001113,0.005964,0.005607
1877,-0.001113,-0.01211,0.023687
1878,-0.001113,-0.01211,-0.012473
1879,-0.001113,-0.030183,-0.030552
1880,-0.001113,-0.01211,-0.012473
1881,-0.001113,0.024037,-0.012473
1882,0.035965,0.024037,-0.012473
1883,0.017426,0.005964,0.005607
1884,-0.001113,-0.01211,0.023687
1885,-0.001113,0.005964,-0.012473
1886,-0.001113,0.005964,0.023687
1887,-0.001113,0.005964,0.005607
1888,-0.001113,0.005964,0.005607
1889,0.017426,-0.01211,-0.012473
1890,0.017426,0.005964,0.023687
1891,-0.001113,0.024037,-0.012473
1892,0.017426,0.005964,-0.012473
1893,0.017426,0.005964,-0.012473
1894,-0.001113,0.005964,-0.012473
1895,-0.001113,-0.01211,-0.012473
1896,-0.001113,0.005964,-0.012473
1897,-0.019652,0.005964,-0.012473
1898,-0.019652,0.024037,0.005607
1899,-0.019652,0.005964,-0.030552
1900,0.017426,0.005964,-0.012473
1901,-0.001113,0.005964,0.005607
1902,-0.001113,0.005964,0.023687
1903,-0.019652,0.005964,-0.012473
1904,0.035965,0.005964,0.023687
1905,-0.001113,0.005964,0.023687
1906,-0.001113,0.005964,0.005607
1907,-0.001113,0.024037,0.023687
1908,-0.019652,0.005964,0.005607
1909,-0.019652,0.005964,0.005607
1910,-0.001113,0.005964,-0.012473
1911,-0.001113,0.005964,-0.012473
1912,-0.019652,0.005964,0.005607
1913,-0.001113,0.005964,-0.012473
1914,-0.001113,0.024037,0.005607
1915,0.017426,0.005964,0.023687
1916,-0.019652,0.024037,-0.030552
1917,-0.001113,0.005964,0.005607
1918,-0.019652,-0.01211,0.005607
1919,-0.001113,0.005964,0.023687
1920,-0.019652,-0.01211,-0.012473
1921,-0.001113,0.005964,0.005607
1922,-0.001113,-0.01211,0.005607
1923,-0.001113,-0.01211,0.005607
1924,-0.001113,-0.01211,-0.012473
1925,-0.001113,-0.01211,0.023687
1926,-0.019652,-0.01211,-0.012473
1927,-0.001113,0.005964,-0.012473
1928,-0.019652,0.005964,-0.030552
1929,-0.019652,0.005964,0.005607
1930,0.017426,0.005964,-0.012473
1931,-0.001113,0.005964,-0.030552
1932,0.017426,-0.01211,0.005607
1933,0.017426,-0.01211,0.005607
1934,-0.001113,-0.01211,0.005607
1935,-0.019652,-0.01211,0.005607
1936,0.017426,0.024037,0.023687
1937,-0.001113,0.005964,0.041767
1938,-0.001113,0.005964,0.041767
1939,-0.001113,0.005964,0.023687
1940,0.017426,-0.01211,0.023687
1941,-0.019652,0.005964,-0.012473
1942,-0.001113,0.005964,0.041767
1943,0.017426,0.005964,0.005607
1944,-0.001113,0.005964,-0.012473
1945,-0.019652,0.005964,-0.012473
1946,0.017426,0.005964,-0.012473
1947,-0.001113,0.005964,-0.030552
1948,-0.001113,0.005964,-0.012473
1949,-0.001113,0.005964,-0.012473
1950,-0.001113,-0.030183,-0.012473
1951,0.017426,0.005964,-0.030552
1952,-0.019652,-0.01211,-0.012473
1953,0.017426,0.005964,0.005607
1954,-0.019652,0.005964,0.059847
1955,-0.001113,0.005964,0.023687
1956,0.017426,0.005964,0.023687
1957,0.017426,-0.01211,0.041767
1958,-0.001113,0.005964,0.023687
1959,-0.019652,0.005964,-0.012473
1960,-0.001113,0.024037,0.005607
1961,-0.001113,0.005964,0.023687
1962,0.017426,0.005964,-0.012473
1963,-0.001113,0.005964,-0.012473
1964,-0.001113,0.005964,-0.012473
1965,-0.019652,-0.01211,-0.012473
1966,-0.001113,0.005964,-0.012473
1967,0.017426,0.024037,0.005607
1968,-0.001113,0.005964,0.005607
1969,-0.001113,0.005964,-0.030552
1970,-0.019652,0.005964,0.005607
1971,-0.019652,0.005964,0.023687
1972,-0.038191,0.005964,0.041767
1973,-0.001113,0.005964,0.023687
1974,-0.001113,0.005964,0.023687
1975,-0.001113,0.005964,0.005607
1976,-0.001113,0.024037,0.005607
1977,0.017426,0.005964,-0.012473
1978,0.017426,0.005964,0.023687
1979,0.017426,0.005964,-0.012473
1980,0.035965,0.005964,-0.012473
1981,-0.001113,-0.01211,-0.030552
1982,-0.019652,-0.01211,-0.030552
1983,-0.019652,0.005964,-0.030552
1984,0.017426,0.005964,-0.012473
1985,-0.001113,0.024037,0.005607
1986,-0.001113,0.005964,-0.030552
1987,-0.001113,0.005964,0.005607
1988,-0.001113,0.005964,0.041767
1989,-0.001113,0.005964,0.059847
1990,-0.001113,0.005964,0.041767
1991,-0.001113,0.024037,0.041767
1992,0.017426,0.005964,0.059847
1993,0.017426,0.005964,0.023687
1994,-0.038191,0.005964,0.005607
1995,-0.001113,0.005964,0.041767
1996,-0.001113,0.005964,0.005607
1997,-0.001113,-0.01211,-0.030552
1998,-0.019652,-0.01211,-0.030552
1999,-0.001113,0.005964,-0.012473
2000,-0.001113,0.024037,-0.012473
2001,-0.001113,0.005964,-0.030552
2002,0.017426,0.005964,-0.012473
2003,-0.001113,0.005964,-0.030552
2004,-0.001113,0.005964,-0.030552
2005,-0.001113,-0.01211,-0.030552
2006,-0.019652,-0.01211,0.005607
2007,-0.001113,0.005964,0.041767
2008,-0.019652,-0.01211,0.005607
2009,-0.001113,-0.01211,0.023687
2010,-0.001113,0.005964,0.059847
2011,0.017426,0.005964,0.041767
2012,-0.001113,0.005964,0.023687
2013,0.017426,0.005964,0.023687
2014,-0.001113,0.005964,-0.012473
2015,-0.001113,0.005964,0.023687
2016,-0.001113,0.005964,-0.012473
2017,-0.001113,0.005964,-0.012473
2018,-0.001113,0.005964,-0.012473
2019,-0.019652,0.024037,-0.012473
2020,-0.019652,0.005964,0.005607
2021,-0.019652,-0.01211,0.005607
2022,-0.001113,0.024037,-0.012473
2023,-0.001113,0.005964,0.005607
2024,0.017426,0.005964,-0.012473
2025,-0.001113,0.005964,0.005607
2026,-0.001113,0.005964,0.023687
2027,-0.001113,-0.01211,0.023687
2028,-0.001113,0.005964,0.005607
2029,0.017426,-0.01211,-0.012473
2030,-0.019652,0.005964,0.023687
2031,-0.001113,0.005964,-0.012473
2032,-0.001113,-0.01211,0.005607
2033,0.017426,0.005964,0.005607
2034,0.017426,0.005964,-0.012473
2035,-0.019652,0.005964,-0.012473
2036,-0.019652,-0.01211,-0.012473
2037,0.017426,0.005964,0.005607
2038,-0.019652,0.005964,0.005607
2039,-0.001113,0.005964,-0.012473
2040,-0.019652,0.005964,0.005607
2041,-0.001113,-0.01211,0.005607
2042,-0.019652,0.005964,0.023687
2043,-0.001113,0.024037,0.005607
2044,-0.001113,0.024037,0.005607
2045,-0.001113,0.005964,0.023687
2046,-0.001113,0.005964,0.005607
2047,0.017426,-0.01211,0.005607
2048,-0.001113,0.005964,0.041767
2049,-0.001113,0.024037,0.005607
2050,-0.001113,0.005964,-0.012473
2051,-0.001113,0.005964,-0.030552
2052,-0.001113,0.024037,-0.012473
2053,-0.001113,0.005964,-0.012473
2054,-0.001113,-0.01211,-0.012473
2055,-0.001113,0.024037,0.005607
2056,0.017426,0.024037,0.005607
2057,0.017426,0.005964,-0.012473
2058,-0.001113,0.024037,0.023687
2059,-0.019652,0.005964,0.023687
2060,-0.019652,-0.01211,0.023687
2061,-0.001113,0.024037,0.023687
2062,-0.019652,0.005964,0.023687
2063,0.017426,0.005964,0.041767
2064,-0.019652,0.005964,0.023687
2065,-0.001113,0.005964,-0.012473
2066,-0.019652,0.005964,0.005607
2067,-0.019652,0.005964,-0.012473
2068,-0.019652,-0.01211,-0.030552
2069,-0.038191,0.005964,-0.030552
2070,-0.001113,-0.01211,-0.012473
2071,-0.001113,0.005964,-0.030552
2072,-0.001113,-0.01211,-0.012473
2073,-0.001113,0.005964,0.005607
2074,-0.001113,0.005964,-0.012473
2075,0.017426,0.005964,0.005607
2076,-0.019652,0.005964,-0.030552
2077,0.017426,0.005964,0.023687
2078,-0.001113,0.005964,0.005607
2079,-0.001113,0.005964,0.023687
2080,-0.001113,0.005964,0.023687
2081,-0.001113,0.024037,0.023687
2082,-0.001113,0.005964,0.005607
2083,-0.019652,0.005964,0.005607
2084,-0.001113,0.024037,-0.012473
2085,-0.038191,0.005964,-0.030552
2086,-0.001113,0.005964,-0.012473
2087,-0.001113,0.005964,0.005607
2088,-0.019652,0.024037,-0.012473
2089,0.017426,0.005964,-0.012473
2090,-0.001113,-0.01211,0.005607
2091,-0.019652,-0.01211,0.005607
2092,-0.001113,0.005964,-0.030552
2093,-0.001113,-0.01211,0.005607
2094,0.017426,-0.01211,-0.012473
2095,-0.001113,-0.01211,0.041767
2096,-0.001113,-0.01211,-0.012473
2097,-0.019652,0.005964,0.041767
2098,0.017426,0.024037,0.041767
2099,-0.019652,0.005964,0.023687
2100,-0.001113,0.005964,0.005607
2101,-0.001113,0.005964,0.041767
2102,0.017426,0.005964,0.005607
2103,-0.001113,0.005964,0.005607
2104,-0.019652,0.005964,-0.012473
2105,-0.001113,0.005964,0.005607
2106,-0.001113,0.005964,-0.012473
2107,-0.001113,0.005964,-0.030552
2108,-0.001113,0.005964,0.023687
2109,0.017426,0.005964,0.005607
2110,0.017426,0.005964,-0.012473
2111,-0.001113,0.024037,-0.012473
2112,0.017426,0.005964,0.005607
2113,-0.001113,0.005964,0.023687
2114,0.017426,0.024037,-0.012473
2115,-0.001113,0.024037,0.005607
2116,-0.001113,0.005964,0.005607
2117,-0.001113,0.024037,-0.012473
2118,-0.019652,-0.01211,0.005607
2119,-0.001113,0.005964,0.005607
2120,-0.019652,0.005964,-0.012473
2121,0.017426,0.005964,-0.012473
2122,0.017426,0.005964,-0.012473
2123,-0.001113,0.005964,0.005607
2124,-0.019652,0.005964,-0.012473
2125,-0.001113,0.005964,-0.030552
2126,-0.019652,0.024037,0.005607
2127,-0.001113,-0.01211,0.005607
2128,-0.001113,0.005964,-0.012473
2129,-0.019652,0.005964,0.005607
2130,-0.001113,0.005964,0.023687
2131,-0.001113,0.005964,0.059847
2132,-0.019652,0.005964,0.023687
2133,0.017426,0.005964,0.023687
2134,-0.001113,0.005964,0.023687
2135,-0.001113,0.04211,0.005607
2136,-0.001113,-0.01211,0.023687
2137,-0.001113,-0.01211,0.005607
2138,-0.001113,0.005964,-0.030552
2139,-0.019652,0.005964,-0.012473
2140,-0.019652,0.005964,-0.012473
2141,-0.001113,0.005964,-0.030552
2142,-0.001113,0.005964,-0.012473
2143,-0.038191,0.024037,0.023687
2144,-0.001113,0.024037,0.005607
2145,0.017426,0.005964,-0.030552
2146,-0.001113,0.024037,0.005607
2147,-0.001113,0.024037,0.023687
2148,-0.001113,0.005964,0.023687
2149,-0.001113,0.024037,0.023687
2150,0.017426,-0.01211,0.005607
2151,-0.001113,0.005964,0.005607
2152,-0.038191,0.005964,0.023687
2153,0.017426,0.024037,-0.012473
2154,-0.001113,0.005964,0.005607
2155,-0.001113,0.005964,0.005607
2156,0.017426,0.005964,0.005607
2157,0.017426,0.005964,-0.012473
2158,-0.019652,0.005964,-0.012473
2159,0.017426,-0.01211,-0.030552
2160,-0.019652,-0.01211,-0.030552
2161,-0.001113,0.005964,0.005607
2162,-0.001113,0.005964,-0.012473
2163,-0.001113,0.005964,-0.012473
2164,-0.05673,0.005964,0.005607
2165,-0.001113,-0.01211,0.023687
2166,-0.019652,0.005964,0.023687
2167,-0.019652,-0.01211,0.023687
2168,-0.001113,0.005964,0.023687
2169,-0.001113,0.005964,0.023687
2170,0.017426,0.005964,0.023687
2171,-0.001113,-0.01211,0.023687
2172,-0.001113,0.005964,0.041767
2173,-0.001113,-0.01211,-0.012473
2174,-0.019652,-0.01211,-0.012473
2175,-0.001113,0.005964,-0.012473
2176,0.017426,0.005964,0.005607
2177,0.017426,0.024037,-0.012473
2178,0.017426,-0.01211,-0.030552
2179,-0.001113,0.005964,0.005607
2180,-0.001113,0.005964,-0.012473
2181,0.017426,0.024037,-0.030552
2182,-0.001113,0.024037,-0.012473
2183,0.017426,0.005964,-0.012473
2184,-0.001113,-0.01211,-0.030552
2185,0.017426,-0.01211,0.005607
2186,-0.001113,0.024037,0.005607
2187,-0.019652,0.024037,0.023687
2188,-0.001113,-0.01211,-0.030552
2189,-0.019652,-0.01211,0.041767
2190,-0.001113,0.005964,0.023687
2191,-0.001113,0.005964,0.005607
2192,-0.019652,0.024037,0.023687
2193,-0.001113,0.04211,0.023687
2194,0.017426,0.005964,-0.012473
2195,-0.001113,0.024037,-0.012473
2196,-0.001113,0.005964,-0.012473
2197,-0.019652,0.005964,-0.012473
2198,0.017426,0.005964,-0.012473
2199,-0.001113,-0.01211,-0.030552
2200,-0.001113,0.005964,0.005607
2201,-0.001113,0.024037,0.023687
2202,-0.001113,0.024037,0.023687
2203,-0.001113,0.005964,0.023687
2204,-0.019652,0.024037,0.023687
2205,-0.001113,0.005964,0.023687
2206,-0.019652,-0.01211,-0.012473
2207,-0.001113,0.024037,0.005607
2208,-0.001113,0.005964,0.023687
2209,0.017426,0.024037,-0.012473
2210,-0.001113,0.005964,-0.030552
2211,0.017426,0.005964,-0.012473
2212,0.017426,0.005964,-0.030552
2213,-0.001113,-0.01211,-0.030552
2214,-0.001113,0.024037,0.005607
2215,0.035965,0.024037,0.023687
2216,-0.001113,0.024037,-0.012473
2217,-0.001113,0.024037,0.023687
2218,-0.001113,-0.01211,0.041767
2219,-0.019652,0.005964,0.041767
2220,-0.001113,-0.01211,0.023687
2221,-0.001113,0.005964,0.023687
2222,-0.001113,0.005964,0.005607
2223,-0.001113,-0.01211,-0.030552
2224,0.017426,0.005964,-0.012473
2225,-0.019652,-0.01211,0.005607
2226,0.035965,-0.01211,-0.012473
2227,0.017426,0.005964,-0.030552
2228,-0.001113,-0.01211,0.005607
2229,-0.019652,0.005964,0.005607
2230,-0.001113,0.005964,0.005607
2231,-0.019652,0.024037,0.041767
2232,-0.001113,0.024037,0.059847
2233,0.017426,0.005964,0.023687
2234,-0.001113,0.024037,-0.030552
2235,-0.019652,0.005964,0.005607
2236,-0.001113,0.005964,0.005607
2237,-0.001113,-0.01211,-0.012473
2238,-0.001113,0.005964,0.005607
2239,0.017426,0.005964,0.023687
2240,-0.019652,0.005964,0.041767
2241,-0.001113,0.005964,0.005607
2242,-0.001113,0.005964,0.041767
2243,-0.001113,0.005964,0.023687
2244,-0.001113,0.005964,0.005607
2245,-0.001113,0.005964,-0.012473
2246,-0.019652,0.005964,-0.012473
2247,0.017426,0.005964,-0.030552
2248,-0.001113,0.024037,-0.012473
2249,-0.001113,-0.01211,-0.030552
2250,-0.001113,0.005964,-0.012473
2251,-0.019652,0.005964,-0.030552
2252,-0.001113,0.005964,-0.030552
2253,-0.001113,0.005964,-0.012473
2254,-0.001113,0.005964,0.023687
2255,-0.019652,0.005964,0.023687
2256,-0.001113,0.005964,0.023687
2257,-0.019652,0.005964,0.023687
2258,-0.001113,-0.01211,0.023687
2259,-0.001113,0.005964,0.041767
2260,0.017426,0.005964,0.023687
2261,-0.001113,-0.01211,-0.012473
2262,-0.001113,0.024037,-0.012473
2263,0.017426,0.005964,0.005607
2264,-0.001113,0.005964,0.005607
2265,-0.001113,0.024037,-0.030552
2266,0.017426,0.005964,-0.030552
2267,-0.001113,0.024037,0.005607
2268,0.017426,0.024037,0.005607
2269,-0.019652,0.024037,-0.012473
2270,-0.001113,0.005964,0.005607
2271,-0.001113,0.005964,0.005607
2272,-0.001113,-0.01211,-0.048632
2273,-0.001113,0.005964,-0.012473
2274,0.017426,0.005964,-0.012473
2275,-0.019652,0.005964,0.005607
2276,-0.019652,0.005964,0.005607
2277,-0.001113,0.005964,0.005607
2278,-0.019652,0.005964,0.023687
2279,-0.001113,0.005964,0.005607
2280,-0.038191,0.005964,-0.012473
2281,-0.001113,0.005964,0.023687
2282,-0.019652,0.005964,0.005607
2283,0.017426,0.005964,-0.012473
2284,-0.019652,0.005964,-0.012473
2285,-0.001113,0.005964,0.005607
2286,-0.001113,-0.01211,-0.012473
2287,-0.001113,-0.01211,-0.030552
2288,-0.019652,0.005964,0.005607
2289,-0.019652,-0.01211,0.023687
2290,-0.001113,0.024037,-0.030552
2291,-0.001113,0.005964,0.005607
2292,-0.019652,-0.01211,0.005607
2293,-0.019652,0.005964,0.023687
2294,-0.019652,0.005964,0.005607
2295,0.017426,0.005964,0.041767
2296,-0.001113,0.005964,0.041767
2297,-0.019652,0.024037,0.005607
2298,-0.001113,-0.01211,0.005607
2299,-0.019652,0.005964,0.005607
2300,-0.001113,-0.01211,0.005607
2301,-0.019652,0.024037,-0.030552
2302,-0.001113,0.005964,-0.030552
2303,-0.019652,0.005964,0.005607
2304,-0.019652,0.005964,-0.012473
2305,-0.001113,0.024037,-0.012473
2306,-0.001113,0.024037,0.005607
2307,-0.019652,0.024037,0.041767
2308,0.017426,0.005964,-0.030552
2309,-0.001113,0.024037,0.005607
2310,-0.019652,0.005964,0.023687
2311,-0.001113,0.024037,0.023687
2312,-0.001113,0.005964,0.005607
2313,-0.001113,-0.01211,0.005607
2314,0.017426,0.005964,0.005607
2315,-0.001113,0.005964,-0.012473
2316,-0.019652,0.024037,-0.012473
2317,-0.001113,0.024037,0.005607
2318,0.017426,-0.01211,-0.012473
2319,-0.019652,0.005964,-0.012473
2320,-0.019652,-0.01211,-0.012473
2321,0.017426,0.005964,0.005607
2322,-0.001113,0.005964,-0.012473
2323,-0.001113,0.005964,0.005607
2324,-0.019652,-0.01211,0.005607
2325,0.017426,0.024037,-0.012473
2326,-0.019652,0.005964,0.005607
2327,0.035965,0.005964,0.005607
2328,-0.001113,0.024037,0.041767
2329,-0.001113,0.005964,0.041767
2330,0.017426,0.005964,0.023687
2331,-0.019652,0.005964,0.023687
2332,-0.001113,0.005964,0.005607
2333,-0.019652,0.005964,-0.012473
2334,-0.019652,0.005964,0.023687
2335,-0.019652,0.005964,0.005607
2336,-0.019652,0.005964,-0.012473
2337,0.017426,0.005964,-0.012473
2338,-0.001113,0.005964,-0.012473
2339,-0.001113,0.005964,-0.012473
2340,-0.001113,0.005964,-0.030552
2341,-0.019652,0.005964,-0.012473
2342,0.017426,-0.01211,0.005607
2343,-0.001113,-0.01211,-0.012473
2344,-0.001113,-0.01211,-0.012473
2345,-0.019652,0.005964,0.005607
2346,-0.001113,0.024037,0.005607
2347,-0.019652,0.005964,0.005607
2348,0.017426,0.024037,0.023687
2349,-0.001113,0.024037,0.041767
2350,-0.001113,-0.01211,0.005607
2351,-0.001113,0.005964,0.005607
2352,-0.001113,0.005964,0.041767
2353,-0.001113,0.005964,0.023687
2354,-0.019652,0.005964,0.023687
2355,0.017426,0.005964,-0.012473
2356,-0.001113,0.005964,-0.012473
2357,-0.001113,0.005964,-0.030552
2358,-0.001113,0.005964,-0.048632
2359,-0.001113,-0.01211,-0.030552
2360,-0.019652,-0.01211,-0.048632
2361,0.017426,0.005964,-0.048632
2362,-0.001113,0.005964,-0.030552
2363,-0.001113,-0.01211,0.005607
2364,-0.001113,0.005964,0.023687
2365,-0.019652,0.005964,0.023687
2366,-0.019652,0.005964,0.041767
2367,0.017426,0.005964,0.059847
2368,-0.001113,0.005964,0.059847
2369,-0.019652,0.024037,0.041767
2370,-0.019652,0.005964,0.005607
2371,-0.001113,0.005964,0.005607
2372,0.017426,0.005964,0.023687
2373,-0.001113,0.024037,0.005607
2374,0.017426,0.024037,0.005607
2375,0.017426,0.024037,-0.030552
2376,-0.001113,0.005964,-0.012473
2377,-0.001113,0.005964,0.005607
2378,-0.001113,0.005964,-0.012473
2379,-0.019652,0.005964,0.005607
2380,-0.001113,0.005964,0.005607
2381,-0.001113,-0.01211,0.023687
2382,-0.019652,0.005964,0.005607
2383,-0.019652,-0.01211,0.023687
2384,-0.001113,0.005964,0.041767
2385,-0.001113,-0.01211,0.005607
2386,-0.001113,0.005964,-0.012473
2387,-0.001113,0.005964,0.041767
2388,-0.038191,0.005964,0.005607
2389,0.017426,0.005964,0.005607
2390,-0.001113,0.005964,-0.030552
2391,0.017426,0.024037,0.005607
2392,-0.001113,0.005964,-0.012473
2393,-0.001113,0.005964,-0.030552
2394,-0.001113,0.005964,0.005607
2395,0.017426,0.024037,0.005607
2396,-0.001113,0.024037,-0.030552
2397,-0.001113,0.005964,-0.012473
2398,-0.001113,0.005964,0.005607
2399,0.017426,0.024037,0.023687
2400,-0.001113,0.005964,-0.012473
2401,-0.019652,0.005964,0.005607
2402,-0.001113,-0.01211,0.023687
2403,-0.019652,-0.030183,-0.012473
2404,-0.019652,0.005964,0.005607
2405,-0.001113,-0.01211,0.023687
2406,-0.001113,0.005964,0.005607
2407,0.035965,0.005964,-0.012473
2408,-0.001113,-0.01211,-0.030552
2409,0.035965,0.024037,-0.012473
2410,-0.019652,0.005964,-0.012473
2411,-0.001113,0.005964,-0.012473
2412,-0.001113,0.005964,0.023687
2413,0.017426,0.005964,-0.030552
2414,-0.001113,0.005964,-0.012473
2415,-0.001113,0.005964,0.005607
2416,-0.001113,0.005964,0.023687
2417,0.017426,0.005964,0.005607
2418,-0.001113,-0.01211,0.023687
2419,-0.019652,0.005964,0.005607
2420,-0.001113,0.024037,0.023687
2421,-0.001113,0.005964,0.005607
2422,0.017426,-0.01211,0.023687
2423,0.017426,0.005964,0.005607
2424,0.017426,0.005964,-0.030552
2425,-0.001113,0.005964,-0.012473
2426,0.017426,0.005964,0.023687
2427,-0.019652,0.005964,0.005607
2428,-0.001113,-0.01211,-0.012473
2429,-0.001113,0.005964,0.005607
2430,-0.001113,0.024037,0.005607
2431,-0.019652,0.005964,-0.030552
2432,-0.001113,0.024037,-0.012473
2433,-0.001113,0.005964,0.005607
2434,-0.001113,-0.01211,0.005607
2435,-0.019652,0.005964,0.005607
2436,-0.001113,0.005964,0.005607
2437,-0.001113,-0.01211,0.023687
2438,-0.001113,0.005964,-0.012473
2439,-0.001113,0.005964,-0.012473
2440,-0.038191,0.005964,0.023687
2441,0.017426,0.024037,0.005607
2442,-0.001113,0.005964,-0.012473
2443,-0.001113,0.005964,-0.030552
2444,-0.001113,-0.01211,0.005607
2445,0.017426,0.024037,-0.012473
2446,-0.001113,0.005964,-0.012473
2447,-0.001113,0.024037,-0.012473
2448,-0.001113,0.024037,-0.012473
2449,-0.001113,0.005964,-0.012473
2450,-0.019652,0.024037,0.023687
2451,-0.019652,-0.01211,0.023687
2452,-0.001113,0.005964,0.023687
2453,-0.019652,-0.030183,0.023687
2454,0.017426,0.005964,0.023687
2455,-0.019652,0.024037,0.023687
2456,0.017426,0.005964,0.005607
2457,-0.001113,0.024037,0.023687
2458,-0.001113,-0.01211,0.005607
2459,-0.019652,-0.01211,0.005607
2460,0.017426,0.005964,0.005607
2461,-0.001113,0.04211,-0.012473
2462,-0.001113,0.005964,-0.012473
2463,-0.001113,0.005964,-0.012473
2464,-0.001113,0.005964,-0.012473
2465,-0.001113,0.005964,0.005607
2466,0.017426,0.005964,-0.030552
2467,-0.001113,0.005964,-0.012473
2468,0.017426,0.005964,0.005607
2469,-0.001113,0.005964,0.005607
2470,-0.001113,0.005964,0.005607
2471,-0.019652,0.005964,0.023687
2472,-0.001113,0.024037,0.041767
2473,-0.001113,0.005964,0.005607
2474,-0.001113,0.024037,-0.012473
2475,-0.019652,0.024037,0.023687
2476,-0.001113,0.024037,0.005607
2477,-0.001113,0.024037,-0.012473
2478,-0.001113,0.024037,0.023687
2479,-0.019652,0.005964,0.005607
2480,-0.001113,0.005964,-0.012473
2481,-0.019652,0.005964,-0.012473
2482,-0.001113,0.005964,-0.012473
2483,-0.019652,0.005964,0.005607
2484,-0.001113,0.024037,-0.012473
2485,0.017426,0.005964,0.005607
2486,-0.001113,-0.01211,0.023687
2487,-0.001113,0.005964,0.041767
2488,-0.019652,-0.01211,0.023687
2489,0.017426,0.005964,0.023687
2490,-0.001113,-0.01211,0.005607
2491,-0.019652,0.005964,0.005607
2492,-0.001113,-0.01211,0.023687
2493,-0.001113,0.005964,0.005607
2494,-0.001113,0.024037,-0.012473
2495,-0.001113,0.005964,-0.030552
2496,-0.001113,-0.01211,-0.012473
2497,-0.001113,-0.01211,-0.012473
2498,-0.001113,0.005964,-0.030552
2499,-0.001113,0.005964,-0.012473
2500,-0.001113,0.005964,-0.012473
2501,-0.001113,-0.01211,-0.030552
2502,-0.001113,0.005964,0.005607
2503,-0.019652,0.005964,0.023687
2504,-0.001113,0.005964,0.041767
2505,-0.038191,0.024037,0.023687
2506,-0.001113,0.005964,0.023687
2507,-0.001113,0.005964,0.023687
2508,-0.019652,0.005964,-0.012473
2509,-0.019652,0.005964,-0.012473
2510,-0.019652,0.005964,0.005607
2511,-0.001113,-0.01211,-0.012473
2512,-0.019652,0.005964,-0.012473
2513,-0.001113,0.005964,-0.030552
2514,-0.001113,0.005964,0.023687
2515,-0.001113,0.005964,-0.012473
2516,-0.001113,0.005964,0.005607
2517,0.017426,0.005964,0.005607
2518,-0.001113,0.024037,0.023687
2519,-0.019652,0.005964,0.005607
2520,-0.001113,0.024037,0.023687
2521,-0.001113,0.024037,0.041767
2522,-0.001113,0.005964,0.023687
2523,-0.001113,0.005964,0.005607
2524,-0.001113,0.005964,0.005607
2525,-0.019652,0.005964,0.005607
2526,-0.001113,0.005964,0.005607
2527,-0.019652,0.005964,-0.012473
2528,-0.019652,-0.01211,0.005607
2529,-0.001113,0.024037,-0.012473
2530,-0.019652,0.005964,-0.030552
2531,-0.001113,0.005964,-0.030552
2532,-0.001113,-0.01211,-0.012473
2533,0.017426,0.005964,-0.048632
2534,-0.001113,0.005964,-0.012473
2535,-0.038191,0.005964,0.023687
2536,-0.001113,0.005964,-0.012473
2537,-0.019652,0.005964,0.023687
2538,0.017426,0.005964,0.059847
2539,-0.001113,0.005964,0.023687
2540,-0.001113,0.024037,0.023687
2541,-0.001113,-0.01211,0.023687
2542,-0.001113,0.005964,0.023687
2543,0.017426,-0.01211,0.005607
2544,-0.019652,0.005964,-0.030552
2545,-0.001113,0.005964,0.005607
2546,-0.001113,0.005964,0.005607
2547,0.017426,0.005964,-0.012473
2548,-0.001113,-0.030183,-0.030552
2549,0.017426,0.005964,0.005607
2550,-0.001113,0.024037,-0.030552
2551,0.017426,0.005964,-0.012473
2552,-0.001113,0.005964,0.005607
2553,-0.001113,0.024037,0.041767
2554,-0.019652,-0.01211,0.005607
2555,-0.001113,0.005964,0.005607
2556,-0.001113,0.024037,0.041767
2557,-0.019652,0.005964,0.005607
2558,-0.001113,0.024037,0.005607
2559,-0.001113,0.005964,0.023687
2560,-0.019652,0.005964,-0.012473
2561,-0.019652,-0.01211,-0.012473
2562,-0.001113,0.005964,-0.030552
2563,-0.001113,-0.01211,0.005607
2564,-0.019652,0.005964,-0.012473
2565,-0.001113,0.005964,-0.012473
2566,-0.001113,0.024037,0.023687
2567,-0.001113,0.024037,0.005607
2568,-0.001113,0.024037,-0.012473
2569,-0.019652,0.024037,0.005607
2570,-0.001113,0.005964,0.023687
2571,-0.019652,0.024037,0.005607
2572,-0.001113,0.024037,0.023687
2573,-0.001113,0.005964,0.023687
2574,0.017426,-0.01211,0.023687
2575,-0.001113,0.005964,0.005607
2576,-0.019652,-0.01211,0.041767
2577,-0.001113,0.005964,0.023687
2578,0.017426,0.005964,-0.012473
2579,-0.001113,-0.01211,-0.012473
2580,-0.001113,0.005964,0.005607
2581,-0.001113,0.024037,-0.012473
2582,-0.001113,-0.01211,-0.012473
2583,-0.001113,0.005964,-0.030552
2584,0.017426,-0.01211,-0.012473
2585,-0.019652,-0.01211,-0.012473
2586,-0.019652,0.005964,-0.030552
2587,-0.001113,0.024037,0.023687
2588,-0.019652,-0.01211,0.023687
2589,-0.001113,0.005964,-0.012473
2590,0.017426,-0.01211,0.023687
2591,-0.019652,0.024037,0.041767
2592,-0.001113,-0.01211,0.023687
2593,-0.001113,0.005964,0.005607
2594,0.017426,-0.01211,0.005607
2595,-0.001113,0.005964,0.005607
2596,-0.019652,0.005964,0.023687
2597,-0.019652,0.005964,-0.030552
2598,-0.001113,0.005964,0.005607
2599,-0.001113,0.005964,-0.030552
2600,-0.001113,-0.01211,-0.030552
2601,-0.001113,-0.01211,0.005607
2602,-0.001113,0.005964,0.005607
2603,-0.001113,0.005964,-0.030552
2604,-0.019652,0.005964,0.023687
2605,-0.001113,0.024037,0.041767
2606,-0.001113,0.024037,0.041767
2607,0.017426,0.005964,0.041767
2608,0.017426,0.04211,0.041767
2609,0.017426,0.024037,0.041767
2610,-0.001113,0.005964,0.023687
2611,-0.001113,0.005964,0.023687
2612,-0.001113,0.005964,0.005607
2613,-0.019652,0.005964,-0.012473
2614,-0.019652,0.005964,-0.012473
2615,-0.001113,-0.01211,-0.030552
2616,-0.001113,-0.01211,-0.012473
2617,-0.019652,0.005964,-0.030552
2618,-0.001113,0.005964,-0.012473
2619,-0.001113,0.005964,0.005607
2620,-0.019652,0.005964,-0.012473
2621,-0.001113,0.024037,-0.012473
2622,-0.001113,0.005964,0.023687
2623,-0.001113,-0.01211,0.005607
2624,-0.001113,0.005964,-0.012473
2625,-0.001113,0.005964,0.005607
2626,-0.001113,0.005964,0.023687
2627,-0.001113,0.024037,0.005607
2628,-0.001113,0.024037,-0.012473
2629,-0.001113,0.024037,0.023687
2630,-0.019652,0.005964,-0.012473
2631,-0.001113,-0.030183,-0.030552
2632,-0.001113,-0.01211,-0.030552
2633,-0.019652,0.005964,-0.012473
2634,-0.019652,0.005964,-0.012473
2635,-0.001113,0.005964,0.005607
2636,-0.001113,0.005964,0.023687
2637,-0.001113,0.005964,0.005607
2638,-0.019652,0.024037,-0.012473
2639,-0.001113,0.005964,0.023687
2640,-0.001113,0.005964,0.005607
2641,0.017426,0.024037,0.023687
2642,-0.001113,0.005964,0.023687
2643,-0.001113,-0.01211,0.023687
2644,-0.001113,0.005964,0.005607
2645,-0.019652,0.005964,0.005607
2646,0.017426,0.024037,0.005607
2647,-0.001113,-0.01211,0.005607
2648,0.017426,0.005964,-0.012473
2649,-0.019652,-0.01211,-0.030552
2650,0.017426,-0.01211,0.005607
2651,-0.001113,0.005964,0.005607
2652,-0.019652,0.024037,-0.012473
2653,-0.001113,0.005964,0.005607
2654,0.017426,-0.01211,0.023687
2655,-0.001113,0.024037,-0.012473
2656,0.017426,0.005964,-0.012473
2657,-0.001113,0.005964,0.005607
2658,0.035965,-0.01211,0.041767
2659,-0.001113,0.024037,0.023687
2660,-0.001113,0.005964,0.023687
2661,-0.001113,0.005964,0.005607
2662,0.017426,0.005964,0.005607
2663,0.017426,0.005964,-0.012473
2664,-0.001113,0.005964,0.023687
2665,-0.001113,0.005964,0.005607
2666,-0.001113,0.005964,-0.012473
2667,-0.001113,0.005964,0.005607
2668,-0.001113,0.024037,0.005607
2669,-0.001113,0.005964,-0.012473
2670,-0.001113,0.005964,0.005607
2671,-0.001113,-0.01211,0.005607
2672,-0.001113,0.005964,0.005607
2673,-0.001113,0.005964,-0.012473
2674,-0.001113,0.005964,-0.012473
2675,0.017426,0.005964,0.023687
2676,-0.001113,0.005964,0.005607
2677,-0.001113,0.005964,0.005607
2678,-0.001113,0.005964,0.023687
2679,-0.001113,0.005964,0.005607
2680,-0.001113,0.005964,0.005607
2681,-0.019652,0.005964,-0.012473
2682,-0.001113,0.005964,0.005607
2683,-0.001113,0.005964,-0.012473
2684,-0.001113,0.005964,-0.030552
2685,-0.001113,0.005964,-0.012473
2686,-0.019652,0.005964,-0.012473
2687,-0.019652,0.024037,-0.048632
2688,0.017426,-0.01211,-0.012473
2689,-0.019652,0.005964,0.005607
2690,-0.001113,0.005964,-0.012473
2691,-0.001113,0.005964,-0.012473
2692,-0.001113,0.005964,-0.012473
2693,-0.038191,0.024037,0.041767
2694,-0.019652,0.005964,0.005607
2695,-0.001113,0.005964,0.041767
2696,0.017426,0.005964,0.023687
2697,-0.001113,0.024037,0.005607
2698,-0.038191,0.005964,0.005607
2699,-0.001113,0.005964,0.023687
2700,-0.001113,0.024037,0.005607
2701,-0.019652,0.005964,0.005607
2702,0.017426,0.04211,-0.030552
2703,-0.019652,0.04211,-0.012473
2704,-0.019652,0.024037,-0.012473
2705,-0.001113,0.005964,-0.012473
2706,-0.001113,0.005964,0.005607
2707,0.017426,-0.01211,0.041767
2708,-0.001113,0.005964,0.005607
2709,-0.001113,0.005964,0.005607
2710,-0.001113,-0.01211,0.041767
2711,0.017426,-0.01211,0.005607
2712,-0.019652,0.005964,0.005607
2713,-0.001113,0.005964,0.023687
2714,-0.019652,0.005964,-0.012473
2715,-0.001113,0.005964,-0.012473
2716,-0.001113,0.005964,-0.012473
2717,-0.001113,-0.01211,0.023687
2718,-0.001113,0.005964,0.005607
2719,-0.001113,0.04211,-0.012473
2720,-0.038191,-0.01211,0.023687
2721,0.017426,0.005964,-0.012473
2722,-0.001113,0.005964,-0.030552
2723,-0.001113,0.005964,-0.012473
2724,-0.001113,0.005964,0.023687
2725,-0.001113,0.024037,0.023687
2726,-0.019652,0.024037,0.005607
2727,-0.001113,-0.01211,0.023687
2728,0.017426,0.005964,0.023687
2729,-0.019652,0.005964,0.005607
2730,-0.019652,0.005964,0.023687
2731,-0.001113,0.005964,0.041767
2732,-0.001113,-0.01211,0.005607
2733,-0.019652,0.005964,0.005607
2734,-0.001113,0.005964,0.023687
2735,-0.001113,-0.01211,0.023687
2736,-0.001113,0.005964,-0.030552
2737,-0.001113,0.024037,-0.012473
2738,-0.001113,0.04211,0.023687
2739,-0.001113,0.005964,-0.030552
2740,-0.019652,0.024037,-0.012473
2741,-0.001113,0.005964,0.023687
2742,-0.019652,0.005964,0.023687
2743,-0.001113,0.005964,0.005607
2744,-0.001113,0.005964,0.005607
2745,-0.001113,0.005964,0.005607
2746,-0.001113,0.005964,0.005607
2747,-0.019652,0.005964,0.005607
2748,-0.019652,-0.01211,0.023687
2749,-0.001113,0.005964,0.005607
2750,-0.001113,0.005964,-0.012473
2751,0.017426,0.005964,-0.012473
2752,0.017426,0.005964,0.005607
2753,-0.001113,0.005964,-0.012473
2754,-0.001113,0.005964,-0.012473
2755,-0.038191,0.005964,0.005607
2756,-0.019652,0.005964,-0.012473
2757,-0.001113,0.024037,-0.012473
2758,-0.001113,0.005964,0.005607
2759,-0.001113,0.024037,0.005607
2760,-0.001113,0.024037,0.041767
2761,-0.001113,0.005964,0.005607
2762,0.017426,0.005964,0.023687
2763,-0.001113,0.005964,0.023687
2764,-0.019652,0.024037,0.005607
2765,-0.001113,0.005964,-0.012473
2766,0.017426,0.024037,0.005607
2767,-0.001113,-0.01211,-0.012473
2768,-0.001113,-0.01211,-0.030552
2769,0.017426,0.005964,-0.012473
2770,-0.019652,0.005964,-0.012473
2771,-0.019652,0.005964,-0.030552
2772,-0.001113,-0.01211,-0.012473
2773,-0.001113,0.005964,0.023687
2774,-0.001113,0.005964,-0.030552
2775,-0.001113,0.005964,0.005607
2776,-0.001113,0.024037,0.041767
2777,-0.019652,0.005964,0.041767
2778,-0.001113,0.005964,0.005607
2779,-0.001113,0.005964,0.023687
2780,-0.001113,0.005964,0.023687
2781,-0.001113,0.005964,0.005607
2782,-0.001113,0.005964,-0.012473
2783,-0.001113,0.005964,0.023687
2784,0.017426,-0.01211,-0.012473
2785,0.017426,0.005964,-0.012473
2786,-0.001113,0.005964,-0.012473
2787,-0.019652,0.024037,0.005607
2788,-0.001113,0.005964,-0.012473
2789,-0.001113,-0.01211,0.005607
2790,-0.019652,0.005964,-0.012473
2791,-0.001113,0.024037,-0.030552
2792,-0.019652,0.005964,-0.012473
2793,-0.001113,0.005964,0.005607
2794,-0.001113,0.005964,0.005607
2795,-0.001113,0.005964,0.005607
2796,-0.019652,0.005964,-0.012473
2797,0.017426,0.005964,0.041767
2798,-0.019652,-0.01211,0.005607
2799,-0.019652,0.005964,-0.012473
2800,-0.001113,0.024037,0.023687
2801,-0.001113,0.024037,0.005607
2802,-0.019652,0.024037,0.005607
2803,-0.001113,0.024037,-0.012473
2804,0.017426,0.005964,0.023687
2805,-0.001113,0.024037,-0.012473
2806,0.017426,-0.01211,-0.012473
2807,-0.019652,0.005964,0.023687
2808,0.017426,0.005964,0.023687
2809,-0.019652,0.024037,0.005607
2810,-0.001113,0.005964,0.041767
2811,-0.001113,0.005964,0.041767
2812,-0.001113,0.005964,0.041767
2813,-0.001113,0.005964,0.005607
2814,-0.001113,0.024037,0.005607
2815,-0.019652,0.024037,0.005607
2816,-0.001113,0.005964,-0.012473
2817,-0.001113,0.005964,-0.030552
2818,-0.001113,0.005964,0.005607
2819,-0.019652,0.005964,-0.012473
2820,-0.019652,0.005964,-0.012473
2821,-0.001113,-0.01211,0.005607
2822,-0.001113,0.005964,-0.012473
2823,-0.038191,0.005964,-0.012473
2824,-0.001113,0.005964,-0.012473
2825,-0.001113,0.005964,0.005607
2826,-0.019652,0.005964,0.023687
2827,0.017426,0.024037,0.005607
2828,-0.001113,0.005964,0.023687
2829,-0.001113,0.005964,0.005607
2830,-0.019652,-0.01211,0.005607
2831,-0.019652,0.005964,0.023687
2832,-0.019652,0.005964,0.023687
2833,-0.001113,0.005964,-0.012473
2834,-0.001113,0.005964,-0.012473
2835,-0.001113,0.005964,0.023687
2836,-0.019652,0.005964,0.005607
2837,-0.001113,0.024037,-0.012473
2838,-0.019652,0.005964,-0.030552
2839,0.017426,0.005964,0.005607
2840,-0.001113,0.005964,-0.012473
2841,-0.001113,0.005964,-0.012473
2842,-0.001113,0.005964,0.005607
2843,-0.001113,0.005964,0.005607
2844,-0.001113,0.005964,0.005607
2845,-0.001113,0.005964,0.023687
2846,0.017426,0.005964,0.041767
2847,-0.001113,0.005964,0.023687
2848,-0.019652,0.005964,0.005607
2849,-0.001113,-0.01211,0.041767
2850,-0.001113,0.005964,0.005607
2851,-0.019652,0.005964,-0.030552
2852,-0.001113,0.024037,-0.012473
2853,-0.019652,0.024037,-0.012473
2854,-0.001113,-0.01211,0.005607
2855,0.017426,-0.01211,-0.048632
2856,-0.001113,0.005964,-0.012473
2857,-0.001113,-0.01211,-0.030552
2858,-0.001113,0.005964,-0.030552
2859,-0.001113,0.005964,-0.012473
2860,-0.019652,0.005964,0.023687
2861,-0.001113,0.024037,0.023687
2862,-0.019652,0.005964,-0.012473
2863,-0.019652,0.005964,0.023687
2864,-0.001113,0.005964,0.005607
2865,-0.001113,0.024037,-0.012473
2866,-0.001113,0.005964,0.023687
2867,-0.001113,0.005964,0.023687
2868,-0.019652,0.005964,0.005607
2869,-0.001113,0.005964,0.005607
2870,0.017426,0.005964,-0.012473
2871,-0.019652,0.005964,0.023687
2872,-0.001113,0.005964,0.005607
2873,-0.019652,0.005964,-0.012473
2874,-0.019652,0.005964,0.005607
2875,-0.001113,0.005964,-0.012473
2876,-0.001113,-0.01211,0.005607
2877,-0.001113,-0.01211,0.005607
2878,0.017426,0.005964,0.059847
2879,-0.019652,0.024037,0.005607
2880,0.017426,0.005964,0.005607
2881,0.017426,0.024037,0.023687
2882,-0.001113,-0.01211,-0.012473
2883,-0.001113,0.005964,0.005607
2884,-0.001113,0.024037,0.023687
2885,-0.019652,0.024037,0.005607
2886,-0.001113,0.005964,0.005607
2887,-0.019652,0.005964,-0.030552
2888,-0.001113,0.005964,0.023687
2889,-0.019652,0.04211,-0.012473
2890,-0.019652,0.005964,-0.012473
2891,-0.001113,0.024037,0.005607
2892,-0.019652,-0.01211,0.023687
2893,-0.019652,0.005964,-0.048632
2894,-0.001113,-0.01211,-0.012473
2895,-0.001113,0.024037,0.005607
2896,-0.019652,-0.01211,0.023687
2897,-0.001113,0.005964,0.005607
2898,-0.001113,-0.01211,0.005607
2899,0.017426,0.005964,0.005607
2900,0.017426,0.005964,0.005607
2901,-0.001113,0.005964,0.005607
2902,-0.001113,0.005964,0.023687
2903,-0.001113,0.005964,0.005607
2904,-0.001113,0.005964,0.005607
2905,-0.019652,0.005964,-0.012473
2906,-0.001113,0.005964,0.023687
2907,-0.001113,0.005964,0.005607
2908,-0.019652,0.024037,0.005607
2909,-0.001113,0.005964,0.005607
2910,-0.001113,0.005964,-0.012473
2911,-0.001113,0.005964,-0.012473
2912,-0.001113,0.005964,0.005607
2913,-0.001113,0.005964,0.005607
2914,0.017426,0.005964,0.023687
2915,-0.019652,0.005964,0.005607
2916,-0.001113,0.024037,0.023687
2917,-0.019652,0.024037,0.023687
2918,0.017426,0.005964,0.005607
2919,-0.001113,0.005964,0.023687
2920,-0.001113,0.005964,0.005607
2921,-0.019652,0.024037,-0.012473
2922,-0.001113,0.024037,-0.030552
2923,-0.038191,-0.01211,0.005607
2924,0.017426,0.005964,0.005607
2925,-0.001113,0.005964,-0.012473
2926,-0.019652,-0.01211,0.023687
2927,-0.001113,0.005964,0.005607
2928,0.017426,0.005964,-0.030552
2929,-0.001113,0.005964,-0.012473
2930,-0.001113,0.005964,0.005607
2931,-0.001113,-0.01211,0.005607
2932,-0.001113,0.005964,-0.012473
2933,-0.001113,0.005964,-0.012473
2934,-0.001113,-0.01211,0.005607
2935,-0.001113,0.005964,-0.012473
2936,-0.019652,-0.01211,-0.030552
2937,-0.001113,0.005964,0.023687
2938,-0.001113,0.005964,0.005607
2939,0.017426,0.005964,0.005607
2940,-0.001113,0.005964,0.005607
2941,-0.001113,0.024037,0.023687
2942,-0.001113,0.024037,0.023687
2943,0.017426,0.024037,-0.012473
2944,-0.001113,0.024037,0.023687
2945,-0.001113,0.024037,0.023687
2946,-0.001113,0.024037,0.005607
2947,-0.001113,0.005964,0.023687
2948,-0.019652,0.005964,0.023687
2949,-0.001113,0.024037,0.041767
2950,-0.001113,0.024037,-0.012473
2951,-0.001113,0.024037,0.023687
2952,-0.001113,0.005964,0.023687
2953,0.017426,0.024037,0.005607
2954,-0.001113,0.005964,0.041767
2955,-0.001113,0.005964,0.023687
2956,-0.001113,0.005964,-0.012473
2957,-0.019652,0.005964,-0.030552
2958,-0.001113,0.005964,-0.030552
2959,-0.001113,0.005964,-0.012473
2960,-0.001113,0.005964,-0.012473
2961,-0.019652,0.024037,-0.012473
2962,0.017426,-0.01211,0.005607
2963,-0.001113,-0.01211,-0.012473
2964,0.017426,0.005964,-0.012473
2965,-0.019652,-0.01211,0.005607
2966,0.017426,0.005964,0.023687
2967,-0.001113,0.024037,-0.012473
2968,-0.019652,0.005964,0.005607
2969,-0.001113,0.005964,0.023687
2970,-0.001113,0.005964,0.023687
2971,-0.05673,-0.01211,0.005607
2972,-0.019652,0.005964,0.023687
2973,-0.001113,0.005964,0.041767
2974,-0.019652,0.005964,-0.012473
2975,-0.001113,0.005964,-0.012473
2976,-0.019652,0.005964,0.005607
2977,-0.019652,0.005964,-0.012473
2978,-0.019652,0.005964,-0.012473
2979,-0.019652,0.005964,-0.012473
2980,-0.019652,0.005964,0.005607
2981,-0.001113,0.024037,-0.012473
2982,0.017426,0.024037,0.005607
2983,-0.019652,0.005964,0.005607
2984,-0.019652,-0.01211,0.005607
2985,0.017426,0.005964,-0.012473
2986,-0.001113,0.005964,0.005607
2987,0.017426,0.024037,0.023687
2988,-0.001113,0.005964,0.005607
2989,-0.001113,0.005964,0.023687
2990,-0.001113,0.005964,0.023687
2991,-0.001113,0.024037,0.023687
2992,-0.001113,0.005964,-0.012473
2993,-0.019652,0.005964,-0.030552
2994,-0.001113,0.005964,0.005607
2995,-0.019652,0.005964,-0.030552
2996,-0.019652,-0.01211,-0.030552
2997,-0.001113,0.005964,0.005607
2998,-0.019652,0.005964,0.005607
2999,-0.001113,0.005964,0.005607
3000,-0.001113,0.024037,-0.012473
3001,-0.001113,-0.01211,0.023687
3002,0.035965,-0.01211,0.005607
3003,-0.001113,0.005964,0.023687
3004,-0.001113,0.005964,0.041767
3005,-0.019652,-0.01211,0.023687
3006,0.017426,0.005964,-0.012473
3007,-0.001113,0.024037,0.005607
3008,-0.019652,-0.01211,0.005607
3009,0.017426,0.005964,-0.012473
3010,-0.001113,0.005964,-0.012473
3011,-0.001113,0.024037,0.005607
3012,-0.001113,-0.01211,-0.012473
3013,-0.001113,0.024037,-0.012473
3014,-0.001113,0.005964,0.005607
3015,-0.001113,0.024037,0.023687
3016,-0.001113,0.005964,-0.048632
3017,-0.001113,0.005964,0.005607
3018,0.017426,0.024037,0.005607
3019,-0.001113,0.005964,0.023687
3020,-0.001113,0.005964,0.005607
3021,-0.001113,0.005964,0.023687
3022,-0.019652,0.005964,0.041767
3023,-0.001113,0.005964,0.005607
3024,-0.001113,0.024037,0.005607
3025,-0.019652,0.005964,0.023687
3026,-0.001113,0.005964,0.005607
3027,0.017426,-0.01211,-0.012473
3028,-0.001113,-0.01211,-0.048632
3029,-0.019652,-0.01211,-0.012473
3030,-0.019652,0.005964,-0.030552
3031,-0.001113,0.005964,-0.030552
3032,-0.019652,0.024037,-0.012473
3033,-0.001113,0.005964,-0.030552
3034,-0.019652,0.005964,-0.030552
3035,-0.001113,0.005964,0.023687
3036,-0.001113,0.005964,0.023687
3037,-0.038191,-0.01211,0.059847
3038,-0.019652,0.024037,0.023687
3039,-0.001113,0.024037,0.023687
3040,-0.019652,0.005964,0.005607
3041,0.017426,0.024037,-0.012473
3042,0.017426,0.024037,0.023687
3043,-0.019652,0.024037,0.005607
3044,-0.001113,0.005964,-0.012473
3045,-0.001113,-0.01211,-0.012473
3046,-0.001113,0.005964,-0.012473
3047,-0.019652,-0.01211,-0.012473
3048,-0.019652,0.005964,-0.012473
3049,-0.001113,0.005964,0.005607
3050,-0.019652,0.005964,0.023687
3051,-0.019652,0.024037,-0.030552
3052,-0.019652,0.060184,0.005607
3053,0.017426,0.005964,0.005607
3054,-0.019652,0.024037,0.023687
3055,-0.038191,0.005964,-0.012473
3056,0.017426,0.005964,0.005607
3057,-0.001113,0.005964,0.005607
3058,-0.019652,0.005964,-0.012473
3059,0.017426,0.024037,0.005607
3060,-0.001113,0.024037,0.041767
3061,-0.019652,0.005964,0.023687
3062,-0.001113,0.024037,0.005607
3063,0.017426,0.005964,-0.012473
3064,0.017426,0.005964,0.005607
3065,-0.001113,0.005964,-0.012473
3066,-0.001113,0.005964,-0.030552
3067,-0.001113,0.005964,0.005607
3068,-0.038191,0.005964,0.005607
3069,-0.001113,0.005964,-0.048632
3070,-0.019652,0.024037,0.005607
3071,-0.019652,0.005964,0.023687
3072,0.017426,-0.01211,0.023687
3073,-0.001113,0.005964,0.005607
3074,-0.001113,0.005964,0.023687
3075,-0.001113,0.024037,0.023687
3076,-0.001113,0.005964,0.005607
3077,0.035965,0.024037,0.005607
3078,-0.001113,-0.01211,0.023687
3079,-0.019652,0.005964,0.005607
3080,-0.001113,0.005964,-0.012473
3081,-0.001113,0.005964,-0.030552
3082,-0.019652,0.005964,0.005607
3083,-0.001113,0.005964,-0.012473
3084,-0.001113,0.005964,-0.030552
3085,-0.001113,0.005964,0.005607
3086,-0.001113,-0.048257,-0.030552
3087,-0.001113,0.024037,-0.048632
3088,-0.001113,0.005964,-0.012473
3089,0.017426,0.005964,0.023687
3090,-0.001113,0.005964,0.023687
3091,-0.001113,0.024037,0.005607
3092,-0.001113,0.005964,0.005607
3093,0.017426,0.005964,0.023687
3094,-0.001113,0.005964,0.005607
3095,-0.001113,0.005964,0.005607
3096,0.017426,0.005964,0.023687
3097,-0.001113,0.005964,0.005607
3098,-0.001113,0.005964,0.005607
3099,-0.001113,0.005964,0.005607
3100,-0.001113,0.024037,-0.012473
3101,-0.001113,-0.01211,-0.030552
3102,-0.019652,-0.01211,-0.012473
3103,-0.001113,0.005964,0.005607
3104,-0.019652,0.005964,-0.012473
3105,0.017426,0.005964,-0.012473
3106,-0.001113,0.005964,0.005607
3107,0.017426,0.005964,0.023687
3108,-0.001113,-0.01211,-0.012473
3109,-0.019652,0.005964,0.023687
3110,-0.001113,0.005964,0.023687
3111,-0.019652,0.005964,0.005607
3112,0.017426,0.024037,0.005607
3113,-0.001113,0.005964,0.023687
3114,0.017426,0.005964,0.005607
3115,-0.019652,-0.048257,0.005607
3116,-0.001113,-0.01211,-0.012473
3117,0.017426,0.005964,0.005607
3118,-0.001113,0.005964,0.005607
3119,-0.019652,0.024037,-0.012473
3120,-0.001113,0.024037,-0.012473
3121,-0.001113,0.024037,-0.012473
3122,0.017426,0.005964,-0.030552
3123,-0.019652,0.005964,-0.012473
3124,0.017426,0.005964,0.041767
3125,-0.001113,0.005964,0.041767
3126,-0.001113,0.005964,0.005607
3127,-0.001113,0.005964,0.023687
3128,-0.001113,-0.01211,0.023687
3129,-0.001113,0.024037,0.005607
3130,-0.001113,0.005964,0.005607
3131,-0.001113,0.005964,0.023687
3132,-0.019652,0.005964,-0.012473
3133,-0.001113,0.005964,0.005607
3134,-0.038191,0.005964,-0.012473
3135,0.017426,0.005964,0.005607
3136,-0.019652,-0.01211,0.005607
3137,-0.001113,0.005964,0.005607
3138,-0.001113,0.024037,-0.012473
3139,0.017426,0.005964,-0.012473
3140,-0.019652,0.005964,-0.012473
3141,0.017426,0.005964,-0.012473
3142,-0.019652,0.005964,0.005607
3143,-0.019652,0.005964,-0.030552
3144,-0.001113,-0.01211,0.005607
3145,0.017426,0.005964,0.005607
3146,-0.001113,0.005964,0.005607
3147,-0.019652,0.005964,-0.012473
3148,-0.038191,0.005964,0.005607
3149,-0.001113,0.005964,0.023687
3150,-0.001113,0.005964,-0.012473
3151,-0.001113,0.024037,-0.012473
3152,-0.001113,0.005964,0.041767
3153,-0.001113,0.005964,0.005607
3154,-0.001113,0.005964,-0.012473
3155,-0.019652,0.024037,-0.030552
3156,-0.001113,0.005964,0.005607
3157,0.017426,0.005964,-0.012473
3158,0.017426,0.005964,-0.012473
3159,-0.001113,0.005964,-0.012473
3160,-0.001113,0.005964,0.005607
3161,-0.019652,-0.01211,-0.030552
3162,-0.019652,-0.01211,-0.012473
3163,-0.019652,-0.01211,0.023687
3164,-0.019652,-0.01211,0.023687
3165,-0.001113,0.024037,0.023687
3166,-0.001113,0.024037,0.023687
3167,-0.038191,-0.01211,0.023687
3168,-0.019652,0.005964,0.023687
3169,-0.001113,0.005964,-0.012473
3170,-0.001113,0.005964,0.041767
3171,-0.001113,0.005964,0.005607
3172,-0.001113,0.005964,0.005607
3173,0.017426,0.005964,-0.012473
3174,-0.001113,0.024037,0.005607
3175,-0.001113,-0.030183,-0.012473
3176,0.017426,0.005964,-0.012473
3177,0.017426,0.024037,0.023687
3178,-0.001113,0.005964,0.005607
3179,-0.001113,0.024037,-0.012473
3180,-0.019652,-0.01211,0.005607
3181,-0.001113,0.005964,0.005607
3182,-0.019652,-0.01211,0.023687
3183,-0.019652,0.024037,0.023687
3184,-0.001113,0.005964,0.023687
3185,-0.019652,-0.01211,0.023687
3186,0.017426,0.005964,-0.012473
3187,-0.001113,-0.01211,0.005607
3188,0.017426,-0.01211,0.005607
3189,-0.001113,0.005964,-0.012473
3190,-0.001113,0.005964,0.005607
3191,-0.001113,0.005964,-0.012473
3192,-0.019652,-0.01211,-0.012473
3193,-0.001113,0.005964,-0.012473
3194,0.091583,0.005964,-0.030552
3195,-0.001113,0.024037,0.005607
3196,-0.001113,-0.01211,0.005607
3197,-0.001113,-0.01211,-0.030552
3198,-0.001113,0.005964,0.005607
3199,-0.001113,0.005964,-0.012473
3200,-0.001113,0.024037,-0.030552
3201,-0.019652,0.005964,0.005607
3202,-0.001113,-0.01211,0.041767
3203,0.017426,0.005964,0.041767
3204,-0.001113,0.005964,0.005607
3205,-0.001113,0.005964,0.041767
3206,-0.001113,0.005964,0.041767
3207,-0.001113,0.005964,0.023687
3208,-0.019652,-0.01211,-0.012473
3209,-0.001113,0.04211,0.023687
3210,0.017426,0.024037,0.023687
3211,-0.001113,0.005964,-0.012473
3212,-0.001113,-0.01211,-0.030552
3213,-0.019652,0.005964,-0.012473
3214,-0.019652,-0.01211,-0.030552
3215,-0.001113,0.005964,-0.030552
3216,-0.019652,0.005964,0.005607
3217,-0.001113,0.024037,0.005607
3218,-0.001113,0.024037,-0.012473
3219,-0.001113,-0.01211,0.023687
3220,-0.001113,-0.01211,0.023687
3221,-0.001113,0.005964,0.023687
3222,-0.001113,0.005964,0.023687
3223,0.017426,0.005964,0.005607
3224,-0.019652,0.005964,0.005607
3225,-0.001113,0.005964,0.005607
3226,-0.001113,-0.01211,-0.012473
3227,-0.001113,0.005964,0.023687
3228,-0.001113,0.005964,0.005607
3229,-0.001113,0.005964,0.005607
3230,-0.001113,0.024037,0.005607
3231,-0.019652,0.005964,-0.012473
3232,-0.001113,0.005964,-0.012473
3233,-0.001113,0.005964,-0.012473
3234,-0.001113,0.005964,0.005607
3235,-0.019652,0.005964,0.005607
3236,-0.001113,0.005964,0.005607
3237,-0.001113,0.024037,0.023687
3238,0.017426,0.005964,0.041767
3239,-0.001113,0.024037,0.023687
3240,-0.019652,0.024037,0.005607
3241,-0.001113,0.005964,0.005607
3242,-0.019652,0.005964,0.023687
3243,-0.001113,0.005964,0.005607
3244,-0.001113,-0.01211,0.041767
3245,-0.019652,0.005964,0.005607
3246,-0.001113,0.005964,-0.012473
3247,-0.019652,0.005964,-0.030552
3248,-0.019652,0.005964,-0.012473
3249,-0.019652,0.005964,-0.012473
3250,0.017426,0.005964,-0.012473
3251,-0.001113,0.005964,-0.012473
3252,-0.019652,0.005964,0.005607
3253,-0.001113,-0.01211,-0.030552
3254,-0.001113,0.024037,0.005607
3255,0.017426,0.024037,0.005607
3256,-0.001113,0.024037,0.023687
3257,-0.001113,-0.030183,0.005607
3258,-0.001113,0.005964,0.005607
3259,-0.001113,-0.01211,0.005607
3260,-0.019652,0.005964,0.005607
3261,0.017426,0.005964,-0.012473
3262,-0.019652,0.005964,0.041767
3263,-0.001113,0.005964,-0.012473
3264,-0.001113,0.005964,-0.030552
3265,-0.019652,0.005964,-0.012473
3266,-0.001113,0.005964,0.005607
3267,-0.001113,0.005964,0.005607
3268,-0.019652,0.005964,-0.012473
3269,0.017426,0.005964,0.005607
3270,-0.001113,0.005964,0.023687
3271,-0.001113,0.005964,-0.030552
3272,-0.001113,0.024037,0.005607
3273,0.017426,0.005964,0.005607
3274,0.017426,0.005964,0.023687
3275,-0.001113,0.005964,-0.012473
3276,-0.001113,0.005964,0.005607
3277,-0.001113,0.005964,0.005607
3278,-0.001113,0.005964,0.005607
3279,-0.001113,0.005964,-0.030552
3280,-0.001113,0.005964,0.005607
3281,-0.019652,-0.01211,-0.012473
3282,-0.001113,-0.030183,-0.012473
3283,-0.001113,0.005964,-0.030552
3284,0.017426,0.005964,-0.012473
3285,-0.019652,0.005964,-0.012473
3286,-0.001113,-0.01211,-0.012473
3287,-0.001113,0.024037,-0.012473
3288,0.017426,0.024037,-0.012473
3289,0.017426,0.005964,0.005607
3290,-0.038191,-0.01211,0.023687
3291,-0.019652,0.005964,0.023687
3292,-0.001113,0.005964,0.041767
3293,-0.001113,0.005964,0.005607
3294,-0.001113,0.005964,0.023687
3295,-0.001113,0.024037,0.023687
3296,-0.001113,0.005964,0.005607
3297,-0.001113,0.024037,0.023687
3298,-0.001113,0.005964,0.023687
3299,-0.038191,0.005964,0.005607
3300,-0.019652,0.005964,0.005607
3301,0.017426,0.024037,-0.012473
3302,0.035965,-0.01211,-0.012473
3303,0.017426,-0.01211,-0.030552
3304,0.017426,0.005964,-0.012473
3305,-0.001113,0.005964,0.005607
3306,-0.019652,-0.01211,-0.048632
3307,-0.001113,0.005964,-0.030552
3308,-0.001113,0.005964,0.005607
3309,-0.019652,0.005964,0.041767
3310,-0.001113,0.005964,0.005607
3311,-0.001113,0.005964,0.041767
3312,-0.019652,0.005964,0.059847
3313,-0.001113,0.005964,0.023687
3314,-0.001113,0.005964,0.023687
3315,-0.001113,0.005964,0.023687
3316,-0.019652,0.005964,-0.012473
3317,-0.001113,0.024037,-0.012473
3318,-0.001113,0.005964,-0.030552
3319,-0.001113,0.005964,0.005607
3320,-0.001113,-0.01211,-0.030552
3321,-0.001113,0.024037,-0.012473
3322,-0.001113,0.005964,0.005607
3323,-0.019652,0.024037,-0.012473
3324,-0.001113,0.024037,0.005607
3325,-0.001113,0.024037,0.005607
3326,-0.001113,0.024037,0.023687
3327,-0.019652,0.005964,0.023687
3328,-0.001113,0.005964,0.005607
3329,0.035965,0.024037,0.005607
3330,-0.001113,0.024037,0.005607
3331,-0.001113,-0.01211,0.005607
3332,-0.001113,0.005964,0.023687
3333,-0.001113,0.005964,0.023687
3334,-0.001113,0.005964,-0.012473
3335,0.017426,0.096331,-0.012473
3336,-0.001113,0.005964,-0.030552
3337,0.017426,0.005964,0.005607
3338,-0.001113,0.005964,-0.030552
3339,-0.001113,0.005964,-0.030552
3340,-0.019652,0.005964,-0.012473
3341,0.017426,-0.01211,-0.012473
3342,-0.001113,0.005964,-0.012473
3343,-0.019652,0.005964,0.023687
3344,-0.019652,-0.01211,0.023687
3345,-0.001113,0.005964,-0.030552
3346,-0.038191,0.005964,0.023687
3347,-0.001113,0.005964,0.005607
3348,-0.001113,0.024037,0.023687
3349,-0.001113,0.024037,-0.012473
3350,-0.019652,0.005964,0.023687
3351,-0.001113,-0.01211,-0.012473
3352,-0.001113,0.005964,-0.012473
3353,-0.001113,0.005964,-0.012473
3354,-0.001113,-0.01211,-0.012473
3355,-0.001113,0.005964,-0.012473
3356,0.017426,-0.01211,-0.012473
3357,0.017426,0.005964,-0.012473
3358,-0.019652,0.005964,0.005607
3359,-0.001113,0.005964,0.005607
3360,0.017426,0.005964,0.005607
3361,-0.001113,0.005964,0.005607
3362,-0.019652,0.005964,0.023687
3363,-0.001113,0.005964,0.005607
3364,-0.001113,0.005964,0.005607
3365,-0.019652,0.005964,0.005607
3366,-0.019652,0.005964,0.005607
3367,-0.019652,0.005964,0.023687
3368,0.017426,0.005964,0.023687
3369,-0.019652,0.005964,0.005607
3370,-0.001113,0.005964,-0.012473
3371,-0.001113,0.005964,-0.012473
3372,0.017426,0.005964,0.005607
3373,-0.019652,0.005964,0.005607
3374,-0.001113,0.005964,-0.012473
3375,-0.001113,0.005964,0.023687
3376,-0.001113,0.005964,-0.012473
3377,-0.001113,-0.01211,0.005607
3378,0.017426,-0.01211,0.005607
3379,0.017426,0.005964,0.041767
3380,-0.001113,0.024037,0.041767
3381,-0.001113,0.005964,0.023687
3382,-0.001113,-0.01211,0.023687
3383,-0.001113,0.005964,0.023687
3384,-0.001113,-0.01211,0.005607
3385,-0.001113,0.024037,0.005607
3386,-0.001113,0.005964,0.005607
3387,-0.019652,0.005964,0.005607
3388,0.017426,0.005964,0.005607
3389,-0.001113,0.005964,0.005607
3390,-0.019652,0.005964,0.005607
3391,-0.019652,-0.01211,-0.030552
3392,0.017426,-0.030183,-0.012473
3393,0.017426,0.005964,-0.012473
3394,0.017426,-0.01211,-0.030552
3395,-0.001113,0.005964,-0.012473
3396,-0.001113,0.005964,-0.012473
3397,-0.001113,0.005964,0.005607
3398,-0.001113,0.005964,-0.012473
3399,-0.001113,0.005964,0.023687
3400,-0.019652,0.024037,0.023687
3401,-0.019652,0.024037,0.023687
3402,-0.019652,0.024037,0.005607
3403,-0.019652,0.005964,0.005607
3404,-0.001113,0.024037,-0.012473
3405,-0.001113,0.024037,0.005607
3406,-0.001113,0.024037,-0.012473
3407,-0.019652,0.005964,0.005607
3408,-0.001113,0.005964,0.005607
3409,0.017426,0.024037,-0.012473
3410,0.017426,0.024037,0.023687
3411,-0.019652,0.005964,-0.012473
3412,-0.001113,0.005964,-0.012473
3413,-0.019652,0.005964,0.005607
3414,-0.001113,0.005964,0.005607
3415,0.017426,-0.01211,0.023687
3416,0.017426,0.024037,0.005607
3417,-0.001113,0.005964,0.023687
3418,-0.001113,0.005964,0.041767
3419,-0.001113,0.005964,0.005607
3420,-0.019652,-0.01211,0.023687
3421,-0.001113,0.005964,0.023687
3422,-0.019652,0.005964,0.023687
3423,-0.001113,-0.01211,-0.030552
3424,-0.001113,0.005964,-0.012473
3425,0.017426,0.005964,-0.012473
3426,0.017426,0.005964,0.005607
3427,-0.001113,0.005964,-0.030552
3428,-0.019652,-0.01211,0.005607
3429,-0.019652,0.005964,-0.030552
3430,-0.019652,0.005964,-0.030552
3431,-0.001113,0.024037,-0.012473
3432,0.017426,0.005964,0.005607
3433,-0.019652,0.005964,0.023687
3434,-0.001113,0.024037,0.023687
3435,-0.019652,0.005964,0.023687
3436,-0.001113,0.005964,0.023687
3437,-0.001113,-0.01211,-0.012473
3438,-0.001113,0.005964,0.005607
3439,-0.019652,-0.01211,0.023687
3440,-0.001113,0.005964,-0.012473
3441,-0.001113,0.005964,-0.030552
3442,-0.001113,-0.01211,0.005607
3443,-0.001113,0.005964,-0.012473
3444,-0.001113,0.005964,0.005607
3445,-0.001113,0.005964,0.005607
3446,-0.001113,0.024037,0.023687
3447,0.017426,0.024037,0.005607
3448,-0.001113,0.005964,0.005607
3449,-0.001113,0.005964,0.023687
3450,-0.019652,0.005964,0.041767
3451,-0.001113,0.005964,0.005607
3452,-0.001113,0.005964,0.005607
3453,0.017426,0.005964,0.023687
3454,-0.019652,0.024037,0.005607
3455,-0.019652,0.024037,0.005607
3456,-0.019652,0.024037,0.023687
3457,-0.001113,0.005964,0.023687
3458,-0.001113,0.005964,-0.012473
3459,-0.019652,-0.01211,-0.012473
3460,-0.001113,0.005964,0.005607
3461,-0.001113,0.005964,-0.012473
3462,-0.001113,-0.01211,-0.030552
3463,-0.001113,0.005964,-0.012473
3464,0.017426,0.024037,-0.030552
3465,-0.001113,0.04211,-0.048632
3466,-0.001113,0.024037,0.005607
3467,-0.001113,0.005964,0.005607
3468,-0.019652,0.005964,0.023687
3469,-0.001113,-0.01211,0.005607
3470,-0.001113,0.024037,0.023687
3471,-0.019652,0.005964,0.041767
3472,-0.001113,0.005964,0.005607
3473,-0.019652,-0.01211,0.023687
3474,-0.001113,0.005964,0.041767
3475,0.017426,0.024037,0.005607
3476,-0.001113,-0.01211,-0.012473
3477,-0.001113,-0.01211,-0.030552
3478,-0.001113,-0.01211,-0.012473
3479,-0.001113,0.005964,-0.012473
3480,-0.001113,0.005964,-0.012473
3481,-0.019652,0.005964,-0.012473
3482,0.017426,0.005964,-0.030552
3483,-0.001113,-0.01211,-0.030552
3484,-0.001113,0.005964,0.005607
3485,-0.019652,0.005964,0.023687
3486,-0.001113,0.005964,-0.012473
3487,-0.001113,0.005964,0.005607
3488,-0.001113,0.005964,0.023687
3489,-0.001113,-0.01211,0.041767
3490,-0.001113,-0.01211,0.005607
3491,-0.001113,0.024037,0.005607
3492,-0.001113,0.005964,0.005607
3493,0.017426,0.024037,0.005607
3494,0.017426,0.005964,-0.012473
3495,-0.001113,0.005964,0.005607
3496,-0.019652,0.005964,0.005607
3497,-0.001113,0.024037,-0.012473
3498,-0.019652,0.005964,-0.012473
3499,0.017426,0.005964,0.005607
3500,-0.001113,0.005964,-0.030552
3501,-0.001113,-0.01211,-0.012473
3502,-0.001113,-0.01211,-0.030552
3503,0.017426,-0.01211,0.005607
3504,-0.019652,0.005964,-0.012473
3505,-0.001113,0.005964,0.005607
3506,-0.001113,0.005964,0.041767
3507,-0.001113,0.005964,0.041767
3508,-0.001113,0.005964,0.005607
3509,-0.001113,-0.01211,0.023687
3510,-0.001113,0.005964,0.005607
3511,-0.019652,0.024037,0.005607
3512,0.017426,0.005964,-0.012473
3513,-0.001113,0.005964,0.005607
3514,0.017426,0.005964,-0.012473
3515,-0.001113,-0.01211,-0.030552
3516,-0.001113,-0.030183,-0.012473
3517,-0.001113,0.005964,-0.012473
3518,-0.001113,0.005964,-0.030552
3519,-0.019652,0.005964,0.005607
3520,-0.019652,-0.01211,0.005607
3521,-0.001113,0.005964,0.005607
3522,-0.001113,0.024037,0.005607
3523,-0.001113,0.005964,0.005607
3524,-0.001113,-0.01211,0.023687
3525,-0.001113,0.005964,0.005607
3526,-0.001113,0.005964,0.023687
3527,-0.019652,0.005964,0.023687
3528,-0.019652,0.005964,0.005607
3529,0.017426,0.005964,-0.012473
3530,-0.019652,-0.01211,0.005607
3531,-0.019652,0.005964,-0.012473
3532,-0.001113,0.005964,-0.012473
3533,-0.001113,0.005964,-0.012473
3534,-0.001113,0.005964,-0.012473
3535,-0.001113,0.005964,-0.012473
3536,-0.019652,0.005964,-0.030552
3537,-0.019652,0.024037,-0.012473
3538,-0.001113,0.005964,0.023687
3539,-0.019652,0.005964,-0.012473
3540,-0.001113,0.005964,0.023687
3541,-0.001113,-0.01211,0.041767
3542,-0.001113,0.024037,0.023687
3543,-0.001113,0.005964,0.005607
3544,-0.001113,0.005964,0.041767
3545,-0.001113,0.024037,0.041767
3546,-0.001113,0.005964,0.005607
3547,-0.001113,0.005964,0.005607
3548,-0.019652,0.005964,0.023687
3549,-0.001113,0.005964,0.023687
3550,-0.001113,0.005964,0.005607
3551,-0.001113,0.005964,-0.030552
3552,-0.001113,0.005964,0.005607
3553,-0.001113,0.005964,-0.030552
3554,-0.001113,0.005964,-0.048632
3555,-0.001113,0.005964,-0.012473
3556,-0.001113,0.005964,0.005607
3557,-0.001113,0.005964,-0.030552
3558,-0.001113,0.024037,-0.012473
3559,-0.001113,0.005964,0.005607
3560,0.017426,0.005964,0.005607
3561,-0.001113,0.005964,0.023687
3562,0.017426,0.005964,0.023687
3563,-0.019652,-0.030183,0.041767
3564,-0.019652,0.005964,0.005607
3565,-0.001113,0.005964,-0.012473
3566,-0.001113,0.005964,0.005607
3567,-0.001113,0.005964,0.005607
3568,-0.019652,0.005964,-0.012473
3569,0.017426,0.024037,-0.030552
3570,-0.001113,0.005964,-0.012473
3571,-0.001113,0.005964,-0.030552
3572,-0.001113,0.005964,-0.012473
3573,0.017426,0.005964,0.005607
3574,-0.019652,0.005964,-0.012473
3575,0.017426,0.005964,0.005607
3576,-0.001113,0.005964,0.023687
3577,-0.001113,0.005964,0.023687
3578,-0.001113,-0.01211,0.041767
3579,-0.001113,0.005964,0.005607
3580,-0.019652,0.024037,0.005607
3581,-0.001113,-0.01211,0.005607
3582,-0.019652,-0.01211,-0.012473
3583,-0.001113,-0.01211,0.023687
3584,-0.001113,0.024037,-0.012473
3585,-0.019652,-0.01211,-0.030552
3586,-0.019652,0.005964,-0.030552
3587,-0.001113,0.005964,-0.030552
3588,-0.001113,0.005964,-0.030552
3589,-0.001113,0.005964,-0.012473
3590,-0.001113,0.005964,0.005607
3591,-0.001113,-0.01211,0.005607
3592,-0.001113,0.005964,-0.012473
3593,-0.001113,0.005964,0.005607
3594,0.017426,0.005964,0.023687
3595,-0.001113,0.024037,0.041767
3596,0.017426,0.024037,0.005607
3597,-0.001113,0.005964,0.023687
3598,-0.001113,0.005964,0.041767
3599,-0.001113,0.024037,0.023687
3600,-0.019652,0.005964,0.005607
3601,-0.001113,0.024037,0.041767
3602,-0.001113,0.005964,0.023687
3603,-0.019652,-0.01211,-0.012473
3604,-0.019652,-0.01211,-0.012473
3605,-0.038191,0.005964,0.005607
3606,-0.001113,0.024037,0.005607
3607,-0.019652,0.024037,-0.030552
3608,-0.001113,0.005964,0.005607
3609,0.017426,-0.01211,0.005607
3610,-0.001113,0.005964,-0.048632
3611,-0.001113,0.005964,0.005607
3612,-0.001113,0.005964,0.005607
3613,-0.001113,0.005964,0.023687
3614,-0.001113,0.024037,-0.012473
3615,-0.001113,0.005964,0.005607
3616,-0.019652,0.005964,0.023687
3617,-0.001113,0.005964,0.023687
3618,-0.001113,0.005964,0.023687
3619,0.017426,0.005964,0.023687
3620,-0.019652,0.024037,0.005607
3621,-0.001113,-0.01211,-0.012473
3622,-0.001113,0.005964,-0.030552
3623,-0.001113,0.024037,-0.012473
3624,-0.001113,0.024037,-0.012473
3625,-0.001113,0.005964,-0.012473
3626,-0.001113,0.005964,0.005607
3627,-0.001113,-0.01211,-0.012473
3628,-0.001113,0.005964,-0.030552
3629,-0.001113,0.024037,0.005607
3630,-0.019652,0.005964,0.023687
3631,-0.038191,0.005964,0.023687
3632,-0.001113,0.005964,0.005607
3633,-0.001113,0.005964,0.005607
3634,0.017426,-0.01211,0.005607
3635,-0.001113,0.005964,-0.012473
3636,-0.001113,0.005964,0.005607
3637,-0.001113,-0.01211,-0.012473
3638,0.017426,0.005964,-0.012473
3639,-0.019652,0.005964,-0.012473
3640,-0.001113,0.005964,0.005607
