# Requested Sampling Rate (Hz):,1000
# Actual Sampling Rate (Hz):,999.686
# Requested Duration (s):,5.0
# Actual Duration (s):,5.045
# REST Calibration:,832.0600347222207,831.6700347222207,832.6898611111126
# MAX Calibration:,886.0000,887.0000,888.0000
# Normalization: MVC-based  (x_norm = (x - REST) / (MAX - REST))
sample_idx,EMG1,EMG2,EMG3
0,-0.001113,-0.01211,-0.012473
1,-0.001113,0.005964,-0.012473
2,-0.001113,0.005964,0.023687
3,-0.019652,-0.01211,0.023687
4,-0.001113,-0.01211,-0.012473
5,-0.019652,0.005964,0.005607
6,-0.001113,-0.01211,0.023687
7,-0.001113,0.005964,0.023687
8,-0.019652,-0.01211,0.005607
9,-0.038191,0.005964,0.005607
10,-0.001113,-0.01211,0.023687
11,-0.001113,0.005964,-0.012473
12,-0.001113,0.005964,-0.030552
13,-0.019652,-0.01211,-0.012473
14,-0.001113,0.005964,0.005607
15,-0.001113,0.005964,-0.012473
16,-0.001113,0.005964,-0.012473
17,0.017426,-0.030183,0.005607
18,-0.001113,-0.01211,-0.012473
19,-0.019652,0.005964,-0.012473
20,-0.019652,0.005964,0.041767
21,0.017426,0.005964,0.023687
22,-0.019652,0.005964,0.023687
23,-0.001113,0.005964,0.005607
24,-0.001113,0.005964,0.023687
25,-0.019652,0.005964,0.023687
26,-0.001113,0.005964,0.005607
27,-0.001113,0.005964,0.041767
28,-0.001113,-0.01211,0.005607
29,-0.001113,0.005964,-0.012473
30,-0.001113,-0.01211,-0.012473
31,-0.001113,0.005964,0.005607
32,-0.001113,0.005964,-0.012473
33,-0.001113,0.005964,-0.030552
34,0.017426,0.024037,-0.012473
35,-0.001113,0.024037,0.023687
36,-0.001113,-0.01211,-0.030552
37,-0.019652,0.005964,0.005607
38,-0.001113,0.005964,0.023687
39,-0.001113,0.005964,0.023687
40,-0.001113,0.005964,0.005607
41,-0.019652,-0.01211,0.023687
42,-0.001113,0.005964,0.041767
43,-0.001113,0.005964,-0.012473
44,-0.001113,0.005964,-0.030552
45,-0.038191,0.005964,0.005607
46,-0.001113,0.005964,-0.012473
47,-0.019652,0.005964,-0.012473
48,-0.001113,0.005964,-0.012473
49,-0.001113,-0.01211,0.077927
50,-0.001113,0.005964,-0.012473
51,-0.001113,-0.01211,-0.012473
52,0.035965,-0.01211,0.005607
53,-0.001113,0.005964,-0.012473
54,-0.019652,0.005964,-0.012473
55,-0.038191,0.005964,0.005607
56,-0.001113,0.024037,0.023687
57,-0.001113,0.005964,0.041767
58,-0.001113,0.005964,0.005607
59,-0.001113,0.024037,0.023687
60,-0.019652,0.005964,0.005607
61,-0.001113,-0.01211,-0.012473
62,-0.019652,-0.01211,-0.030552
63,-0.001113,0.005964,0.005607
64,-0.019652,0.005964,-0.012473
65,0.017426,0.005964,-0.048632
66,-0.019652,0.005964,-0.012473
67,0.017426,-0.01211,0.005607
68,-0.001113,-0.01211,-0.012473
69,0.017426,0.005964,0.005607
70,-0.019652,0.005964,0.005607
71,-0.001113,0.005964,0.023687
72,-0.019652,0.024037,0.005607
73,0.017426,-0.01211,0.023687
74,-0.001113,0.024037,0.023687
75,-0.019652,0.005964,-0.012473
76,-0.001113,-0.01211,0.005607
77,0.017426,0.005964,0.005607
78,-0.001113,0.005964,0.005607
79,-0.038191,0.005964,0.005607
80,-0.019652,0.024037,0.023687
81,-0.001113,0.024037,0.005607
82,-0.001113,0.005964,0.005607
83,-0.001113,-0.01211,-0.012473
84,0.017426,0.005964,0.023687
85,-0.001113,-0.01211,-0.012473
86,-0.001113,0.005964,-0.012473
87,-0.019652,0.005964,0.005607
88,0.017426,0.024037,0.023687
89,-0.019652,0.04211,-0.012473
90,-0.001113,0.024037,0.005607
91,-0.001113,0.024037,0.023687
92,-0.001113,0.005964,0.005607
93,0.017426,-0.01211,-0.012473
94,0.017426,0.005964,0.023687
95,-0.001113,0.005964,0.005607
96,0.054504,0.005964,-0.012473
97,-0.019652,0.005964,-0.030552
98,-0.001113,0.005964,0.005607
99,-0.001113,0.024037,-0.012473
100,-0.001113,0.005964,-0.012473
101,-0.001113,-0.01211,-0.012473
102,-0.019652,0.005964,-0.012473
103,-0.001113,0.005964,-0.012473
104,-0.038191,-0.01211,0.005607
105,-0.001113,0.005964,0.023687
106,-0.001113,0.024037,0.005607
107,-0.019652,-0.01211,0.005607
108,-0.001113,-0.01211,0.005607
109,0.017426,-0.01211,0.023687
110,-0.001113,0.005964,-0.012473
111,0.017426,-0.01211,0.023687
112,-0.019652,0.005964,0.005607
113,-0.001113,0.005964,-0.012473
114,-0.001113,0.005964,-0.012473
115,-0.001113,0.024037,-0.030552
116,-0.001113,-0.01211,-0.012473
117,-0.001113,-0.01211,-0.030552
118,-0.019652,-0.01211,0.005607
119,-0.019652,0.024037,0.023687
120,-0.001113,0.005964,-0.030552
121,0.017426,0.024037,-0.012473
122,-0.001113,0.005964,0.023687
123,-0.019652,0.005964,0.023687
124,-0.019652,0.024037,0.005607
125,-0.001113,0.024037,0.005607
126,0.017426,0.024037,0.023687
127,-0.019652,0.024037,0.005607
128,-0.001113,-0.01211,-0.012473
129,-0.001113,0.005964,0.005607
130,-0.001113,0.005964,-0.030552
131,-0.019652,0.005964,-0.012473
132,0.017426,0.005964,-0.030552
133,-0.019652,0.005964,0.005607
134,-0.019652,-0.01211,-0.012473
135,-0.001113,0.005964,-0.012473
136,-0.001113,0.024037,-0.030552
137,-0.001113,-0.01211,0.023687
138,-0.001113,-0.01211,0.005607
139,-0.001113,0.005964,0.005607
140,-0.001113,0.005964,0.023687
141,-0.001113,0.024037,0.005607
142,0.017426,0.024037,0.005607
143,-0.001113,0.005964,0.023687
144,-0.001113,-0.01211,-0.012473
145,-0.001113,-0.01211,-0.030552
146,-0.019652,0.005964,0.023687
147,-0.019652,-0.01211,0.005607
148,-0.001113,0.005964,-0.012473
149,-0.001113,0.005964,-0.012473
150,-0.038191,0.005964,-0.012473
151,-0.019652,0.024037,-0.012473
152,-0.001113,0.005964,0.005607
153,-0.001113,0.005964,0.005607
154,-0.001113,-0.01211,0.023687
155,-0.001113,0.005964,0.005607
156,-0.019652,0.005964,0.023687
157,0.017426,0.024037,0.023687
158,-0.019652,0.005964,0.023687
159,0.017426,0.005964,-0.012473
160,-0.001113,0.005964,0.041767
161,-0.001113,0.005964,0.005607
162,-0.019652,0.005964,-0.012473
163,-0.001113,-0.01211,-0.030552
164,-0.001113,-0.01211,0.005607
165,-0.001113,0.024037,-0.030552
166,-0.019652,0.005964,-0.030552
167,-0.001113,0.005964,-0.012473
168,-0.019652,0.005964,-0.012473
169,-0.001113,0.005964,-0.012473
170,-0.001113,0.005964,0.005607
171,-0.001113,0.005964,0.005607
172,-0.001113,-0.01211,0.041767
173,0.017426,0.005964,0.023687
174,-0.001113,0.005964,0.023687
175,-0.001113,0.005964,0.023687
176,-0.001113,0.005964,0.005607
177,-0.001113,0.005964,0.005607
178,-0.001113,0.005964,-0.012473
179,-0.019652,0.005964,-0.012473
180,-0.001113,0.005964,-0.012473
181,-0.019652,0.005964,-0.030552
182,-0.001113,0.005964,0.005607
183,0.017426,0.005964,-0.030552
184,-0.001113,0.005964,-0.012473
185,-0.001113,0.005964,0.005607
186,-0.001113,0.005964,-0.030552
187,0.017426,0.005964,0.005607
188,-0.001113,0.005964,0.005607
189,-0.019652,0.005964,0.041767
190,-0.001113,0.005964,0.005607
191,-0.001113,0.005964,0.005607
192,-0.019652,0.005964,0.023687
193,-0.001113,-0.01211,0.005607
194,-0.001113,0.005964,-0.012473
195,-0.001113,0.024037,0.041767
196,0.017426,-0.01211,0.005607
197,-0.019652,0.005964,-0.012473
198,-0.001113,0.005964,-0.012473
199,-0.001113,0.005964,0.005607
200,-0.019652,-0.01211,0.005607
201,0.017426,0.005964,-0.030552
202,-0.019652,0.005964,0.005607
203,-0.001113,0.005964,0.005607
204,-0.001113,0.005964,-0.030552
205,0.017426,0.005964,0.005607
206,-0.001113,0.005964,0.041767
207,-0.001113,-0.01211,0.023687
208,-0.001113,-0.01211,0.005607
209,0.017426,-0.01211,0.005607
210,-0.038191,0.005964,0.041767
211,-0.001113,0.005964,-0.012473
212,-0.019652,-0.01211,0.023687
213,-0.001113,0.005964,0.005607
214,-0.001113,-0.01211,0.005607
215,-0.001113,0.024037,-0.030552
216,0.017426,-0.030183,-0.030552
217,-0.001113,0.005964,0.005607
218,-0.001113,-0.01211,0.005607
219,-0.019652,-0.01211,-0.012473
220,0.017426,0.024037,0.005607
221,-0.019652,0.005964,-0.030552
222,-0.001113,-0.01211,0.005607
223,-0.001113,0.005964,0.023687
224,-0.001113,0.005964,0.005607
225,-0.019652,0.005964,0.023687
226,-0.001113,0.005964,0.005607
227,0.017426,0.024037,0.023687
228,-0.001113,0.024037,-0.012473
229,-0.019652,0.005964,-0.030552
230,-0.001113,-0.01211,0.041767
231,-0.001113,0.005964,0.005607
232,-0.001113,-0.01211,0.005607
233,-0.019652,-0.01211,-0.030552
234,-0.001113,0.005964,-0.012473
235,-0.019652,-0.01211,-0.012473
236,-0.001113,-0.01211,-0.012473
237,-0.001113,0.005964,0.023687
238,-0.001113,0.005964,-0.012473
239,0.017426,-0.01211,-0.012473
240,-0.001113,0.024037,0.005607
241,-0.001113,0.005964,0.023687
242,-0.019652,0.024037,0.005607
243,-0.001113,0.005964,0.005607
244,-0.001113,0.005964,0.005607
245,-0.001113,-0.030183,0.005607
246,-0.001113,0.005964,0.005607
247,-0.001113,-0.01211,-0.012473
248,-0.019652,0.024037,0.023687
249,-0.001113,-0.030183,0.005607
250,-0.001113,0.024037,-0.012473
251,-0.001113,0.005964,-0.030552
252,-0.001113,0.005964,-0.012473
253,-0.001113,0.024037,-0.012473
254,-0.019652,0.005964,-0.012473
255,-0.019652,0.005964,0.023687
256,0.017426,0.005964,-0.012473
257,-0.001113,0.005964,0.005607
258,-0.019652,0.005964,0.005607
259,-0.001113,-0.01211,0.023687
260,-0.001113,0.005964,0.005607
261,-0.001113,-0.01211,0.023687
262,-0.019652,-0.01211,0.023687
263,-0.001113,0.005964,0.005607
264,-0.001113,0.005964,0.005607
265,0.017426,0.005964,0.005607
266,-0.001113,0.005964,-0.012473
267,-0.019652,-0.01211,-0.012473
268,0.035965,0.005964,-0.012473
269,-0.001113,0.024037,0.005607
270,-0.001113,0.005964,-0.030552
271,-0.001113,0.024037,-0.012473
272,0.017426,0.005964,0.023687
273,-0.001113,-0.01211,0.023687
274,-0.001113,0.005964,-0.012473
275,-0.001113,0.005964,0.005607
276,-0.019652,0.005964,0.005607
277,-0.019652,0.005964,0.005607
278,0.017426,0.005964,-0.012473
279,-0.001113,0.005964,0.023687
280,-0.001113,0.005964,0.023687
281,-0.019652,0.005964,-0.012473
282,-0.019652,0.005964,-0.030552
283,-0.038191,-0.01211,0.005607
284,-0.001113,-0.01211,-0.012473
285,-0.001113,0.005964,0.005607
286,-0.001113,0.005964,0.005607
287,-0.001113,0.005964,-0.012473
288,-0.001113,0.005964,-0.012473
289,-0.001113,0.005964,0.023687
290,-0.001113,0.096331,0.023687
291,0.017426,-0.01211,0.005607
292,-0.038191,0.005964,0.005607
293,-0.001113,-0.01211,0.023687
294,-0.001113,0.005964,0.005607
295,-0.001113,0.024037,0.005607
296,-0.019652,0.005964,0.023687
297,-0.001113,0.024037,0.005607
298,-0.001113,0.024037,-0.030552
299,-0.001113,0.024037,-0.030552
300,-0.001113,0.005964,-0.012473
301,-0.001113,0.005964,0.005607
302,-0.019652,0.005964,-0.012473
303,0.017426,0.005964,0.005607
304,-0.001113,0.005964,0.023687
305,-0.001113,0.005964,-0.012473
306,-0.001113,0.024037,0.023687
307,-0.001113,0.005964,0.023687
308,-0.001113,-0.01211,0.005607
309,0.017426,0.005964,0.005607
310,-0.019652,0.024037,0.023687
311,-0.05673,-0.01211,0.005607
312,-0.001113,0.005964,0.005607
313,-0.001113,0.024037,-0.012473
314,-0.019652,0.005964,0.005607
315,-0.001113,0.005964,0.005607
316,-0.001113,-0.01211,-0.030552
317,-0.001113,-0.01211,0.005607
318,0.017426,0.005964,-0.012473
319,-0.001113,0.005964,-0.012473
320,-0.019652,0.005964,-0.012473
321,0.017426,0.005964,0.023687
322,-0.001113,0.005964,0.005607
323,-0.001113,0.005964,0.023687
324,-0.001113,0.005964,0.005607
325,0.017426,0.005964,0.005607
326,0.017426,0.005964,-0.012473
327,-0.001113,0.005964,0.023687
328,-0.001113,0.005964,-0.012473
329,-0.001113,0.005964,-0.012473
330,-0.001113,0.005964,-0.012473
331,0.017426,0.005964,0.023687
332,-0.001113,0.005964,0.005607
333,-0.019652,0.024037,-0.030552
334,-0.001113,0.024037,0.005607
335,-0.001113,-0.01211,0.005607
336,-0.019652,0.005964,-0.012473
337,-0.001113,0.005964,0.005607
338,-0.001113,0.005964,0.041767
339,0.017426,0.005964,0.005607
340,-0.019652,-0.01211,0.005607
341,-0.001113,0.024037,0.005607
342,-0.001113,0.005964,-0.012473
343,0.017426,0.005964,-0.012473
344,-0.019652,0.005964,0.023687
345,-0.001113,-0.030183,0.005607
346,-0.001113,0.005964,-0.012473
347,-0.019652,0.005964,-0.030552
348,-0.001113,0.005964,0.005607
349,-0.019652,-0.01211,-0.012473
350,-0.001113,0.005964,-0.012473
351,-0.001113,0.005964,0.005607
352,-0.001113,0.024037,0.023687
353,-0.001113,0.005964,0.023687
354,-0.019652,-0.01211,0.023687
355,-0.001113,0.005964,0.005607
356,-0.019652,0.005964,0.005607
357,-0.001113,0.005964,-0.012473
358,-0.019652,0.005964,0.023687
359,-0.001113,0.005964,-0.012473
360,-0.001113,0.005964,-0.012473
361,-0.001113,-0.01211,0.005607
362,-0.019652,-0.01211,0.005607
363,-0.001113,-0.01211,-0.012473
364,-0.001113,0.005964,-0.012473
365,-0.001113,0.005964,0.005607
366,0.017426,0.005964,-0.030552
367,-0.001113,-0.01211,-0.012473
368,-0.001113,0.005964,-0.012473
369,-0.001113,0.005964,0.023687
370,0.017426,0.005964,0.023687
371,-0.001113,-0.01211,0.005607
372,0.017426,-0.01211,0.023687
373,-0.038191,0.005964,0.005607
374,-0.019652,0.005964,0.005607
375,-0.001113,0.005964,0.041767
376,-0.019652,0.005964,0.005607
377,-0.001113,0.005964,-0.012473
378,-0.001113,-0.01211,0.005607
379,0.017426,-0.01211,0.005607
380,-0.001113,0.005964,-0.030552
381,-0.001113,0.024037,0.005607
382,0.017426,0.005964,0.023687
383,-0.001113,-0.01211,0.023687
384,-0.001113,0.024037,0.005607
385,-0.019652,0.005964,0.023687
386,0.017426,-0.01211,0.041767
387,-0.001113,0.005964,0.005607
388,-0.001113,0.024037,0.023687
389,-0.001113,-0.01211,0.023687
390,-0.019652,0.005964,0.005607
391,-0.001113,0.005964,-0.012473
392,-0.019652,0.005964,-0.012473
393,-0.019652,-0.030183,-0.012473
394,-0.001113,0.005964,-0.012473
395,-0.001113,0.005964,-0.012473
396,-0.001113,0.005964,0.005607
397,0.017426,-0.01211,0.005607
398,-0.019652,0.005964,-0.012473
399,-0.001113,0.005964,-0.012473
400,-0.001113,0.005964,0.005607
401,-0.001113,0.005964,-0.012473
402,-0.001113,0.005964,0.005607
403,-0.001113,0.024037,0.023687
404,-0.019652,0.005964,0.005607
405,-0.001113,-0.01211,-0.012473
406,-0.019652,-0.01211,0.005607
407,-0.019652,-0.01211,0.005607
408,-0.019652,0.024037,-0.012473
409,-0.019652,-0.01211,-0.030552
410,-0.038191,-0.01211,-0.012473
411,-0.019652,0.005964,-0.012473
412,-0.019652,0.005964,-0.012473
413,-0.001113,0.005964,0.005607
414,-0.019652,-0.01211,0.023687
415,-0.05673,0.005964,-0.012473
416,-0.001113,0.005964,0.023687
417,0.017426,-0.01211,0.023687
418,0.073044,0.005964,0.005607
419,0.054504,0.005964,0.041767
420,0.035965,-0.01211,0.005607
421,0.017426,0.005964,0.005607
422,0.017426,0.024037,0.005607
423,-0.001113,0.005964,0.005607
424,0.017426,0.024037,-0.012473
425,-0.019652,0.005964,-0.030552
426,-0.001113,-0.01211,-0.030552
427,-0.001113,-0.01211,-0.012473
428,-0.001113,0.005964,-0.012473
429,-0.038191,0.005964,-0.030552
430,-0.019652,0.005964,0.005607
431,-0.001113,0.005964,0.005607
432,-0.001113,0.005964,-0.012473
433,-0.001113,0.005964,0.005607
434,-0.001113,0.005964,0.005607
435,-0.001113,0.005964,0.005607
436,-0.001113,-0.01211,-0.012473
437,0.017426,0.005964,0.023687
438,-0.001113,0.005964,0.005607
439,0.017426,-0.01211,0.005607
440,-0.019652,0.005964,-0.030552
441,-0.019652,0.005964,-0.012473
442,-0.038191,0.005964,-0.012473
443,-0.001113,0.005964,0.005607
444,-0.001113,0.024037,0.023687
445,-0.019652,0.005964,0.005607
446,-0.019652,0.005964,0.005607
447,-0.001113,0.024037,0.005607
448,-0.001113,0.005964,-0.012473
449,-0.001113,0.005964,-0.012473
450,-0.001113,0.005964,-0.012473
451,0.035965,0.005964,0.005607
452,0.017426,0.005964,0.005607
453,-0.001113,-0.01211,-0.012473
454,-0.019652,0.005964,-0.012473
455,-0.05673,0.005964,-0.012473
456,-0.038191,0.005964,0.005607
457,-0.05673,0.005964,0.023687
458,-0.05673,-0.01211,0.005607
459,-0.07527,-0.01211,-0.030552
460,0.017426,-0.030183,-0.066712
461,0.091583,-0.01211,-0.102872
462,0.091583,0.005964,-0.066712
463,0.054504,-0.01211,-0.048632
464,0.054504,-0.01211,0.023687
465,0.017426,0.005964,0.096007
466,-0.001113,0.005964,0.077927
467,-0.001113,0.024037,0.041767
468,-0.001113,0.024037,0.132166
469,-0.019652,0.04211,0.150246
470,0.035965,0.024037,0.132166
471,0.054504,0.024037,0.132166
472,0.017426,0.04211,0.150246
473,-0.001113,0.04211,0.041767
474,-0.001113,0.024037,-0.048632
475,-0.001113,-0.01211,-0.066712
476,-0.001113,-0.01211,-0.066712
477,-0.001113,0.005964,-0.066712
478,0.017426,-0.01211,-0.012473
479,0.017426,-0.01211,0.005607
480,-0.001113,0.024037,0.023687
481,-0.019652,-0.01211,0.023687
482,-0.019652,-0.01211,0.023687
483,-0.019652,0.005964,0.023687
484,-0.038191,0.005964,0.005607
485,-0.038191,0.005964,0.023687
486,-0.019652,0.024037,0.005607
487,0.017426,0.005964,0.005607
488,-0.001113,-0.01211,0.005607
489,-0.019652,0.024037,0.023687
490,-0.019652,0.024037,0.005607
491,-0.001113,0.005964,-0.012473
492,-0.019652,-0.030183,-0.030552
493,-0.001113,0.005964,0.005607
494,-0.001113,0.024037,-0.012473
495,0.035965,0.024037,-0.012473
496,0.035965,0.024037,0.023687
497,0.035965,0.024037,0.023687
498,-0.038191,-0.01211,-0.012473
499,-0.019652,-0.01211,0.005607
500,-0.019652,0.005964,0.041767
501,-0.093809,0.005964,0.023687
502,0.035965,0.005964,-0.012473
503,-0.038191,0.005964,0.023687
504,-0.05673,-0.030183,-0.030552
505,-0.05673,-0.01211,-0.066712
506,0.035965,-0.01211,-0.066712
507,0.054504,-0.01211,-0.084792
508,0.054504,0.005964,-0.066712
509,0.017426,0.005964,-0.048632
510,0.017426,0.005964,0.023687
511,-0.001113,0.005964,-0.030552
512,-0.001113,-0.01211,-0.012473
513,-0.001113,-0.01211,0.041767
514,0.017426,0.024037,0.059847
515,-0.019652,0.024037,0.059847
516,0.017426,0.024037,0.077927
517,-0.001113,0.024037,0.077927
518,-0.001113,0.005964,0.023687
519,-0.019652,0.005964,-0.012473
520,0.017426,-0.01211,0.005607
521,-0.019652,-0.01211,-0.012473
522,-0.019652,-0.01211,-0.030552
523,-0.019652,-0.01211,-0.012473
524,-0.019652,0.024037,0.005607
525,-0.001113,0.005964,0.005607
526,0.054504,0.024037,-0.030552
527,0.184278,-0.01211,-0.012473
528,0.221357,0.024037,-0.012473
529,0.202817,0.005964,-0.030552
530,0.1472,0.005964,-0.012473
531,0.110122,0.005964,0.005607
532,0.035965,0.024037,0.005607
533,-0.07527,0.005964,-0.012473
534,-0.242122,-0.01211,-0.030552
535,-0.316278,-0.048257,-0.102872
536,-0.167965,-0.048257,-0.120952
537,-0.05673,-0.048257,-0.102872
538,-0.05673,-0.01211,-0.084792
539,-0.019652,-0.06633,-0.102872
540,-0.05673,-0.048257,-0.120952
541,-0.038191,-0.01211,-0.030552
542,-0.001113,0.078257,0.096007
543,0.017426,0.096331,0.186406
544,0.017426,0.060184,0.168326
545,-0.019652,0.024037,0.096007
546,-0.038191,0.024037,0.077927
547,-0.019652,0.005964,0.005607
548,-0.019652,0.005964,0.005607
549,-0.001113,0.060184,0.114086
550,-0.019652,0.060184,0.186406
551,-0.001113,0.04211,0.150246
552,-0.001113,0.024037,0.059847
553,-0.001113,0.024037,0.005607
554,-0.019652,0.005964,-0.066712
555,-0.001113,0.024037,-0.048632
556,-0.001113,0.005964,-0.048632
557,-0.001113,0.04211,-0.030552
558,0.017426,0.04211,-0.012473
559,-0.001113,0.005964,-0.012473
560,-0.001113,0.005964,-0.048632
561,-0.001113,0.024037,-0.030552
562,-0.019652,0.024037,0.041767
563,-0.019652,0.005964,0.059847
564,-0.001113,-0.01211,0.005607
565,-0.038191,-0.030183,-0.030552
566,-0.019652,-0.01211,-0.048632
567,0.017426,-0.01211,-0.048632
568,-0.019652,0.024037,0.005607
569,-0.001113,0.024037,0.096007
570,0.017426,0.04211,0.096007
571,-0.019652,0.005964,0.041767
572,-0.019652,0.024037,0.023687
573,-0.019652,0.005964,0.005607
574,-0.038191,0.005964,0.023687
575,-0.05673,-0.01211,0.005607
576,0.017426,0.024037,0.023687
577,0.073044,0.024037,-0.012473
578,0.054504,0.024037,0.023687
579,0.035965,0.005964,0.059847
580,-0.001113,0.024037,0.077927
581,-0.019652,0.024037,0.041767
582,-0.001113,0.005964,0.041767
583,0.017426,0.005964,0.023687
584,-0.019652,0.005964,-0.048632
585,0.017426,0.005964,-0.030552
586,0.073044,0.024037,-0.012473
587,0.035965,0.005964,-0.012473
588,-0.019652,-0.030183,-0.084792
589,-0.05673,-0.030183,-0.157112
590,-0.05673,-0.030183,-0.102872
591,-0.093809,0.024037,-0.048632
592,0.054504,0.005964,-0.012473
593,0.035965,0.005964,0.041767
594,0.035965,0.024037,0.132166
595,0.017426,0.04211,0.186406
596,-0.001113,0.060184,0.132166
597,0.017426,0.04211,0.041767
598,0.017426,0.005964,-0.012473
599,-0.001113,0.005964,-0.048632
600,-0.019652,-0.030183,-0.048632
601,-0.019652,-0.030183,-0.048632
602,-0.001113,-0.030183,-0.066712
603,-0.001113,0.005964,-0.030552
604,0.017426,0.024037,0.077927
605,-0.019652,0.024037,0.041767
606,-0.019652,-0.01211,-0.012473
607,-0.001113,-0.01211,-0.030552
608,-0.001113,-0.030183,-0.084792
609,-0.019652,-0.01211,0.005607
610,0.035965,0.04211,0.114086
611,0.035965,0.024037,0.168326
612,0.017426,0.024037,0.132166
613,-0.001113,0.005964,0.059847
614,-0.019652,-0.01211,-0.030552
615,-0.019652,-0.030183,-0.265591
616,-0.001113,-0.030183,-0.265591
617,0.017426,-0.048257,-0.229431
618,-0.038191,-0.06633,-0.175191
619,-0.019652,-0.06633,-0.139032
620,-0.05673,-0.048257,-0.030552
621,-0.038191,-0.01211,0.186406
622,0.017426,0.060184,0.276805
623,0.054504,0.132477,0.186406
624,0.017426,0.096331,0.077927
625,0.017426,0.060184,0.132166
626,-0.001113,0.04211,0.077927
627,0.035965,0.04211,0.077927
628,-0.001113,0.024037,0.077927
629,-0.019652,0.005964,0.077927
630,-0.019652,-0.030183,0.077927
631,-0.001113,0.005964,0.077927
632,-0.001113,0.024037,-0.030552
633,-0.001113,0.005964,-0.066712
634,-0.001113,0.005964,0.005607
635,-0.001113,0.005964,0.077927
636,0.035965,0.04211,0.114086
637,-0.001113,0.024037,0.041767
638,-0.001113,0.005964,-0.084792
639,-0.019652,0.005964,-0.157112
640,-0.019652,-0.01211,-0.139032
641,-0.019652,0.005964,-0.030552
642,-0.038191,0.024037,0.005607
643,-0.019652,0.005964,0.005607
644,-0.001113,0.005964,0.059847
645,0.017426,0.005964,0.041767
646,-0.001113,-0.01211,0.005607
647,0.017426,0.005964,0.005607
648,0.054504,0.04211,0.023687
649,0.017426,-0.01211,0.041767
650,-0.001113,-0.01211,0.005607
651,-0.001113,0.005964,0.005607
652,-0.019652,-0.030183,0.023687
653,-0.019652,0.005964,0.041767
654,-0.001113,0.005964,0.005607
655,0.017426,0.005964,0.005607
656,0.035965,0.005964,0.023687
657,0.073044,0.04211,0.023687
658,0.035965,0.04211,-0.012473
659,-0.019652,-0.01211,-0.030552
660,-0.001113,-0.048257,-0.030552
661,0.035965,-0.048257,-0.066712
662,0.035965,-0.01211,0.041767
663,0.017426,-0.030183,-0.084792
664,0.017426,-0.01211,-0.157112
665,0.054504,-0.01211,-0.193271
666,-0.001113,-0.030183,-0.175191
667,0.035965,-0.01211,-0.048632
668,-0.001113,0.024037,0.222566
669,-0.038191,0.04211,0.367205
670,-0.112348,0.04211,0.475684
671,-0.038191,0.078257,0.403364
672,0.035965,0.060184,0.077927
673,0.054504,0.005964,-0.175191
674,-0.001113,-0.048257,-0.35599
675,-0.019652,-0.06633,-0.35599
676,-0.019652,-0.030183,-0.247511
677,-0.038191,-0.048257,-0.012473
678,-0.038191,-0.030183,0.150246
679,-0.038191,-0.030183,0.077927
680,-0.019652,0.005964,0.077927
681,-0.019652,0.005964,0.132166
682,-0.019652,-0.01211,0.059847
683,-0.038191,-0.01211,0.023687
684,0.017426,-0.01211,-0.030552
685,-0.001113,-0.01211,0.005607
686,-0.019652,0.005964,0.059847
687,-0.001113,0.005964,0.023687
688,0.017426,-0.01211,0.059847
689,-0.001113,0.04211,0.023687
690,0.035965,0.024037,0.005607
691,0.035965,0.024037,-0.012473
692,0.017426,-0.030183,-0.120952
693,-0.001113,-0.01211,-0.084792
694,-0.019652,-0.030183,-0.048632
695,-0.019652,-0.030183,-0.066712
696,-0.038191,-0.048257,-0.084792
697,-0.07527,0.005964,0.077927
698,-0.019652,0.04211,0.114086
699,0.054504,0.060184,0.096007
700,-0.019652,0.024037,0.096007
701,0.017426,-0.030183,-0.048632
702,0.017426,-0.030183,-0.175191
703,-0.019652,-0.048257,-0.30175
704,-0.07527,-0.06633,-0.211351
705,-0.038191,-0.030183,-0.048632
706,0.017426,0.024037,0.041767
707,0.035965,0.024037,0.150246
708,0.073044,0.078257,0.421444
709,-0.019652,0.024037,0.222566
710,-0.038191,-0.030183,-0.102872
711,-0.038191,-0.048257,-0.211351
712,-0.019652,-0.030183,-0.139032
713,0.035965,0.005964,-0.102872
714,0.054504,0.024037,0.023687
715,0.017426,0.060184,0.294885
716,0.035965,0.060184,0.276805
717,0.017426,0.024037,0.005607
718,-0.001113,-0.048257,-0.265591
719,-0.019652,-0.048257,-0.247511
720,-0.038191,-0.01211,0.005607
721,-0.038191,-0.030183,-0.084792
722,-0.001113,-0.030183,0.023687
723,0.017426,0.024037,0.349125
724,0.054504,0.078257,0.349125
725,0.035965,0.078257,0.023687
726,0.017426,-0.01211,-0.211351
727,-0.001113,0.005964,0.059847
728,0.017426,0.005964,0.059847
729,-0.001113,0.005964,0.023687
730,-0.001113,0.024037,0.059847
731,-0.001113,0.005964,0.005607
732,0.035965,0.024037,-0.030552
733,-0.001113,-0.01211,-0.157112
734,-0.001113,-0.048257,-0.464469
735,-0.019652,-0.06633,-0.518709
736,-0.05673,-0.06633,-0.157112
737,-0.05673,-0.06633,0.077927
738,0.017426,-0.01211,0.204486
739,0.035965,0.114404,0.548003
740,0.054504,0.096331,0.421444
741,-0.001113,0.005964,0.132166
742,-0.038191,-0.030183,-0.066712
743,-0.05673,-0.048257,-0.229431
744,-0.019652,-0.048257,-0.247511
745,-0.019652,-0.06633,-0.30175
746,-0.001113,-0.048257,-0.193271
747,0.017426,0.04211,0.077927
748,0.017426,0.078257,0.077927
749,-0.001113,0.04211,-0.048632
750,-0.001113,0.024037,0.077927
751,0.017426,0.024037,0.114086
752,-0.001113,-0.01211,-0.012473
753,0.017426,0.024037,0.077927
754,0.073044,0.04211,0.059847
755,0.017426,-0.030183,-0.030552
756,-0.07527,-0.12055,-0.193271
757,-0.05673,-0.084403,-0.229431
758,-0.019652,-0.030183,-0.211351
759,-0.001113,0.024037,0.132166
760,0.035965,0.024037,0.312965
761,-0.001113,0.024037,0.276805
762,-0.001113,0.04211,0.258725
763,0.017426,0.005964,0.114086
764,0.035965,0.096331,0.204486
765,0.054504,0.150551,0.168326
766,0.054504,0.04211,-0.139032
767,0.017426,-0.01211,-0.211351
768,-0.001113,-0.030183,-0.193271
769,-0.019652,-0.048257,-0.265591
770,-0.05673,-0.12055,-0.193271
771,-0.05673,-0.102477,-0.229431
772,-0.001113,0.005964,-0.048632
773,0.017426,0.024037,0.005607
774,0.017426,0.024037,0.132166
775,-0.001113,0.005964,0.132166
776,0.017426,0.060184,0.023687
777,0.017426,0.04211,-0.084792
778,0.091583,-0.01211,-0.084792
779,-0.038191,-0.030183,0.096007
780,-0.038191,0.024037,0.403364
781,0.017426,0.04211,0.168326
782,0.017426,-0.030183,-0.31983
783,-0.038191,-0.084403,-0.500629
784,-0.038191,-0.084403,-0.41023
785,-0.038191,-0.06633,-0.157112
786,-0.001113,0.005964,0.132166
787,0.017426,0.078257,0.764962
788,0.073044,0.096331,0.602243
789,0.035965,0.024037,0.186406
790,-0.019652,-0.01211,-0.211351
791,-0.038191,-0.048257,-0.175191
792,-0.019652,-0.01211,0.023687
793,0.017426,0.060184,0.204486
794,0.054504,0.096331,0.168326
795,0.091583,0.114404,0.385284
796,0.017426,0.060184,0.294885
797,-0.038191,-0.06633,-0.157112
798,-0.038191,-0.102477,-0.464469
799,-0.019652,-0.048257,-0.42831
800,-0.038191,-0.048257,-0.500629
801,-0.05673,-0.06633,-0.30175
802,-0.038191,-0.030183,0.005607
803,-0.019652,0.024037,0.294885
804,0.035965,0.078257,0.367205
805,0.073044,0.114404,0.222566
806,0.110122,0.132477,0.023687
807,0.035965,0.024037,-0.102872
808,-0.112348,-0.102477,-0.193271
809,-0.093809,-0.084403,-0.193271
810,-0.05673,0.005964,0.041767
811,0.035965,0.096331,0.475684
812,0.017426,0.060184,0.421444
813,-0.001113,0.078257,0.331045
814,0.035965,0.060184,0.222566
815,0.035965,0.005964,0.023687
816,-0.001113,-0.048257,-0.265591
817,-0.038191,-0.048257,-0.35599
818,-0.05673,-0.048257,-0.35599
819,-0.05673,-0.084403,-0.33791
820,-0.07527,-0.138624,-0.41023
821,-0.07527,-0.12055,-0.283671
822,-0.05673,-0.030183,0.114086
823,0.073044,0.096331,0.385284
824,0.202817,0.222844,0.421444
825,0.128661,0.150551,0.331045
826,-0.019652,0.024037,0.367205
827,-0.130887,-0.084403,0.096007
828,-0.112348,-0.138624,-0.41023
829,-0.05673,-0.06633,-0.572948
830,0.017426,0.024037,-0.33791
831,0.054504,0.096331,0.096007
832,0.017426,0.078257,0.385284
833,-0.038191,-0.01211,0.276805
834,0.017426,0.04211,0.240646
835,-0.001113,0.060184,0.150246
836,0.054504,0.060184,0.023687
837,0.073044,0.078257,0.150246
838,0.017426,0.04211,-0.012473
839,-0.07527,-0.084403,-0.193271
840,-0.07527,-0.084403,-0.33791
841,-0.038191,-0.030183,-0.139032
842,-0.038191,-0.01211,0.005607
843,-0.019652,-0.01211,-0.030552
844,-0.019652,-0.01211,0.059847
845,-0.001113,-0.048257,-0.066712
846,-0.019652,-0.030183,-0.012473
847,-0.001113,-0.030183,-0.120952
848,-0.001113,-0.01211,-0.283671
849,0.035965,-0.030183,-0.31983
850,-0.05673,-0.06633,-0.229431
851,-0.07527,-0.048257,0.439524
852,0.017426,0.078257,0.584163
853,0.017426,0.114404,0.132166
854,0.017426,0.024037,-0.35599
855,-0.05673,-0.030183,0.132166
856,-0.05673,0.024037,0.548003
857,0.035965,0.060184,0.403364
858,0.017426,0.078257,0.258725
859,0.054504,0.096331,0.059847
860,0.035965,0.060184,-0.012473
861,0.017426,0.005964,-0.012473
862,-0.05673,-0.06633,-0.211351
863,-0.05673,-0.084403,-0.500629
864,0.035965,-0.01211,-0.500629
865,0.017426,-0.030183,-0.500629
866,-0.112348,-0.156697,-0.211351
867,-0.112348,-0.12055,0.023687
868,-0.001113,0.04211,0.584163
869,0.054504,0.060184,0.186406
870,0.054504,0.078257,-0.048632
871,-0.001113,0.024037,-0.157112
872,-0.05673,-0.030183,-0.048632
873,-0.05673,-0.084403,-0.084792
874,-0.001113,-0.048257,-0.265591
875,-0.001113,0.005964,-0.33791
876,-0.001113,-0.030183,-0.157112
877,-0.001113,0.078257,0.475684
878,0.054504,0.096331,0.439524
879,0.035965,0.078257,0.312965
880,-0.038191,-0.01211,0.204486
881,-0.07527,-0.030183,0.186406
882,-0.019652,0.078257,0.276805
883,0.091583,0.150551,0.240646
884,0.110122,0.168624,0.258725
885,0.054504,0.114404,0.222566
886,-0.038191,-0.048257,-0.139032
887,-0.038191,-0.048257,-0.139032
888,-0.019652,-0.06633,-0.283671
889,-0.019652,-0.102477,-0.482549
890,-0.038191,-0.06633,-0.247511
891,-0.093809,-0.084403,-0.066712
892,-0.07527,-0.048257,-0.084792
893,-0.038191,-0.01211,-0.066712
894,-0.038191,-0.048257,-0.42831
895,-0.07527,-0.138624,-0.645268
896,-0.05673,-0.06633,-0.500629
897,-0.001113,-0.01211,0.005607
898,0.035965,0.078257,0.909601
899,0.035965,0.186697,1.126559
900,0.073044,0.150551,0.692642
901,0.073044,0.132477,0.150246
902,-0.001113,0.04211,-0.102872
903,-0.07527,-0.06633,-0.30175
904,-0.05673,-0.06633,-0.33791
905,-0.001113,-0.030183,-0.084792
906,-0.019652,-0.030183,-0.120952
907,-0.05673,-0.048257,-0.175191
908,-0.001113,-0.01211,-0.193271
909,0.017426,0.005964,-0.175191
910,0.017426,0.005964,-0.120952
911,-0.019652,0.024037,0.132166
912,-0.019652,0.005964,0.240646
913,-0.038191,0.024037,0.132166
914,-0.001113,-0.01211,-0.31983
915,0.017426,-0.01211,-0.33791
916,-0.019652,-0.084403,-0.39215
917,-0.05673,-0.084403,0.005607
918,0.054504,0.060184,0.584163
919,0.165739,0.204771,0.710722
920,0.184278,0.186697,0.331045
921,-0.019652,-0.01211,-0.084792
922,-0.07527,-0.102477,0.023687
923,-0.038191,-0.030183,-0.030552
924,0.035965,0.024037,-0.030552
925,0.035965,0.04211,-0.139032
926,-0.05673,-0.01211,-0.265591
927,-0.093809,-0.06633,-0.518709
928,-0.05673,-0.102477,-0.536789
929,-0.093809,-0.102477,-0.066712
930,-0.130887,-0.048257,0.276805
931,-0.038191,0.096331,0.511844
932,-0.001113,0.078257,0.222566
933,0.035965,0.096331,0.349125
934,0.054504,0.150551,0.367205
935,0.035965,0.096331,0.312965
936,0.035965,0.04211,0.258725
937,0.035965,0.060184,0.168326
938,0.017426,0.024037,-0.139032
939,0.054504,0.005964,-0.30175
940,-0.038191,-0.048257,-0.283671
941,-0.093809,-0.17477,-0.572948
942,-0.093809,-0.138624,-0.500629
943,-0.05673,-0.06633,-0.012473
944,-0.05673,-0.030183,0.258725
945,-0.019652,-0.01211,0.367205
946,0.054504,0.078257,0.150246
947,0.035965,-0.01211,-0.066712
948,-0.038191,-0.06633,-0.102872
949,-0.001113,0.024037,0.005607
950,0.035965,0.078257,0.258725
951,0.073044,0.096331,0.114086
952,-0.019652,-0.01211,-0.31983
953,-0.07527,-0.06633,-0.536789
954,-0.05673,-0.12055,-0.42831
955,-0.019652,-0.048257,-0.066712
956,-0.001113,-0.048257,0.005607
957,-0.001113,0.04211,0.186406
958,0.017426,0.04211,0.421444
959,0.035965,0.096331,0.620323
960,0.017426,0.060184,0.312965
961,-0.019652,0.024037,0.041767
962,-0.001113,-0.01211,-0.120952
963,0.017426,0.005964,-0.066712
964,-0.001113,0.04211,0.114086
965,-0.019652,-0.030183,-0.084792
966,-0.05673,-0.048257,-0.35599
967,-0.07527,-0.06633,-0.37407
968,-0.001113,-0.01211,0.096007
969,0.035965,0.060184,0.077927
970,0.017426,-0.01211,-0.139032
971,-0.019652,-0.01211,-0.175191
972,-0.038191,-0.030183,0.023687
973,-0.001113,-0.01211,-0.012473
974,-0.019652,-0.048257,-0.048632
975,0.017426,-0.01211,-0.012473
976,-0.019652,0.04211,0.168326
977,-0.019652,0.005964,0.096007
978,-0.038191,-0.01211,0.023687
979,0.035965,0.024037,-0.193271
980,0.054504,0.024037,-0.33791
981,0.054504,0.04211,-0.211351
982,0.035965,0.060184,0.312965
983,0.054504,0.096331,0.548003
984,0.054504,0.132477,0.566083
985,-0.001113,0.04211,0.204486
986,-0.019652,-0.01211,0.005607
987,-0.019652,-0.048257,-0.012473
988,-0.07527,-0.06633,-0.193271
989,-0.07527,-0.06633,-0.265591
990,-0.001113,-0.048257,-0.33791
991,0.017426,-0.030183,-0.229431
992,0.017426,0.005964,0.114086
993,-0.019652,-0.01211,0.222566
994,-0.038191,-0.030183,0.132166
995,-0.019652,0.024037,0.059847
996,-0.019652,-0.01211,-0.102872
997,-0.05673,-0.01211,-0.048632
998,-0.001113,-0.01211,-0.048632
999,-0.001113,-0.01211,-0.066712
1000,0.035965,0.060184,-0.175191
1001,0.035965,0.024037,-0.229431
1002,-0.05673,-0.06633,-0.229431
1003,-0.019652,-0.01211,0.005607
1004,0.091583,0.114404,0.367205
1005,0.073044,0.060184,0.385284
1006,-0.001113,0.005964,0.204486
1007,-0.019652,-0.01211,0.005607
1008,-0.038191,-0.048257,-0.283671
1009,-0.093809,-0.138624,-0.35599
1010,-0.05673,-0.084403,-0.536789
1011,-0.038191,-0.030183,-0.229431
1012,-0.019652,0.005964,0.114086
1013,0.017426,0.060184,0.367205
1014,0.017426,0.096331,0.511844
1015,0.035965,0.132477,0.548003
1016,0.073044,0.132477,0.403364
1017,0.073044,0.078257,0.186406
1018,0.035965,0.005964,-0.084792
1019,-0.019652,-0.048257,-0.30175
1020,-0.07527,-0.06633,-0.211351
1021,-0.05673,-0.06633,-0.066712
1022,-0.019652,-0.01211,0.077927
1023,-0.019652,-0.01211,-0.066712
1024,0.017426,0.024037,-0.35599
1025,0.017426,0.005964,-0.41023
1026,0.017426,0.005964,-0.048632
1027,0.054504,0.078257,0.294885
1028,0.054504,0.078257,0.222566
1029,-0.001113,0.04211,0.204486
1030,-0.093809,-0.048257,-0.193271
1031,-0.07527,-0.102477,-0.33791
1032,-0.093809,-0.084403,-0.30175
1033,-0.05673,-0.048257,-0.084792
1034,-0.038191,-0.030183,0.349125
1035,-0.038191,0.04211,0.168326
1036,0.035965,0.078257,0.096007
1037,0.054504,0.04211,0.186406
1038,0.054504,0.078257,0.041767
1039,-0.001113,0.005964,-0.175191
1040,0.017426,0.005964,-0.175191
1041,0.017426,0.04211,-0.048632
1042,-0.001113,0.005964,0.168326
1043,-0.05673,-0.01211,0.096007
1044,-0.05673,-0.06633,-0.211351
1045,-0.05673,-0.030183,0.222566
1046,0.035965,0.060184,0.367205
1047,0.017426,0.04211,0.114086
1048,0.073044,0.005964,-0.066712
1049,0.073044,0.024037,-0.157112
1050,0.035965,-0.01211,-0.175191
1051,-0.001113,-0.01211,-0.265591
1052,0.017426,0.024037,-0.193271
1053,-0.019652,0.024037,-0.012473
1054,-0.05673,0.078257,0.385284
1055,-0.038191,0.005964,0.222566
1056,-0.019652,0.04211,0.222566
1057,-0.001113,0.005964,-0.030552
1058,-0.07527,-0.102477,-0.35599
1059,-0.112348,-0.156697,-0.554869
1060,-0.038191,-0.048257,-0.012473
1061,0.035965,0.005964,0.150246
1062,0.073044,0.060184,0.168326
1063,0.073044,0.04211,0.005607
1064,0.035965,0.005964,-0.120952
1065,-0.001113,-0.030183,-0.211351
1066,-0.001113,0.005964,-0.084792
1067,-0.038191,0.005964,0.114086
1068,-0.07527,0.005964,0.005607
1069,-0.038191,0.024037,0.023687
1070,-0.019652,0.04211,0.258725
1071,0.035965,0.096331,0.475684
1072,0.035965,0.060184,0.204486
1073,-0.001113,0.005964,-0.102872
1074,-0.019652,-0.01211,-0.283671
1075,-0.038191,0.005964,-0.157112
1076,-0.038191,-0.030183,-0.120952
1077,-0.038191,-0.030183,0.023687
1078,-0.019652,-0.048257,-0.31983
1079,-0.05673,-0.048257,-0.554869
1080,-0.07527,-0.06633,-0.30175
1081,-0.05673,-0.01211,0.240646
1082,0.017426,0.04211,0.367205
1083,-0.001113,0.060184,0.294885
1084,0.017426,0.04211,0.059847
1085,0.017426,0.04211,0.114086
1086,0.017426,0.024037,0.186406
1087,-0.019652,0.005964,0.077927
1088,0.035965,0.024037,0.114086
1089,-0.001113,0.024037,-0.012473
1090,-0.001113,0.024037,-0.048632
1091,0.054504,0.078257,0.168326
1092,0.035965,0.078257,0.312965
1093,0.054504,0.04211,0.096007
1094,0.017426,0.005964,-0.066712
1095,-0.038191,-0.048257,-0.193271
1096,-0.05673,-0.048257,0.077927
1097,-0.05673,-0.030183,0.186406
1098,-0.038191,-0.048257,-0.102872
1099,-0.05673,-0.030183,-0.102872
1100,-0.05673,-0.048257,-0.283671
1101,-0.038191,-0.06633,-0.627188
1102,-0.019652,-0.030183,-0.33791
1103,0.035965,0.060184,0.168326
1104,0.017426,0.060184,0.331045
1105,-0.001113,0.005964,0.312965
1106,-0.001113,0.024037,0.077927
1107,0.017426,0.005964,0.041767
1108,-0.019652,-0.01211,0.150246
1109,-0.038191,-0.030183,-0.012473
1110,-0.019652,-0.01211,-0.139032
1111,-0.019652,-0.01211,-0.247511
1112,-0.001113,-0.01211,-0.120952
1113,0.017426,0.024037,0.150246
1114,-0.019652,-0.01211,0.132166
1115,0.035965,0.024037,-0.157112
1116,-0.019652,-0.048257,-0.518709
1117,-0.05673,-0.12055,-0.807987
1118,-0.038191,-0.030183,0.222566
1119,-0.038191,0.024037,0.728802
1120,-0.001113,0.078257,0.493764
1121,0.054504,0.096331,0.312965
1122,0.073044,0.078257,0.204486
1123,0.110122,0.060184,0.186406
1124,0.073044,0.060184,0.258725
1125,0.017426,0.005964,-0.066712
1126,-0.001113,-0.048257,-0.31983
1127,-0.038191,-0.030183,-0.247511
1128,-0.019652,0.060184,0.005607
1129,-0.001113,0.078257,0.186406
1130,-0.001113,-0.01211,0.077927
1131,-0.093809,-0.102477,-0.211351
1132,-0.130887,-0.06633,-0.157112
1133,-0.05673,-0.048257,-0.247511
1134,-0.019652,-0.048257,-0.139032
1135,-0.019652,-0.030183,-0.048632
1136,0.017426,0.005964,-0.048632
1137,-0.019652,0.04211,0.114086
1138,0.017426,0.005964,0.186406
1139,0.035965,0.024037,0.096007
1140,0.054504,0.04211,0.005607
1141,0.017426,0.024037,-0.084792
1142,-0.038191,-0.048257,-0.139032
1143,-0.001113,0.005964,0.150246
1144,-0.001113,0.005964,0.023687
1145,-0.038191,-0.030183,-0.139032
1146,-0.07527,-0.048257,-0.265591
1147,-0.038191,0.005964,-0.048632
1148,-0.001113,0.024037,0.349125
1149,-0.019652,0.005964,0.204486
1150,0.035965,0.005964,-0.175191
1151,0.017426,-0.048257,-0.41023
1152,-0.019652,-0.030183,-0.39215
1153,-0.038191,-0.06633,-0.500629
1154,-0.019652,-0.01211,-0.175191
1155,-0.038191,-0.01211,0.005607
1156,-0.07527,-0.030183,0.186406
1157,0.017426,0.060184,0.367205
1158,0.035965,0.114404,0.548003
1159,0.035965,0.096331,0.385284
1160,0.035965,0.04211,0.240646
1161,-0.001113,0.005964,0.222566
1162,-0.019652,-0.01211,0.150246
1163,-0.038191,-0.030183,-0.048632
1164,-0.019652,-0.06633,-0.247511
1165,-0.001113,-0.06633,-0.211351
1166,0.035965,0.04211,0.222566
1167,0.073044,0.060184,0.294885
1168,0.073044,0.078257,0.276805
1169,-0.001113,-0.01211,-0.066712
1170,-0.038191,-0.06633,-0.42831
1171,-0.05673,-0.06633,-0.500629
1172,-0.038191,-0.01211,-0.193271
1173,-0.07527,-0.048257,0.059847
1174,-0.038191,-0.01211,0.240646
1175,-0.001113,0.060184,0.132166
1176,0.017426,0.04211,0.096007
1177,0.017426,0.04211,-0.084792
1178,-0.019652,-0.01211,-0.211351
1179,0.017426,-0.01211,-0.012473
1180,-0.001113,0.024037,0.240646
1181,0.035965,0.060184,0.114086
1182,0.035965,0.04211,0.041767
1183,0.017426,0.005964,0.059847
1184,-0.019652,-0.01211,0.041767
1185,-0.001113,-0.01211,-0.102872
1186,-0.001113,-0.048257,-0.229431
1187,-0.019652,-0.048257,-0.211351
1188,-0.038191,-0.030183,0.114086
1189,-0.05673,-0.030183,0.096007
1190,-0.001113,0.024037,0.059847
1191,0.035965,0.024037,-0.066712
1192,0.054504,0.060184,-0.157112
1193,0.035965,0.024037,-0.048632
1194,-0.038191,-0.030183,-0.120952
1195,-0.07527,-0.06633,-0.265591
1196,-0.038191,-0.01211,-0.066712
1197,-0.019652,0.005964,-0.012473
1198,-0.001113,0.060184,0.258725
1199,0.035965,0.078257,0.294885
1200,-0.038191,0.060184,-0.012473
1201,-0.05673,-0.030183,-0.120952
1202,-0.001113,0.024037,0.132166
1203,0.054504,0.078257,0.403364
1204,0.054504,0.096331,0.349125
1205,0.035965,0.060184,0.150246
1206,-0.019652,-0.01211,-0.084792
1207,-0.038191,-0.030183,-0.157112
1208,-0.05673,-0.030183,-0.030552
1209,-0.019652,-0.030183,-0.084792
1210,0.054504,0.005964,-0.139032
1211,0.035965,-0.01211,-0.211351
1212,0.017426,-0.048257,-0.283671
1213,-0.038191,-0.102477,-0.35599
1214,-0.001113,-0.048257,-0.120952
1215,0.035965,0.04211,0.077927
1216,-0.001113,0.024037,0.114086
1217,0.017426,0.060184,0.204486
1218,-0.001113,0.078257,0.331045
1219,-0.019652,0.096331,0.403364
1220,-0.001113,0.078257,0.222566
1221,-0.038191,0.060184,0.114086
1222,-0.07527,-0.01211,-0.066712
1223,-0.093809,-0.06633,-0.229431
1224,-0.07527,-0.06633,-0.175191
1225,-0.019652,-0.048257,-0.193271
1226,-0.038191,-0.030183,-0.030552
1227,-0.05673,-0.06633,-0.229431
1228,-0.019652,-0.01211,-0.084792
1229,0.054504,0.078257,0.204486
1230,0.073044,0.114404,0.258725
1231,0.035965,0.060184,0.150246
1232,-0.038191,-0.01211,-0.012473
1233,-0.038191,-0.01211,-0.048632
1234,0.035965,0.04211,0.059847
1235,0.054504,0.060184,0.114086
1236,0.035965,0.005964,0.023687
1237,-0.001113,-0.030183,-0.048632
1238,-0.038191,-0.06633,-0.37407
1239,-0.05673,-0.084403,-0.35599
1240,-0.038191,-0.048257,-0.066712
1241,-0.019652,-0.030183,0.077927
1242,0.017426,0.024037,0.059847
1243,0.054504,0.04211,-0.157112
1244,-0.001113,0.005964,-0.175191
1245,-0.019652,-0.030183,-0.229431
1246,-0.038191,-0.06633,-0.175191
1247,-0.001113,0.024037,0.367205
1248,-0.019652,0.060184,0.331045
1249,-0.019652,0.04211,0.096007
1250,-0.019652,-0.030183,0.023687
1251,-0.001113,-0.030183,-0.139032
1252,0.017426,0.024037,-0.247511
1253,0.035965,0.005964,-0.066712
1254,-0.001113,0.078257,0.385284
1255,-0.001113,0.078257,0.331045
1256,-0.019652,0.04211,0.096007
1257,0.017426,-0.01211,0.023687
1258,0.035965,0.060184,0.096007
1259,-0.038191,0.005964,-0.066712
1260,-0.05673,0.005964,-0.102872
1261,-0.05673,-0.06633,-0.066712
1262,-0.019652,0.005964,0.258725
1263,0.054504,0.024037,0.150246
1264,-0.019652,-0.030183,0.023687
1265,-0.05673,-0.048257,-0.139032
1266,-0.07527,-0.030183,-0.139032
1267,-0.038191,-0.030183,-0.102872
1268,-0.001113,0.024037,-0.012473
1269,-0.019652,0.005964,0.041767
1270,0.017426,0.04211,0.023687
1271,0.035965,0.078257,0.059847
1272,0.054504,0.078257,0.150246
1273,0.054504,0.024037,0.005607
1274,-0.001113,-0.01211,-0.048632
1275,-0.07527,-0.102477,-0.31983
1276,-0.093809,-0.084403,0.059847
1277,-0.07527,-0.102477,-0.066712
1278,-0.038191,-0.030183,-0.139032
1279,0.035965,0.024037,-0.193271
1280,0.054504,0.005964,-0.283671
1281,-0.001113,-0.01211,0.096007
1282,0.035965,0.078257,0.349125
1283,0.035965,0.060184,0.150246
1284,-0.001113,-0.01211,-0.066712
1285,-0.001113,0.024037,0.005607
1286,0.017426,0.060184,0.077927
1287,0.017426,0.04211,0.096007
1288,-0.001113,-0.01211,-0.048632
1289,-0.019652,-0.030183,-0.139032
1290,-0.019652,-0.030183,-0.175191
1291,-0.038191,-0.048257,-0.084792
1292,0.017426,0.005964,0.132166
1293,0.073044,0.096331,0.276805
1294,0.054504,0.04211,0.114086
1295,-0.001113,-0.01211,0.059847
1296,-0.038191,0.005964,0.114086
1297,-0.093809,-0.030183,-0.048632
1298,-0.093809,-0.06633,-0.012473
1299,-0.019652,0.04211,0.258725
1300,0.054504,0.060184,0.041767
1301,0.017426,0.04211,-0.120952
1302,-0.05673,-0.030183,-0.247511
1303,-0.05673,-0.048257,-0.120952
1304,-0.038191,-0.030183,-0.048632
1305,-0.038191,-0.01211,-0.030552
1306,-0.001113,-0.01211,-0.030552
1307,0.035965,-0.01211,0.005607
1308,0.017426,-0.01211,-0.048632
1309,-0.019652,-0.048257,-0.193271
1310,-0.05673,-0.048257,-0.157112
1311,-0.019652,-0.06633,-0.157112
1312,0.017426,-0.048257,-0.211351
1313,0.035965,0.024037,-0.048632
1314,0.035965,0.005964,-0.139032
1315,0.091583,0.024037,0.150246
1316,-0.001113,0.005964,0.204486
1317,-0.001113,0.114404,0.457604
1318,0.073044,0.168624,0.439524
1319,0.073044,0.078257,0.312965
1320,0.035965,0.078257,0.186406
1321,-0.038191,-0.030183,-0.030552
1322,-0.05673,-0.048257,-0.247511
1323,-0.07527,-0.06633,-0.229431
1324,-0.038191,-0.01211,-0.066712
1325,0.035965,0.04211,0.204486
1326,0.035965,0.024037,0.023687
1327,-0.001113,-0.030183,-0.175191
1328,-0.001113,-0.06633,-0.157112
1329,0.035965,-0.01211,0.077927
1330,0.035965,0.04211,0.258725
1331,0.035965,0.060184,0.114086
1332,0.035965,0.04211,0.005607
1333,0.073044,0.114404,0.096007
1334,0.091583,0.114404,0.222566
1335,-0.001113,0.04211,0.186406
1336,-0.112348,-0.06633,0.059847
1337,-0.186504,-0.138624,-0.31983
1338,-0.093809,-0.084403,-0.229431
1339,-0.019652,-0.01211,-0.175191
1340,-0.001113,0.005964,-0.229431
1341,-0.019652,-0.048257,-0.157112
1342,-0.019652,-0.048257,0.041767
1343,-0.019652,-0.01211,0.132166
1344,-0.019652,0.005964,-0.048632
1345,-0.019652,0.04211,-0.012473
1346,-0.001113,0.04211,-0.012473
1347,-0.038191,-0.01211,0.059847
1348,-0.001113,-0.01211,0.150246
1349,0.017426,0.024037,0.023687
1350,0.054504,0.078257,0.023687
1351,0.054504,0.024037,0.059847
1352,-0.019652,-0.01211,-0.084792
1353,-0.05673,-0.06633,-0.048632
1354,-0.038191,0.024037,0.059847
1355,0.017426,0.060184,0.059847
1356,0.035965,0.04211,-0.030552
1357,0.017426,0.005964,0.023687
1358,-0.05673,-0.030183,-0.139032
1359,-0.019652,-0.048257,-0.211351
1360,-0.038191,-0.048257,-0.265591
1361,-0.019652,-0.030183,-0.120952
1362,-0.001113,0.005964,-0.066712
1363,0.035965,0.024037,0.041767
1364,0.017426,0.04211,0.114086
1365,0.054504,0.060184,0.403364
1366,0.035965,0.078257,0.421444
1367,-0.019652,0.024037,0.114086
1368,-0.038191,-0.030183,-0.211351
1369,-0.07527,-0.030183,-0.265591
1370,-0.093809,-0.084403,-0.31983
1371,0.017426,0.060184,0.023687
1372,0.035965,0.078257,0.077927
1373,0.017426,0.078257,0.114086
1374,0.017426,0.060184,0.222566
1375,-0.038191,0.024037,0.258725
1376,-0.001113,0.005964,0.186406
1377,-0.001113,0.005964,0.114086
1378,0.035965,0.04211,0.096007
1379,0.017426,0.005964,-0.066712
1380,0.017426,-0.030183,-0.283671
1381,-0.019652,-0.06633,-0.464469
1382,-0.038191,-0.06633,-0.33791
1383,-0.05673,-0.030183,0.150246
1384,-0.019652,-0.01211,0.312965
1385,-0.001113,0.04211,0.258725
1386,-0.019652,0.024037,0.059847
1387,0.017426,-0.01211,-0.139032
1388,-0.001113,-0.01211,-0.120952
1389,-0.001113,-0.01211,-0.102872
1390,-0.019652,-0.01211,0.059847
1391,0.054504,0.096331,0.475684
1392,0.073044,0.132477,0.312965
1393,-0.001113,0.005964,-0.048632
1394,-0.038191,-0.048257,-0.229431
1395,-0.05673,-0.102477,-0.35599
1396,-0.07527,-0.102477,-0.247511
1397,-0.05673,-0.01211,0.132166
1398,0.035965,0.078257,0.331045
1399,0.035965,0.114404,0.276805
1400,0.035965,0.060184,0.023687
1401,-0.001113,-0.030183,-0.229431
1402,-0.05673,-0.048257,-0.157112
1403,-0.019652,-0.030183,-0.120952
1404,-0.019652,-0.01211,-0.012473
1405,-0.001113,0.005964,-0.030552
1406,0.017426,0.005964,-0.066712
1407,0.035965,0.024037,0.114086
1408,-0.001113,0.04211,0.132166
1409,-0.019652,0.005964,0.150246
1410,-0.001113,0.04211,0.132166
1411,-0.05673,-0.01211,-0.175191
1412,0.017426,0.024037,-0.193271
1413,-0.001113,0.005964,-0.157112
1414,-0.038191,-0.048257,0.096007
1415,0.035965,0.04211,0.367205
1416,0.035965,0.04211,0.077927
1417,-0.019652,-0.048257,-0.211351
1418,-0.07527,-0.102477,-0.446389
1419,-0.019652,-0.01211,-0.120952
1420,-0.038191,0.04211,0.150246
1421,-0.07527,0.024037,0.150246
1422,-0.019652,0.005964,0.023687
1423,-0.001113,0.005964,-0.012473
1424,-0.001113,0.005964,-0.048632
1425,0.091583,-0.01211,0.005607
1426,0.017426,0.005964,-0.012473
1427,-0.001113,-0.01211,-0.030552
1428,0.054504,0.024037,0.150246
1429,0.073044,0.114404,0.312965
1430,0.017426,0.005964,0.168326
1431,-0.019652,-0.048257,-0.066712
1432,-0.05673,-0.030183,-0.120952
1433,-0.038191,-0.030183,-0.157112
1434,-0.038191,-0.030183,-0.157112
1435,-0.038191,-0.030183,-0.157112
1436,-0.038191,-0.030183,-0.157112
1437,-0.038191,-0.048257,-0.193271
1438,0.017426,0.005964,0.041767
1439,0.035965,0.060184,0.276805
1440,0.017426,0.060184,0.150246
1441,-0.019652,0.060184,0.114086
1442,0.017426,0.024037,-0.012473
1443,0.017426,0.024037,-0.066712
1444,0.035965,0.04211,0.041767
1445,0.091583,0.04211,0.059847
1446,0.091583,0.078257,0.240646
1447,0.054504,-0.01211,0.041767
1448,-0.001113,-0.01211,-0.012473
1449,0.017426,-0.01211,-0.030552
1450,-0.038191,-0.030183,-0.066712
1451,-0.038191,-0.030183,-0.120952
1452,-0.038191,-0.030183,-0.084792
1453,-0.038191,0.005964,-0.066712
1454,-0.07527,0.005964,0.059847
1455,-0.07527,0.04211,0.114086
1456,-0.038191,0.005964,0.077927
1457,-0.07527,-0.048257,-0.084792
1458,-0.093809,-0.084403,-0.193271
1459,-0.038191,-0.048257,-0.102872
1460,-0.001113,-0.01211,-0.193271
1461,0.017426,0.024037,-0.066712
1462,0.035965,0.024037,0.077927
1463,-0.019652,0.005964,0.077927
1464,-0.001113,0.024037,0.059847
1465,-0.001113,0.024037,0.059847
1466,-0.001113,0.04211,0.077927
1467,0.017426,0.04211,0.041767
1468,0.017426,0.005964,0.023687
1469,-0.019652,-0.01211,-0.030552
1470,0.017426,0.024037,0.041767
1471,0.017426,0.024037,0.059847
1472,0.017426,0.024037,0.041767
1473,-0.019652,0.024037,0.005607
1474,-0.001113,0.005964,-0.012473
1475,0.017426,0.005964,-0.048632
1476,0.017426,-0.01211,0.041767
1477,-0.038191,0.005964,0.005607
1478,-0.001113,-0.01211,0.005607
1479,-0.001113,0.024037,0.041767
1480,0.035965,0.04211,0.204486
1481,0.091583,0.096331,0.294885
1482,0.091583,0.114404,0.276805
1483,-0.019652,0.005964,-0.120952
1484,-0.05673,-0.06633,-0.283671
1485,-0.07527,-0.06633,-0.265591
1486,-0.038191,-0.06633,-0.139032
1487,-0.019652,-0.06633,-0.120952
1488,-0.001113,-0.030183,-0.084792
1489,-0.038191,-0.01211,-0.102872
1490,-0.019652,-0.030183,-0.048632
1491,-0.019652,0.005964,-0.012473
1492,-0.001113,0.005964,0.041767
1493,-0.001113,-0.01211,0.059847
1494,-0.001113,0.005964,-0.012473
1495,-0.038191,0.005964,-0.030552
1496,-0.001113,-0.048257,-0.066712
1497,0.017426,0.024037,0.059847
1498,-0.019652,0.024037,0.023687
1499,0.017426,0.024037,0.023687
1500,-0.019652,0.024037,0.023687
1501,-0.001113,0.024037,0.023687
1502,-0.019652,-0.01211,0.005607
1503,-0.019652,0.005964,0.023687
1504,-0.001113,0.024037,0.023687
1505,-0.001113,0.024037,0.041767
1506,0.017426,0.005964,0.041767
1507,0.017426,0.024037,0.096007
1508,-0.001113,0.005964,0.041767
1509,-0.001113,0.04211,0.023687
1510,-0.001113,0.005964,0.023687
1511,-0.001113,0.024037,0.041767
1512,-0.001113,0.005964,0.005607
1513,-0.001113,-0.01211,-0.012473
1514,-0.001113,-0.01211,0.023687
1515,-0.019652,0.024037,0.005607
1516,0.017426,0.024037,-0.030552
1517,-0.019652,0.005964,0.005607
1518,-0.019652,0.024037,0.005607
1519,-0.019652,0.005964,-0.030552
1520,0.017426,0.005964,-0.012473
1521,-0.038191,0.005964,0.005607
1522,-0.001113,-0.01211,0.005607
1523,-0.001113,0.005964,0.005607
1524,-0.001113,-0.01211,0.005607
1525,-0.001113,0.005964,0.023687
1526,-0.001113,0.005964,-0.012473
1527,-0.001113,0.005964,-0.030552
1528,0.017426,-0.01211,0.023687
1529,0.035965,0.024037,0.023687
1530,0.017426,0.024037,-0.012473
1531,0.054504,0.04211,-0.030552
1532,0.035965,0.024037,-0.012473
1533,0.017426,0.005964,-0.030552
1534,0.017426,0.005964,-0.030552
1535,-0.001113,0.005964,0.005607
1536,-0.038191,-0.01211,0.005607
1537,-0.038191,-0.030183,-0.012473
1538,-0.019652,0.005964,0.005607
1539,-0.05673,-0.01211,0.005607
1540,-0.093809,-0.01211,-0.012473
1541,-0.019652,0.005964,0.005607
1542,-0.001113,-0.01211,0.023687
1543,0.035965,0.005964,0.023687
1544,-0.019652,0.04211,0.005607
1545,-0.019652,0.024037,0.005607
1546,-0.019652,0.024037,0.041767
1547,-0.001113,0.005964,0.005607
1548,0.017426,0.024037,-0.030552
1549,-0.001113,-0.01211,-0.030552
1550,-0.001113,-0.01211,-0.030552
1551,-0.019652,-0.01211,-0.012473
1552,-0.019652,0.005964,0.005607
1553,0.017426,-0.01211,0.023687
1554,0.017426,0.005964,0.059847
1555,0.017426,0.005964,0.005607
1556,-0.019652,0.005964,0.005607
1557,-0.001113,-0.01211,0.005607
1558,-0.019652,-0.01211,0.005607
1559,-0.001113,0.005964,0.023687
1560,0.017426,0.005964,0.059847
1561,-0.001113,0.024037,0.005607
1562,-0.019652,0.005964,-0.030552
1563,-0.019652,0.005964,0.005607
1564,-0.019652,-0.01211,0.005607
1565,-0.001113,0.005964,0.005607
1566,0.017426,0.005964,0.041767
1567,0.017426,0.024037,0.059847
1568,0.017426,0.024037,0.023687
1569,-0.001113,0.024037,0.041767
1570,-0.001113,0.024037,0.005607
1571,0.017426,0.024037,0.023687
1572,-0.001113,0.005964,-0.012473
1573,-0.001113,-0.01211,0.005607
1574,-0.001113,0.024037,0.041767
1575,0.017426,0.024037,0.023687
1576,-0.019652,0.005964,0.005607
1577,-0.001113,-0.030183,-0.012473
1578,-0.019652,0.005964,-0.030552
1579,-0.019652,0.024037,-0.030552
1580,-0.019652,0.005964,-0.012473
1581,-0.001113,0.005964,-0.012473
1582,-0.001113,0.005964,-0.012473
1583,-0.001113,0.005964,0.005607
1584,-0.001113,0.005964,0.023687
1585,-0.019652,0.005964,-0.012473
1586,-0.001113,-0.01211,0.005607
1587,0.017426,0.005964,0.005607
1588,-0.001113,0.005964,0.023687
1589,0.017426,-0.01211,0.005607
1590,-0.019652,-0.01211,0.005607
1591,-0.038191,-0.01211,0.005607
1592,-0.001113,0.005964,-0.012473
1593,-0.001113,-0.01211,-0.030552
1594,0.017426,-0.01211,0.005607
1595,0.017426,-0.01211,-0.012473
1596,-0.001113,0.005964,-0.012473
1597,-0.019652,0.005964,-0.012473
1598,-0.019652,0.024037,0.023687
1599,-0.038191,0.005964,-0.030552
1600,0.017426,0.005964,-0.012473
1601,-0.001113,0.005964,0.023687
1602,-0.001113,-0.01211,0.041767
1603,-0.019652,0.005964,0.023687
1604,0.017426,0.005964,0.023687
1605,-0.019652,0.024037,0.023687
1606,-0.001113,0.005964,0.005607
1607,-0.019652,0.024037,0.023687
1608,-0.001113,0.024037,0.023687
1609,0.017426,0.005964,-0.012473
1610,-0.001113,-0.01211,-0.012473
1611,-0.001113,0.005964,-0.030552
1612,-0.001113,0.005964,-0.012473
1613,-0.019652,0.005964,0.005607
1614,-0.019652,0.005964,0.005607
1615,-0.001113,0.005964,0.005607
1616,-0.019652,-0.01211,-0.030552
1617,-0.001113,0.005964,-0.012473
1618,-0.001113,0.005964,-0.012473
1619,-0.001113,0.005964,0.005607
1620,0.017426,-0.01211,0.023687
1621,0.017426,0.024037,0.023687
1622,-0.001113,0.005964,0.005607
1623,-0.019652,0.024037,0.005607
1624,0.017426,0.005964,0.023687
1625,-0.001113,-0.01211,0.023687
1626,-0.001113,-0.01211,0.005607
1627,-0.001113,0.005964,-0.012473
1628,0.017426,0.005964,-0.012473
1629,0.073044,0.04211,0.005607
1630,0.073044,0.04211,-0.012473
1631,0.073044,0.024037,-0.012473
1632,0.073044,0.024037,0.005607
1633,0.054504,0.04211,0.023687
1634,0.035965,0.024037,-0.012473
1635,-0.019652,0.005964,0.005607
1636,-0.019652,0.005964,0.005607
1637,-0.112348,-0.030183,0.023687
1638,-0.05673,-0.01211,0.005607
1639,0.054504,0.005964,0.023687
1640,0.017426,0.024037,0.005607
1641,0.017426,0.005964,0.005607
1642,-0.038191,0.005964,-0.012473
1643,-0.112348,-0.01211,0.005607
1644,-0.093809,0.005964,0.023687
1645,-0.05673,-0.01211,0.005607
1646,-0.038191,0.005964,-0.030552
1647,-0.05673,0.005964,-0.012473
1648,-0.038191,0.005964,-0.048632
1649,-0.05673,-0.01211,0.005607
1650,-0.019652,-0.01211,0.005607
1651,-0.019652,0.005964,-0.030552
1652,0.017426,0.005964,-0.012473
1653,-0.001113,0.024037,0.023687
1654,-0.001113,0.024037,0.023687
1655,-0.001113,0.024037,0.041767
1656,-0.001113,0.024037,0.041767
1657,-0.001113,0.005964,0.023687
1658,0.017426,0.024037,-0.012473
1659,0.017426,0.024037,-0.030552
1660,-0.001113,0.005964,0.005607
1661,-0.001113,0.024037,0.005607
1662,-0.001113,-0.01211,-0.030552
1663,-0.001113,0.005964,-0.030552
1664,-0.019652,0.005964,0.023687
1665,0.035965,0.005964,0.023687
1666,-0.038191,0.005964,-0.012473
1667,-0.001113,0.005964,0.005607
1668,-0.019652,0.024037,0.041767
1669,-0.001113,0.024037,0.005607
1670,-0.019652,0.024037,0.005607
1671,-0.001113,0.005964,0.023687
1672,-0.001113,0.005964,0.023687
1673,0.017426,0.024037,0.005607
1674,-0.001113,0.005964,0.023687
1675,-0.019652,0.005964,0.005607
1676,-0.019652,0.024037,0.005607
1677,-0.001113,0.024037,-0.012473
1678,-0.001113,0.024037,0.005607
1679,0.054504,0.005964,-0.012473
1680,-0.019652,0.024037,-0.030552
1681,-0.038191,0.005964,-0.012473
1682,-0.019652,-0.01211,-0.030552
1683,-0.019652,0.005964,-0.048632
1684,0.017426,0.024037,0.005607
1685,-0.001113,0.005964,0.005607
1686,0.017426,0.005964,0.005607
1687,-0.019652,0.005964,-0.012473
1688,-0.001113,0.005964,0.005607
1689,-0.001113,0.024037,0.005607
1690,-0.001113,0.005964,0.005607
1691,-0.019652,0.005964,0.005607
1692,-0.001113,0.005964,0.005607
1693,-0.019652,0.005964,-0.012473
1694,-0.001113,0.024037,-0.012473
1695,-0.038191,0.005964,0.023687
1696,-0.038191,-0.01211,-0.012473
1697,-0.001113,0.005964,-0.012473
1698,0.035965,0.005964,0.005607
1699,0.035965,0.024037,0.023687
1700,0.017426,0.024037,0.005607
1701,-0.019652,0.005964,0.005607
1702,-0.001113,0.04211,0.023687
1703,-0.001113,0.024037,0.041767
1704,0.017426,0.005964,0.005607
1705,-0.001113,0.024037,0.023687
1706,-0.019652,0.024037,0.059847
1707,0.017426,0.005964,0.005607
1708,-0.019652,0.005964,-0.048632
1709,-0.001113,-0.01211,-0.012473
1710,-0.001113,0.005964,-0.030552
1711,-0.001113,-0.01211,-0.030552
1712,-0.001113,-0.01211,-0.030552
1713,-0.019652,0.005964,-0.012473
1714,-0.019652,0.024037,-0.030552
1715,-0.019652,0.005964,-0.012473
1716,-0.001113,0.04211,0.005607
1717,-0.019652,-0.01211,-0.012473
1718,-0.019652,0.005964,0.005607
1719,-0.019652,0.005964,0.005607
1720,-0.019652,0.005964,0.005607
1721,-0.019652,0.005964,0.005607
1722,-0.001113,0.005964,0.005607
1723,0.017426,0.005964,0.023687
1724,-0.001113,0.005964,0.005607
1725,0.017426,0.005964,0.005607
1726,-0.001113,0.005964,0.041767
1727,-0.019652,0.005964,0.023687
1728,-0.001113,0.005964,-0.012473
1729,-0.019652,0.005964,-0.012473
1730,-0.001113,0.024037,0.005607
1731,-0.019652,-0.01211,-0.012473
1732,-0.001113,0.024037,-0.012473
1733,-0.001113,0.024037,0.005607
1734,-0.001113,0.005964,0.005607
1735,-0.001113,0.005964,-0.012473
1736,-0.001113,0.024037,0.023687
1737,-0.019652,0.005964,0.023687
1738,-0.019652,-0.01211,0.041767
1739,-0.001113,0.005964,0.023687
1740,-0.001113,0.005964,0.005607
1741,0.017426,0.024037,-0.012473
1742,0.035965,0.024037,-0.012473
1743,0.017426,-0.01211,-0.012473
1744,0.017426,0.024037,0.005607
1745,-0.001113,0.024037,-0.030552
1746,-0.001113,0.005964,-0.048632
1747,-0.019652,0.005964,0.005607
1748,-0.019652,-0.01211,-0.030552
1749,-0.038191,0.005964,-0.012473
1750,-0.05673,0.005964,0.005607
1751,-0.001113,0.005964,0.023687
1752,-0.019652,0.024037,0.023687
1753,-0.001113,0.005964,0.005607
1754,-0.001113,0.024037,0.023687
1755,-0.001113,-0.01211,0.023687
1756,-0.019652,0.024037,-0.012473
1757,-0.001113,0.024037,0.023687
1758,-0.001113,-0.01211,0.005607
1759,0.017426,0.024037,-0.012473
1760,-0.001113,0.005964,-0.012473
1761,-0.001113,0.024037,0.023687
1762,-0.019652,0.005964,-0.030552
1763,-0.001113,-0.01211,-0.030552
1764,0.017426,0.005964,-0.030552
1765,-0.001113,0.024037,0.005607
1766,0.017426,0.024037,-0.012473
1767,-0.001113,0.024037,0.005607
1768,-0.001113,0.024037,0.041767
1769,-0.019652,0.005964,0.041767
1770,-0.001113,0.024037,0.005607
1771,-0.001113,0.005964,0.023687
1772,-0.001113,0.005964,0.023687
1773,-0.019652,0.005964,0.005607
1774,-0.001113,0.024037,-0.030552
1775,-0.038191,0.005964,0.005607
1776,0.035965,0.024037,0.005607
1777,0.035965,0.024037,0.005607
1778,0.035965,0.005964,-0.030552
1779,0.035965,0.024037,-0.012473
1780,-0.019652,0.005964,-0.012473
1781,-0.038191,-0.01211,-0.012473
1782,-0.019652,0.005964,-0.012473
1783,-0.05673,0.005964,0.005607
1784,0.017426,-0.01211,-0.012473
1785,-0.038191,0.005964,-0.012473
1786,-0.038191,0.024037,0.023687
1787,-0.001113,0.005964,0.041767
1788,-0.019652,0.005964,-0.012473
1789,-0.038191,0.005964,0.005607
1790,-0.038191,0.005964,0.023687
1791,0.017426,0.005964,-0.012473
1792,0.054504,0.024037,0.005607
1793,0.035965,0.024037,0.005607
1794,-0.001113,0.024037,-0.012473
1795,-0.001113,0.024037,-0.012473
1796,-0.001113,0.005964,-0.030552
1797,-0.001113,0.005964,-0.012473
1798,-0.019652,-0.01211,-0.048632
1799,-0.001113,0.005964,0.005607
1800,-0.001113,0.005964,0.023687
1801,-0.001113,0.005964,-0.012473
1802,-0.001113,0.024037,-0.012473
1803,0.017426,0.005964,0.005607
1804,-0.001113,0.005964,0.023687
1805,-0.019652,0.005964,0.005607
1806,-0.001113,0.005964,0.023687
1807,-0.001113,0.024037,0.023687
1808,-0.001113,0.005964,0.005607
1809,-0.019652,0.005964,-0.012473
1810,-0.001113,0.024037,0.023687
1811,-0.019652,0.024037,0.005607
1812,-0.019652,0.024037,-0.030552
1813,-0.001113,0.024037,-0.030552
1814,-0.019652,-0.01211,0.005607
1815,0.017426,0.024037,-0.012473
1816,0.017426,0.005964,-0.012473
1817,0.017426,-0.01211,0.005607
1818,-0.001113,0.005964,0.023687
1819,-0.001113,0.024037,-0.012473
1820,-0.001113,0.024037,0.005607
1821,-0.001113,0.005964,0.023687
1822,-0.001113,0.005964,0.005607
1823,-0.019652,0.005964,0.005607
1824,-0.038191,0.005964,0.005607
1825,-0.001113,0.04211,0.023687
1826,-0.019652,0.024037,0.005607
1827,-0.019652,-0.01211,-0.030552
1828,-0.019652,-0.01211,0.005607
1829,-0.001113,0.005964,-0.012473
1830,-0.001113,-0.01211,-0.012473
1831,0.017426,0.005964,-0.012473
1832,-0.001113,0.005964,-0.012473
1833,-0.001113,0.005964,-0.012473
1834,-0.019652,0.005964,0.005607
1835,-0.001113,0.005964,0.005607
1836,-0.001113,0.024037,-0.012473
1837,0.017426,0.024037,0.005607
1838,-0.001113,0.024037,0.041767
1839,-0.001113,0.005964,0.023687
1840,-0.019652,0.024037,0.005607
1841,0.017426,0.005964,-0.012473
1842,-0.001113,0.005964,0.023687
1843,-0.019652,-0.01211,0.005607
1844,-0.038191,0.024037,-0.012473
1845,0.017426,0.005964,0.005607
1846,-0.019652,0.005964,-0.012473
1847,-0.019652,-0.01211,-0.030552
1848,-0.038191,0.024037,-0.012473
1849,-0.019652,-0.01211,-0.012473
1850,-0.001113,0.005964,-0.030552
1851,-0.001113,0.005964,0.005607
1852,-0.001113,0.024037,0.023687
1853,-0.001113,0.005964,0.023687
1854,0.017426,0.005964,0.005607
1855,-0.019652,-0.01211,0.023687
1856,0.017426,0.024037,0.005607
1857,-0.001113,0.005964,0.005607
1858,-0.019652,0.005964,0.005607
1859,-0.019652,0.005964,0.005607
1860,-0.001113,-0.01211,0.005607
1861,-0.038191,0.005964,0.005607
1862,-0.001113,-0.01211,-0.012473
1863,-0.019652,-0.01211,0.005607
1864,-0.001113,-0.01211,0.005607
1865,-0.019652,0.005964,-0.012473
1866,0.017426,0.024037,0.005607
1867,-0.019652,0.024037,-0.012473
1868,-0.001113,0.024037,-0.012473
1869,0.035965,0.024037,0.005607
1870,-0.001113,0.005964,0.005607
1871,-0.001113,0.005964,0.005607
1872,-0.019652,-0.01211,-0.012473
1873,-0.001113,-0.01211,0.005607
1874,0.017426,0.005964,0.023687
1875,0.017426,0.005964,0.005607
1876,-0.019652,-0.01211,0.005607
1877,-0.019652,0.005964,0.005607
1878,-0.001113,0.024037,-0.012473
1879,-0.001113,0.005964,-0.012473
1880,0.017426,0.005964,-0.012473
1881,-0.001113,0.005964,-0.012473
1882,-0.001113,0.024037,-0.030552
1883,-0.001113,0.005964,0.005607
1884,-0.001113,0.005964,0.005607
1885,-0.001113,0.005964,-0.030552
1886,-0.001113,0.005964,-0.012473
1887,-0.001113,0.005964,0.005607
1888,-0.019652,0.005964,0.023687
1889,-0.001113,0.005964,-0.012473
1890,-0.019652,-0.01211,-0.012473
1891,-0.001113,0.005964,0.023687
1892,0.017426,-0.01211,0.023687
1893,-0.019652,0.005964,-0.012473
1894,-0.019652,0.005964,0.023687
1895,-0.001113,-0.01211,0.005607
1896,-0.019652,0.005964,-0.012473
1897,-0.019652,0.005964,-0.030552
1898,-0.019652,0.005964,0.005607
1899,-0.001113,0.005964,0.005607
1900,-0.001113,0.005964,-0.030552
1901,-0.001113,-0.01211,0.023687
1902,-0.019652,0.005964,-0.012473
1903,-0.001113,0.005964,-0.012473
1904,-0.001113,0.005964,0.023687
1905,-0.019652,0.005964,0.023687
1906,-0.001113,0.005964,0.005607
1907,-0.001113,0.005964,0.005607
1908,-0.001113,0.005964,0.023687
1909,-0.019652,0.005964,0.005607
1910,-0.019652,0.005964,0.005607
1911,-0.001113,0.005964,0.005607
1912,-0.019652,0.024037,-0.012473
1913,-0.001113,0.005964,0.005607
1914,-0.019652,0.005964,-0.012473
1915,-0.001113,0.005964,0.005607
1916,-0.019652,0.005964,-0.030552
1917,0.017426,0.005964,-0.012473
1918,0.035965,0.005964,0.005607
1919,-0.001113,0.005964,0.005607
1920,-0.001113,0.005964,-0.012473
1921,-0.001113,0.005964,-0.012473
1922,0.017426,-0.01211,0.023687
1923,-0.001113,0.005964,0.005607
1924,-0.001113,0.005964,0.005607
1925,-0.001113,0.024037,0.023687
1926,-0.001113,-0.01211,0.005607
1927,-0.001113,0.005964,-0.030552
1928,-0.001113,0.005964,-0.030552
1929,-0.001113,-0.01211,0.023687
1930,-0.019652,0.005964,-0.012473
1931,0.017426,0.024037,-0.030552
1932,-0.019652,0.024037,-0.012473
1933,-0.019652,0.005964,-0.030552
1934,-0.001113,0.005964,-0.012473
1935,-0.001113,-0.01211,0.005607
1936,-0.019652,-0.01211,0.005607
1937,-0.019652,0.024037,0.023687
1938,-0.019652,0.005964,0.005607
1939,-0.001113,0.005964,0.005607
1940,-0.001113,-0.01211,0.005607
1941,-0.001113,0.005964,0.005607
1942,-0.001113,0.005964,0.005607
1943,-0.001113,0.005964,0.005607
1944,-0.019652,-0.01211,-0.012473
1945,-0.001113,0.024037,0.005607
1946,-0.019652,0.005964,0.005607
1947,0.017426,-0.01211,0.005607
1948,-0.001113,0.024037,-0.012473
1949,-0.019652,0.024037,-0.030552
1950,0.017426,0.005964,0.005607
1951,0.017426,0.005964,-0.012473
1952,-0.001113,0.024037,0.005607
1953,-0.001113,0.005964,0.023687
1954,-0.001113,0.005964,0.041767
1955,0.017426,0.005964,0.005607
1956,-0.001113,0.005964,0.005607
1957,-0.019652,-0.01211,-0.012473
1958,-0.019652,-0.01211,-0.012473
1959,-0.019652,0.005964,-0.030552
1960,-0.001113,-0.01211,-0.012473
1961,0.017426,0.005964,0.005607
1962,0.017426,-0.01211,-0.012473
1963,0.017426,-0.01211,-0.012473
1964,-0.001113,0.005964,-0.012473
1965,-0.001113,0.024037,-0.030552
1966,-0.001113,0.005964,0.023687
1967,-0.019652,0.005964,0.005607
1968,-0.019652,0.024037,0.005607
1969,-0.019652,0.024037,0.005607
1970,-0.019652,-0.01211,0.005607
1971,-0.001113,0.024037,0.023687
1972,-0.019652,0.005964,0.023687
1973,-0.019652,0.005964,0.005607
1974,-0.001113,-0.01211,0.005607
1975,-0.019652,0.005964,-0.012473
1976,-0.019652,0.005964,0.005607
1977,-0.001113,-0.01211,0.023687
1978,0.035965,0.005964,0.005607
1979,-0.001113,-0.01211,-0.030552
1980,-0.019652,-0.01211,-0.030552
1981,-0.001113,0.005964,0.005607
1982,-0.001113,0.005964,-0.012473
1983,-0.001113,0.005964,-0.012473
1984,-0.001113,0.024037,-0.012473
1985,0.017426,-0.01211,0.005607
1986,-0.001113,0.005964,0.005607
1987,-0.001113,-0.01211,0.023687
1988,-0.001113,0.024037,0.041767
1989,0.017426,0.024037,0.023687
1990,-0.001113,0.005964,0.005607
1991,-0.001113,0.024037,0.041767
1992,-0.001113,0.024037,0.005607
1993,-0.019652,0.005964,-0.012473
1994,-0.019652,-0.01211,-0.030552
1995,-0.001113,0.024037,0.005607
1996,-0.001113,0.005964,0.005607
1997,-0.001113,-0.01211,-0.012473
1998,0.017426,-0.01211,0.023687
1999,-0.001113,0.024037,0.005607
2000,0.017426,0.024037,-0.012473
2001,-0.038191,-0.01211,-0.012473
2002,-0.001113,-0.01211,0.005607
2003,-0.019652,-0.01211,0.005607
2004,-0.001113,0.024037,0.005607
2005,-0.001113,0.005964,0.041767
2006,-0.019652,0.005964,0.005607
2007,-0.019652,0.005964,-0.012473
2008,0.017426,0.005964,0.023687
2009,-0.001113,-0.01211,0.005607
2010,-0.019652,0.024037,-0.012473
2011,-0.001113,0.005964,-0.030552
2012,-0.019652,0.005964,0.005607
2013,-0.001113,0.005964,-0.012473
2014,-0.001113,0.005964,-0.012473
2015,-0.019652,-0.01211,0.005607
2016,-0.038191,0.024037,0.005607
2017,-0.019652,-0.01211,-0.012473
2018,0.017426,0.005964,0.005607
2019,0.017426,0.024037,0.005607
2020,-0.001113,0.005964,0.005607
2021,-0.019652,0.005964,0.005607
2022,-0.001113,-0.01211,0.041767
2023,0.017426,0.005964,0.041767
2024,-0.019652,0.005964,-0.012473
2025,-0.038191,-0.01211,-0.030552
2026,-0.019652,0.024037,0.005607
2027,0.017426,0.005964,-0.030552
2028,-0.019652,0.005964,-0.012473
2029,-0.019652,-0.030183,-0.012473
2030,0.017426,0.005964,-0.012473
2031,-0.001113,-0.01211,-0.012473
2032,-0.019652,0.005964,0.005607
2033,-0.001113,0.024037,0.005607
2034,0.017426,0.005964,0.005607
2035,-0.001113,0.005964,0.005607
2036,-0.019652,0.005964,0.005607
2037,-0.001113,-0.01211,0.041767
2038,-0.001113,0.024037,0.005607
2039,0.017426,0.005964,0.023687
2040,-0.001113,-0.01211,0.023687
2041,-0.001113,0.005964,-0.012473
2042,-0.001113,0.005964,-0.012473
2043,-0.001113,0.005964,0.005607
2044,0.017426,0.005964,-0.012473
2045,-0.001113,-0.01211,-0.012473
2046,-0.001113,0.005964,-0.012473
2047,-0.001113,0.024037,0.023687
2048,0.017426,-0.01211,-0.030552
2049,-0.001113,0.04211,0.005607
2050,0.017426,0.024037,0.023687
2051,-0.019652,0.005964,0.023687
2052,-0.019652,0.005964,-0.012473
2053,-0.019652,0.005964,0.023687
2054,-0.019652,0.005964,0.023687
2055,-0.001113,0.024037,-0.012473
2056,-0.019652,0.005964,0.005607
2057,-0.001113,0.024037,0.023687
2058,-0.019652,0.024037,0.005607
2059,-0.019652,0.005964,0.005607
2060,-0.001113,0.005964,-0.030552
2061,-0.019652,-0.030183,-0.012473
2062,-0.001113,0.005964,-0.012473
2063,-0.019652,0.005964,0.005607
2064,-0.001113,-0.01211,-0.012473
2065,-0.001113,0.005964,-0.030552
2066,0.017426,0.005964,0.005607
2067,-0.019652,-0.01211,0.023687
2068,-0.001113,0.005964,0.005607
2069,-0.001113,0.005964,0.005607
2070,-0.001113,-0.030183,0.005607
2071,0.017426,0.005964,0.023687
2072,-0.001113,0.024037,0.005607
2073,-0.001113,0.005964,-0.012473
2074,-0.001113,0.005964,0.077927
2075,-0.001113,-0.01211,-0.048632
2076,-0.019652,-0.01211,-0.030552
2077,-0.001113,0.005964,-0.048632
2078,-0.001113,0.024037,-0.030552
2079,-0.001113,0.005964,-0.012473
2080,0.035965,0.024037,-0.012473
2081,-0.001113,-0.01211,0.005607
2082,-0.019652,0.005964,0.041767
2083,-0.001113,0.024037,0.005607
2084,0.035965,0.005964,0.041767
2085,-0.019652,0.005964,0.023687
2086,-0.019652,-0.01211,0.005607
2087,-0.001113,-0.01211,0.023687
2088,-0.001113,-0.01211,0.023687
2089,0.017426,0.005964,0.005607
2090,-0.019652,0.005964,-0.012473
2091,-0.001113,0.005964,-0.030552
2092,-0.019652,0.005964,-0.012473
2093,-0.001113,0.005964,0.005607
2094,0.017426,0.005964,-0.030552
2095,-0.001113,-0.01211,-0.012473
2096,-0.019652,0.005964,-0.030552
2097,-0.001113,0.024037,0.005607
2098,-0.001113,-0.01211,0.005607
2099,0.017426,-0.01211,0.023687
2100,-0.001113,0.005964,0.023687
2101,-0.001113,0.005964,0.005607
2102,-0.019652,-0.01211,0.041767
2103,-0.001113,0.005964,0.005607
2104,-0.001113,0.005964,0.005607
2105,-0.019652,0.005964,0.023687
2106,-0.001113,0.005964,-0.012473
2107,-0.001113,-0.01211,-0.012473
2108,-0.001113,-0.01211,-0.012473
2109,-0.001113,0.005964,0.005607
2110,-0.019652,0.005964,-0.012473
2111,-0.001113,0.005964,-0.048632
2112,-0.001113,0.005964,0.005607
2113,0.017426,0.005964,0.023687
2114,-0.001113,0.005964,-0.012473
2115,0.017426,0.005964,0.005607
2116,-0.019652,0.005964,0.005607
2117,-0.001113,0.005964,0.023687
2118,-0.019652,0.04211,0.005607
2119,0.017426,0.005964,0.023687
2120,-0.001113,0.024037,0.041767
2121,-0.001113,0.005964,0.005607
2122,-0.001113,0.005964,0.023687
2123,0.017426,0.005964,0.005607
2124,-0.019652,0.005964,0.005607
2125,0.017426,0.005964,-0.030552
2126,0.017426,0.024037,-0.030552
2127,-0.001113,0.005964,0.005607
2128,0.017426,0.005964,-0.048632
2129,-0.001113,0.024037,0.005607
2130,-0.001113,0.005964,0.023687
2131,0.017426,0.005964,-0.048632
2132,-0.001113,-0.01211,0.005607
2133,-0.001113,-0.01211,0.005607
2134,-0.001113,0.005964,0.023687
2135,-0.019652,0.005964,0.023687
2136,-0.019652,0.024037,0.023687
2137,-0.001113,0.005964,0.023687
2138,0.017426,0.024037,0.023687
2139,-0.019652,0.005964,0.005607
2140,-0.001113,0.005964,0.005607
2141,-0.001113,0.005964,-0.012473
2142,-0.019652,0.005964,-0.012473
2143,0.035965,-0.01211,-0.030552
2144,-0.038191,-0.01211,0.005607
2145,-0.019652,-0.01211,-0.012473
2146,0.017426,0.024037,0.005607
2147,-0.001113,0.024037,0.005607
2148,-0.001113,0.024037,0.023687
2149,-0.019652,-0.01211,-0.012473
2150,-0.001113,-0.01211,0.023687
2151,-0.019652,0.005964,0.041767
2152,-0.001113,0.005964,0.023687
2153,0.017426,-0.01211,0.023687
2154,0.017426,0.005964,0.041767
2155,0.017426,0.005964,0.005607
2156,-0.001113,-0.01211,-0.012473
2157,-0.001113,-0.01211,-0.030552
2158,-0.001113,-0.01211,-0.012473
2159,-0.001113,-0.01211,-0.030552
2160,-0.019652,-0.01211,-0.012473
2161,-0.001113,-0.01211,0.005607
2162,0.017426,0.005964,-0.030552
2163,-0.001113,0.024037,-0.012473
2164,-0.001113,0.005964,0.005607
2165,0.017426,0.005964,0.023687
2166,-0.001113,0.005964,-0.012473
2167,-0.038191,0.005964,0.023687
2168,-0.019652,0.005964,0.023687
2169,-0.001113,0.024037,-0.030552
2170,-0.001113,0.005964,-0.012473
2171,-0.001113,-0.01211,0.005607
2172,-0.001113,0.024037,-0.012473
2173,0.017426,0.005964,-0.012473
2174,-0.019652,-0.01211,-0.030552
2175,-0.019652,-0.01211,0.005607
2176,0.017426,0.005964,-0.012473
2177,-0.019652,0.024037,-0.012473
2178,0.017426,0.005964,0.005607
2179,-0.019652,0.005964,0.023687
2180,-0.001113,0.005964,0.005607
2181,-0.001113,-0.01211,0.023687
2182,-0.001113,0.005964,0.023687
2183,-0.001113,0.024037,0.005607
2184,-0.001113,0.005964,0.005607
2185,-0.001113,0.005964,0.023687
2186,-0.019652,0.005964,0.005607
2187,-0.019652,-0.01211,-0.012473
2188,-0.001113,0.005964,0.005607
2189,-0.019652,0.005964,0.005607
2190,-0.019652,0.005964,-0.030552
2191,0.017426,0.005964,-0.030552
2192,-0.001113,0.005964,0.005607
2193,-0.001113,-0.01211,-0.048632
2194,-0.001113,-0.01211,-0.012473
2195,-0.001113,0.024037,0.023687
2196,-0.001113,-0.01211,0.041767
2197,0.017426,0.005964,-0.012473
2198,0.017426,0.005964,0.023687
2199,-0.019652,-0.01211,0.041767
2200,-0.019652,0.005964,0.005607
2201,0.017426,0.005964,-0.012473
2202,-0.019652,-0.01211,0.023687
2203,-0.019652,0.005964,-0.012473
2204,-0.019652,-0.01211,-0.030552
2205,-0.019652,0.005964,-0.030552
2206,-0.019652,0.024037,-0.012473
2207,-0.001113,-0.01211,-0.030552
2208,-0.001113,0.005964,-0.030552
2209,-0.019652,0.005964,0.005607
2210,-0.019652,0.005964,-0.012473
2211,-0.001113,-0.01211,0.005607
2212,-0.001113,-0.01211,0.005607
2213,-0.001113,0.024037,0.023687
2214,-0.001113,-0.01211,0.023687
2215,-0.001113,0.005964,0.023687
2216,-0.001113,0.024037,0.023687
2217,-0.019652,0.005964,0.005607
2218,-0.001113,0.005964,0.005607
2219,0.017426,0.005964,0.023687
2220,-0.001113,-0.01211,0.005607
2221,-0.019652,0.005964,-0.012473
2222,0.017426,0.005964,-0.030552
2223,-0.001113,0.024037,0.005607
2224,-0.019652,0.005964,-0.012473
2225,-0.001113,0.005964,-0.030552
2226,0.017426,0.005964,0.005607
2227,-0.001113,0.005964,0.005607
2228,0.017426,0.005964,-0.030552
2229,-0.019652,-0.01211,0.005607
2230,-0.019652,0.005964,0.023687
2231,0.017426,0.005964,0.041767
2232,-0.001113,0.005964,0.005607
2233,-0.019652,0.005964,0.023687
2234,-0.001113,0.024037,0.023687
2235,0.017426,0.024037,0.005607
2236,-0.001113,0.005964,-0.030552
2237,-0.001113,0.005964,0.005607
2238,-0.038191,0.024037,0.005607
2239,-0.001113,0.005964,-0.030552
2240,-0.001113,0.024037,-0.012473
2241,-0.001113,0.005964,-0.012473
2242,-0.001113,-0.01211,-0.048632
2243,0.017426,0.005964,0.005607
2244,-0.001113,0.005964,0.023687
2245,-0.001113,-0.01211,0.023687
2246,0.017426,0.024037,-0.012473
2247,0.017426,0.005964,0.023687
2248,-0.001113,-0.01211,0.005607
2249,-0.001113,-0.01211,0.005607
2250,-0.019652,0.005964,0.023687
2251,0.017426,0.005964,0.023687
2252,-0.001113,0.005964,-0.012473
2253,0.017426,-0.01211,0.005607
2254,-0.019652,-0.01211,-0.012473
2255,-0.001113,0.005964,-0.030552
2256,-0.038191,0.024037,-0.012473
2257,-0.001113,-0.01211,-0.012473
2258,-0.001113,0.024037,-0.012473
2259,-0.001113,0.005964,-0.048632
2260,-0.001113,0.005964,-0.012473
2261,-0.001113,0.005964,0.005607
2262,-0.001113,-0.030183,0.023687
2263,-0.019652,0.005964,0.005607
2264,-0.001113,0.005964,0.023687
2265,-0.001113,0.005964,0.023687
2266,0.017426,-0.01211,0.005607
2267,0.017426,0.005964,0.005607
2268,-0.001113,0.005964,0.023687
2269,-0.001113,0.024037,0.005607
2270,-0.001113,0.005964,-0.030552
2271,-0.019652,0.005964,-0.030552
2272,-0.001113,0.005964,-0.012473
2273,-0.019652,-0.01211,-0.030552
2274,-0.019652,0.005964,-0.048632
2275,0.017426,0.005964,0.005607
2276,-0.001113,0.024037,-0.048632
2277,0.017426,-0.01211,0.005607
2278,-0.019652,0.005964,0.005607
2279,0.017426,0.005964,0.023687
2280,-0.019652,-0.01211,0.023687
2281,-0.001113,0.005964,0.041767
2282,0.017426,-0.01211,0.041767
2283,0.017426,0.005964,0.005607
2284,-0.001113,0.024037,0.005607
2285,-0.001113,0.005964,0.005607
2286,-0.001113,0.005964,0.005607
2287,0.017426,0.005964,-0.012473
2288,-0.038191,-0.01211,-0.030552
2289,-0.001113,0.005964,-0.012473
2290,-0.019652,0.005964,-0.030552
2291,-0.001113,0.005964,-0.012473
2292,-0.001113,0.005964,0.005607
2293,-0.019652,-0.01211,0.005607
2294,-0.019652,0.005964,0.005607
2295,-0.001113,0.005964,0.005607
2296,-0.001113,0.005964,0.023687
2297,-0.001113,-0.01211,0.023687
2298,-0.001113,0.005964,0.023687
2299,-0.001113,-0.01211,0.023687
2300,-0.019652,0.005964,0.023687
2301,-0.019652,0.005964,-0.012473
2302,0.017426,0.024037,-0.030552
2303,-0.001113,0.005964,0.005607
2304,-0.019652,0.005964,-0.030552
2305,-0.019652,0.024037,-0.012473
2306,0.017426,0.04211,0.005607
2307,0.017426,0.005964,-0.030552
2308,-0.001113,-0.030183,-0.012473
2309,-0.001113,-0.01211,0.005607
2310,-0.001113,-0.01211,0.023687
2311,0.017426,0.005964,0.023687
2312,-0.001113,0.005964,0.023687
2313,-0.001113,-0.01211,0.023687
2314,0.017426,0.005964,0.005607
2315,0.017426,0.005964,0.005607
2316,0.017426,-0.01211,0.023687
2317,-0.019652,0.005964,0.023687
2318,-0.001113,0.005964,-0.012473
2319,-0.001113,0.005964,-0.030552
2320,0.035965,0.024037,0.005607
2321,-0.019652,0.024037,0.005607
2322,0.017426,-0.030183,-0.030552
2323,-0.001113,0.005964,0.005607
2324,-0.001113,0.024037,0.005607
2325,-0.019652,0.024037,-0.012473
2326,-0.001113,-0.01211,0.005607
2327,-0.001113,-0.01211,0.023687
2328,-0.001113,0.005964,0.023687
2329,-0.001113,0.024037,0.005607
2330,-0.001113,0.005964,0.023687
2331,-0.001113,0.005964,0.005607
2332,-0.019652,0.024037,-0.012473
2333,-0.001113,0.024037,-0.030552
2334,-0.019652,-0.01211,0.005607
2335,-0.001113,0.005964,-0.012473
2336,-0.001113,0.005964,-0.030552
2337,-0.019652,-0.01211,0.005607
2338,-0.001113,0.005964,-0.012473
2339,-0.001113,0.024037,-0.030552
2340,-0.019652,-0.01211,0.005607
2341,-0.05673,0.005964,0.005607
2342,-0.001113,0.005964,-0.012473
2343,-0.001113,-0.01211,0.005607
2344,-0.001113,-0.01211,0.005607
2345,-0.001113,-0.01211,0.005607
2346,-0.001113,0.005964,0.023687
2347,-0.001113,0.005964,0.041767
2348,-0.001113,0.005964,0.005607
2349,-0.001113,0.005964,0.005607
2350,-0.001113,0.005964,0.005607
2351,-0.001113,0.005964,-0.012473
2352,0.035965,0.005964,-0.012473
2353,0.017426,0.024037,-0.030552
2354,-0.019652,0.005964,-0.012473
2355,-0.019652,0.005964,0.005607
2356,-0.001113,0.005964,-0.048632
2357,-0.001113,0.005964,-0.012473
2358,-0.001113,0.04211,0.023687
2359,-0.001113,0.005964,0.023687
2360,-0.001113,0.005964,-0.030552
2361,-0.001113,0.024037,0.005607
2362,0.017426,0.005964,0.041767
2363,0.017426,0.005964,0.005607
2364,0.017426,-0.01211,0.005607
2365,-0.019652,-0.030183,0.005607
2366,-0.019652,0.005964,0.005607
2367,-0.001113,0.005964,-0.012473
2368,-0.001113,0.024037,-0.012473
2369,-0.001113,0.024037,-0.012473
2370,-0.001113,0.005964,-0.012473
2371,0.017426,0.005964,0.005607
2372,-0.001113,0.005964,0.005607
2373,-0.001113,0.005964,-0.030552
2374,-0.038191,0.005964,-0.030552
2375,-0.001113,0.024037,0.023687
2376,-0.001113,0.005964,0.023687
2377,-0.001113,0.005964,-0.012473
2378,0.017426,0.005964,0.005607
2379,-0.001113,-0.01211,0.041767
2380,-0.001113,-0.01211,-0.012473
2381,0.017426,-0.01211,-0.012473
2382,-0.019652,0.024037,0.041767
2383,-0.038191,0.005964,0.005607
2384,-0.038191,0.005964,-0.012473
2385,-0.001113,0.005964,-0.030552
2386,-0.001113,0.005964,-0.012473
2387,-0.001113,0.005964,-0.012473
2388,-0.019652,0.005964,-0.012473
2389,-0.001113,0.005964,0.023687
2390,-0.019652,0.005964,0.023687
2391,-0.001113,-0.01211,-0.012473
2392,-0.019652,0.024037,-0.012473
2393,0.017426,0.005964,0.023687
2394,-0.001113,-0.01211,0.023687
2395,-0.001113,0.024037,0.005607
2396,-0.019652,0.005964,0.023687
2397,-0.019652,0.005964,0.005607
2398,-0.001113,0.005964,0.005607
2399,-0.001113,0.005964,-0.030552
2400,-0.001113,0.005964,0.005607
2401,-0.001113,0.005964,0.005607
2402,-0.001113,0.005964,-0.012473
2403,-0.019652,0.005964,-0.012473
2404,-0.001113,-0.01211,-0.012473
2405,-0.001113,0.005964,-0.012473
2406,0.017426,0.005964,0.005607
2407,-0.001113,0.005964,0.005607
2408,-0.001113,0.005964,-0.030552
2409,-0.019652,0.005964,-0.012473
2410,-0.001113,0.005964,0.023687
2411,-0.001113,-0.01211,0.041767
2412,-0.001113,0.024037,0.005607
2413,-0.001113,0.024037,0.005607
2414,-0.001113,0.005964,0.023687
2415,-0.019652,0.024037,0.005607
2416,-0.001113,0.005964,0.023687
2417,-0.019652,0.005964,0.041767
2418,-0.019652,0.024037,0.005607
2419,0.017426,0.005964,-0.030552
2420,-0.001113,0.005964,-0.012473
2421,0.017426,0.005964,-0.012473
2422,0.017426,0.005964,-0.030552
2423,-0.001113,0.005964,-0.012473
2424,0.091583,-0.01211,0.005607
2425,-0.001113,0.005964,0.005607
2426,-0.019652,0.005964,-0.012473
2427,-0.001113,0.005964,0.023687
2428,-0.038191,0.005964,0.023687
2429,0.017426,0.005964,0.005607
2430,-0.019652,-0.01211,0.005607
2431,-0.001113,0.005964,0.023687
2432,-0.001113,0.005964,0.005607
2433,-0.001113,0.024037,-0.012473
2434,0.017426,-0.01211,-0.012473
2435,-0.001113,0.024037,0.005607
2436,-0.001113,0.005964,-0.012473
2437,-0.019652,-0.01211,-0.012473
2438,-0.001113,0.005964,-0.012473
2439,-0.019652,0.005964,-0.012473
2440,-0.001113,-0.01211,-0.012473
2441,-0.001113,0.024037,0.023687
2442,-0.001113,0.024037,0.023687
2443,-0.001113,0.005964,0.023687
2444,0.017426,0.005964,0.005607
2445,-0.019652,-0.01211,0.023687
2446,0.017426,-0.01211,0.005607
2447,-0.001113,0.005964,0.005607
2448,0.017426,0.005964,0.023687
2449,0.017426,0.005964,0.005607
2450,-0.001113,0.005964,-0.012473
2451,-0.001113,0.005964,0.005607
2452,-0.001113,0.005964,0.005607
2453,-0.019652,0.024037,-0.012473
2454,-0.001113,0.005964,-0.030552
2455,-0.001113,0.005964,-0.012473
2456,-0.019652,-0.01211,0.023687
2457,-0.019652,-0.01211,-0.012473
2458,-0.001113,0.005964,0.005607
2459,-0.001113,0.005964,0.023687
2460,-0.001113,0.005964,0.023687
2461,-0.001113,0.024037,0.023687
2462,-0.001113,0.005964,0.005607
2463,-0.001113,0.005964,0.005607
2464,-0.001113,-0.01211,0.005607
2465,-0.019652,0.005964,0.005607
2466,-0.001113,0.024037,0.023687
2467,-0.001113,0.005964,-0.012473
2468,-0.001113,0.005964,-0.012473
2469,-0.001113,0.005964,-0.012473
2470,-0.001113,-0.030183,-0.012473
2471,-0.001113,0.005964,-0.012473
2472,-0.001113,0.024037,-0.012473
2473,0.017426,0.005964,0.005607
2474,-0.019652,0.005964,-0.030552
2475,-0.019652,0.005964,-0.012473
2476,-0.019652,0.005964,-0.012473
2477,-0.019652,-0.01211,0.023687
2478,0.017426,-0.01211,0.005607
2479,-0.001113,0.024037,0.023687
2480,-0.001113,0.005964,0.023687
2481,0.017426,0.024037,0.005607
2482,0.017426,0.005964,-0.012473
2483,-0.001113,0.005964,0.023687
2484,0.017426,0.005964,-0.012473
2485,-0.001113,0.005964,-0.030552
2486,-0.001113,0.005964,-0.012473
2487,-0.001113,-0.01211,-0.012473
2488,0.017426,0.005964,-0.030552
2489,-0.001113,0.024037,0.005607
2490,0.017426,0.005964,0.005607
2491,0.017426,0.005964,0.023687
2492,-0.019652,0.005964,0.005607
2493,-0.001113,-0.01211,-0.012473
2494,-0.001113,-0.01211,0.023687
2495,-0.001113,0.005964,0.005607
2496,-0.001113,0.005964,0.023687
2497,-0.019652,0.005964,0.041767
2498,-0.001113,0.024037,0.005607
2499,-0.019652,0.024037,-0.012473
2500,-0.001113,0.024037,-0.012473
2501,-0.019652,-0.01211,-0.012473
2502,-0.001113,0.005964,-0.012473
2503,0.017426,0.005964,-0.012473
2504,-0.001113,-0.01211,0.005607
2505,-0.001113,-0.030183,-0.048632
2506,-0.001113,0.005964,-0.030552
2507,-0.001113,0.024037,0.023687
2508,-0.001113,0.005964,0.005607
2509,0.017426,0.005964,-0.012473
2510,-0.019652,0.005964,0.023687
2511,-0.019652,0.005964,0.023687
2512,-0.019652,-0.01211,0.005607
2513,-0.001113,0.005964,0.005607
2514,-0.019652,-0.01211,0.023687
2515,-0.001113,0.024037,0.005607
2516,0.017426,0.024037,-0.012473
2517,-0.001113,-0.01211,-0.012473
2518,-0.001113,0.024037,-0.012473
2519,-0.001113,0.005964,0.005607
2520,0.017426,-0.01211,-0.012473
2521,-0.001113,-0.01211,-0.012473
2522,-0.001113,-0.01211,0.005607
2523,-0.001113,0.005964,-0.030552
2524,-0.019652,0.005964,0.005607
2525,-0.001113,0.005964,0.005607
2526,-0.001113,-0.01211,0.005607
2527,-0.001113,0.024037,0.005607
2528,-0.001113,0.024037,0.041767
2529,-0.019652,0.005964,0.023687
2530,-0.001113,0.005964,-0.012473
2531,-0.001113,0.005964,0.023687
2532,-0.001113,0.005964,0.005607
2533,-0.001113,0.005964,0.005607
2534,-0.001113,0.005964,-0.030552
2535,-0.019652,-0.01211,0.005607
2536,0.017426,0.005964,-0.030552
2537,-0.001113,0.005964,-0.030552
2538,-0.001113,0.005964,0.023687
2539,-0.019652,0.005964,0.023687
2540,-0.019652,-0.01211,-0.012473
2541,-0.001113,0.005964,0.005607
2542,-0.001113,0.005964,0.023687
2543,-0.019652,0.024037,0.023687
2544,0.017426,0.005964,0.023687
2545,-0.001113,-0.01211,0.023687
2546,-0.001113,0.005964,0.005607
2547,-0.001113,0.005964,-0.012473
2548,-0.001113,0.005964,-0.012473
2549,-0.001113,0.005964,0.005607
2550,-0.019652,0.005964,-0.012473
2551,-0.001113,0.005964,-0.030552
2552,-0.001113,0.005964,-0.012473
2553,-0.001113,0.005964,-0.012473
2554,-0.019652,-0.01211,-0.012473
2555,-0.001113,-0.01211,0.005607
2556,-0.019652,0.005964,0.005607
2557,-0.001113,0.005964,0.023687
2558,-0.019652,0.005964,-0.012473
2559,-0.019652,0.005964,0.023687
2560,-0.001113,0.005964,0.005607
2561,-0.001113,0.005964,0.005607
2562,-0.019652,0.024037,0.023687
2563,-0.001113,-0.01211,0.005607
2564,-0.001113,0.005964,0.005607
2565,-0.001113,0.005964,0.005607
2566,0.017426,0.005964,-0.030552
2567,0.017426,0.005964,0.005607
2568,-0.001113,0.024037,-0.012473
2569,-0.019652,0.005964,0.005607
2570,0.017426,0.024037,0.005607
2571,-0.001113,0.024037,-0.012473
2572,-0.001113,0.005964,-0.012473
2573,-0.001113,0.005964,0.023687
2574,-0.001113,0.005964,0.023687
2575,-0.019652,0.005964,0.005607
2576,-0.001113,0.024037,0.005607
2577,0.017426,0.005964,0.023687
2578,0.035965,0.005964,0.005607
2579,-0.019652,0.024037,0.005607
2580,-0.019652,0.024037,0.023687
2581,-0.019652,-0.01211,0.005607
2582,-0.001113,0.04211,-0.012473
2583,-0.001113,0.005964,-0.030552
2584,0.017426,0.024037,0.005607
2585,-0.001113,-0.01211,-0.012473
2586,-0.001113,-0.01211,-0.012473
2587,-0.001113,0.024037,0.005607
2588,-0.001113,0.005964,0.005607
2589,-0.001113,0.005964,-0.030552
2590,-0.038191,0.005964,0.005607
2591,-0.001113,0.005964,0.005607
2592,-0.001113,0.005964,-0.012473
2593,-0.001113,0.005964,0.023687
2594,-0.019652,0.005964,0.023687
2595,-0.001113,-0.01211,0.005607
2596,-0.019652,-0.01211,-0.012473
2597,-0.019652,-0.01211,-0.012473
2598,-0.001113,0.005964,-0.030552
2599,-0.001113,0.024037,0.005607
2600,-0.001113,0.060184,-0.012473
2601,0.017426,0.005964,0.005607
2602,-0.019652,0.005964,0.077927
2603,-0.001113,0.005964,-0.030552
2604,-0.001113,0.005964,-0.012473
2605,-0.001113,-0.030183,0.005607
2606,-0.001113,-0.01211,-0.030552
2607,-0.001113,0.005964,0.023687
2608,-0.001113,-0.01211,-0.012473
2609,-0.019652,0.005964,0.023687
2610,-0.019652,0.024037,-0.012473
2611,-0.001113,0.005964,0.023687
2612,-0.038191,0.005964,0.023687
2613,-0.001113,0.024037,0.005607
2614,-0.001113,0.024037,-0.012473
2615,-0.001113,0.024037,0.005607
2616,0.017426,0.005964,-0.012473
2617,-0.001113,0.005964,-0.012473
2618,-0.001113,0.005964,0.005607
2619,0.035965,0.005964,0.005607
2620,0.017426,0.005964,-0.030552
2621,-0.019652,0.005964,0.005607
2622,-0.001113,0.005964,0.005607
2623,-0.001113,0.005964,0.023687
2624,-0.001113,-0.01211,-0.012473
2625,-0.001113,0.005964,0.023687
2626,-0.001113,0.005964,0.023687
2627,-0.019652,0.005964,0.005607
2628,-0.019652,0.024037,0.005607
2629,0.017426,0.005964,0.005607
2630,-0.001113,0.005964,0.005607
2631,0.017426,0.005964,0.005607
2632,-0.001113,-0.01211,-0.030552
2633,-0.001113,0.024037,0.005607
2634,-0.001113,0.005964,-0.012473
2635,-0.019652,-0.01211,0.005607
2636,-0.019652,0.005964,0.005607
2637,-0.001113,0.005964,-0.012473
2638,-0.019652,0.005964,-0.012473
2639,-0.019652,0.005964,0.005607
2640,-0.019652,0.005964,0.023687
2641,-0.001113,0.024037,0.023687
2642,-0.019652,0.005964,0.023687
2643,-0.001113,-0.01211,0.005607
2644,0.017426,0.005964,0.005607
2645,-0.001113,0.005964,0.005607
2646,-0.019652,0.024037,0.077927
2647,-0.019652,0.005964,0.005607
2648,-0.019652,0.005964,-0.012473
2649,-0.001113,0.005964,-0.012473
2650,-0.001113,0.005964,0.023687
2651,-0.001113,-0.01211,0.005607
2652,-0.038191,0.005964,-0.012473
2653,-0.019652,0.005964,0.005607
2654,-0.019652,0.024037,0.023687
2655,0.035965,0.005964,-0.030552
2656,-0.019652,0.005964,0.005607
2657,0.017426,0.005964,0.005607
2658,-0.001113,0.005964,0.041767
2659,-0.001113,0.005964,0.005607
2660,-0.019652,0.005964,0.023687
2661,-0.001113,0.005964,0.023687
2662,-0.019652,0.005964,0.005607
2663,-0.001113,0.024037,-0.012473
2664,-0.019652,-0.01211,0.023687
2665,-0.001113,0.005964,0.005607
2666,-0.001113,0.024037,-0.012473
2667,0.017426,0.024037,0.005607
2668,-0.001113,0.005964,0.005607
2669,-0.001113,0.005964,-0.012473
2670,-0.001113,0.005964,0.005607
2671,-0.019652,0.005964,0.005607
2672,-0.001113,0.005964,-0.030552
2673,-0.001113,0.005964,-0.012473
2674,0.017426,0.005964,0.041767
2675,-0.001113,0.005964,0.005607
2676,-0.001113,0.005964,0.005607
2677,-0.001113,-0.01211,0.041767
2678,-0.001113,0.005964,0.023687
2679,-0.019652,-0.01211,-0.012473
2680,-0.001113,0.005964,-0.012473
2681,-0.001113,-0.01211,0.023687
2682,-0.001113,0.005964,0.005607
2683,-0.001113,0.005964,-0.012473
2684,0.017426,-0.01211,-0.012473
2685,-0.001113,0.005964,0.023687
2686,-0.019652,0.005964,-0.030552
2687,-0.019652,0.024037,-0.012473
2688,-0.001113,0.005964,0.005607
2689,-0.019652,-0.01211,0.005607
2690,-0.001113,0.04211,0.005607
2691,-0.001113,0.005964,-0.012473
2692,-0.019652,0.005964,0.005607
2693,0.017426,0.005964,0.005607
2694,0.017426,0.005964,0.005607
2695,-0.001113,0.005964,0.023687
2696,-0.001113,0.005964,0.023687
2697,-0.001113,0.005964,0.005607
2698,0.017426,0.024037,-0.012473
2699,0.017426,0.005964,0.005607
2700,-0.019652,0.024037,-0.012473
2701,-0.001113,0.024037,-0.030552
2702,-0.019652,0.005964,0.005607
2703,-0.001113,0.024037,0.005607
2704,-0.001113,-0.01211,-0.048632
2705,-0.001113,0.005964,0.005607
2706,-0.001113,0.005964,0.005607
2707,-0.019652,0.005964,0.041767
2708,-0.001113,-0.01211,0.005607
2709,-0.001113,0.005964,0.023687
2710,0.017426,0.005964,0.023687
2711,-0.001113,-0.01211,0.005607
2712,-0.001113,0.024037,0.023687
2713,-0.001113,0.005964,0.005607
2714,-0.001113,0.005964,0.005607
2715,-0.001113,0.024037,0.005607
2716,0.017426,0.005964,0.005607
2717,-0.001113,0.024037,0.005607
2718,-0.019652,0.005964,0.005607
2719,-0.019652,0.005964,0.005607
2720,-0.019652,0.005964,0.005607
2721,-0.019652,-0.01211,-0.030552
2722,-0.001113,-0.030183,0.005607
2723,-0.019652,0.005964,0.023687
2724,-0.001113,0.024037,0.023687
2725,-0.001113,0.005964,0.005607
2726,-0.001113,0.005964,0.005607
2727,-0.019652,0.024037,0.041767
2728,0.017426,0.005964,0.023687
2729,0.017426,0.005964,0.005607
2730,-0.019652,0.005964,0.023687
2731,-0.001113,-0.030183,-0.012473
2732,-0.001113,0.005964,-0.012473
2733,-0.001113,0.005964,-0.012473
2734,0.017426,0.024037,-0.012473
2735,-0.001113,0.005964,-0.012473
2736,-0.001113,0.005964,-0.012473
2737,0.017426,0.005964,0.005607
2738,0.017426,-0.01211,0.005607
2739,-0.001113,0.005964,-0.012473
2740,-0.019652,0.005964,0.023687
2741,-0.001113,0.005964,0.005607
2742,-0.019652,-0.01211,0.005607
2743,-0.001113,0.005964,0.023687
2744,-0.001113,-0.01211,0.023687
2745,-0.001113,0.024037,0.005607
2746,-0.019652,0.024037,0.005607
2747,0.017426,-0.01211,0.023687
2748,-0.019652,0.005964,0.005607
2749,-0.001113,0.005964,-0.012473
2750,0.017426,0.005964,-0.012473
2751,-0.001113,0.005964,0.005607
2752,0.017426,-0.01211,-0.030552
2753,-0.001113,-0.01211,-0.030552
2754,0.017426,0.005964,0.005607
2755,-0.001113,0.005964,0.005607
2756,-0.019652,0.005964,-0.012473
2757,-0.001113,0.005964,0.023687
2758,0.017426,0.024037,0.023687
2759,0.017426,0.005964,0.023687
2760,-0.001113,0.024037,0.005607
2761,-0.001113,0.024037,0.005607
2762,0.017426,0.005964,0.005607
2763,-0.019652,0.005964,-0.012473
2764,-0.001113,0.005964,0.005607
2765,-0.001113,0.005964,0.005607
2766,-0.019652,0.005964,0.023687
2767,-0.019652,0.005964,0.023687
2768,-0.001113,0.005964,0.005607
2769,-0.001113,0.005964,-0.012473
2770,-0.001113,0.005964,-0.030552
2771,-0.019652,0.005964,0.005607
2772,-0.001113,0.005964,0.005607
2773,-0.001113,0.005964,0.005607
2774,-0.001113,-0.01211,0.005607
2775,0.017426,0.024037,0.023687
2776,-0.019652,-0.01211,0.023687
2777,-0.001113,0.024037,0.023687
2778,-0.001113,0.005964,0.005607
2779,-0.001113,-0.01211,0.041767
2780,-0.019652,-0.01211,0.005607
2781,0.017426,0.005964,0.005607
2782,-0.019652,0.005964,0.023687
2783,-0.001113,0.024037,0.005607
2784,-0.001113,-0.01211,-0.012473
2785,-0.001113,0.024037,-0.030552
2786,-0.001113,-0.01211,0.005607
2787,-0.001113,0.024037,-0.012473
2788,-0.001113,0.005964,-0.030552
2789,-0.001113,-0.01211,0.005607
2790,-0.001113,-0.01211,0.005607
2791,-0.001113,-0.01211,-0.012473
2792,-0.001113,0.005964,-0.012473
2793,-0.001113,0.005964,0.023687
2794,0.017426,0.024037,0.023687
2795,-0.001113,0.005964,0.005607
2796,-0.019652,0.005964,0.023687
2797,-0.019652,-0.01211,0.005607
2798,-0.001113,0.005964,0.005607
2799,-0.001113,0.005964,-0.012473
2800,0.017426,0.024037,0.041767
2801,-0.001113,0.005964,0.005607
2802,0.017426,0.005964,-0.012473
2803,-0.001113,0.005964,0.005607
2804,-0.001113,0.005964,0.005607
2805,-0.001113,0.005964,-0.048632
2806,-0.001113,0.005964,-0.012473
2807,-0.001113,0.005964,0.023687
2808,-0.001113,0.005964,0.041767
2809,-0.001113,0.024037,0.005607
2810,-0.001113,0.024037,0.023687
2811,-0.001113,0.005964,0.041767
2812,-0.001113,0.024037,0.005607
2813,-0.019652,0.005964,0.041767
2814,-0.019652,0.024037,0.005607
2815,-0.001113,-0.01211,-0.012473
2816,-0.001113,0.024037,-0.012473
2817,-0.001113,0.005964,-0.030552
2818,0.017426,0.005964,-0.012473
2819,0.017426,0.024037,-0.012473
2820,-0.038191,0.005964,0.005607
2821,-0.038191,0.005964,0.023687
2822,0.017426,0.005964,-0.012473
2823,0.017426,0.005964,0.005607
2824,-0.019652,-0.01211,0.005607
2825,0.017426,0.005964,0.005607
2826,-0.001113,-0.01211,0.005607
2827,-0.001113,-0.01211,0.023687
2828,-0.001113,0.005964,0.041767
2829,0.017426,0.024037,-0.012473
2830,-0.001113,-0.01211,-0.012473
2831,-0.001113,0.005964,0.023687
2832,-0.001113,0.005964,0.005607
2833,-0.019652,0.005964,0.005607
2834,-0.001113,0.005964,-0.012473
2835,-0.001113,0.005964,0.023687
2836,-0.019652,0.005964,-0.030552
2837,-0.001113,0.005964,-0.012473
2838,-0.001113,0.005964,0.005607
2839,-0.019652,0.024037,0.023687
2840,-0.019652,0.005964,0.005607
2841,-0.001113,0.024037,0.005607
2842,-0.019652,0.005964,0.005607
2843,-0.001113,0.005964,0.023687
2844,-0.001113,0.005964,0.077927
2845,-0.001113,0.024037,0.059847
2846,0.017426,0.005964,0.023687
2847,-0.001113,0.04211,-0.012473
2848,-0.001113,0.005964,0.023687
2849,-0.001113,-0.01211,0.023687
2850,-0.001113,0.005964,-0.012473
2851,-0.001113,0.024037,-0.030552
2852,-0.001113,-0.01211,-0.012473
2853,-0.019652,0.024037,-0.012473
2854,-0.001113,0.024037,-0.030552
2855,-0.001113,0.005964,0.005607
2856,-0.001113,0.005964,0.023687
2857,-0.001113,-0.030183,-0.012473
2858,-0.001113,-0.01211,0.005607
2859,-0.019652,0.024037,0.005607
2860,-0.001113,0.005964,0.023687
2861,-0.001113,0.005964,0.005607
2862,0.017426,-0.01211,0.023687
2863,-0.001113,-0.01211,0.005607
2864,0.017426,0.005964,0.005607
2865,-0.001113,0.005964,0.005607
2866,-0.001113,0.005964,0.077927
2867,-0.001113,0.005964,-0.012473
2868,-0.001113,-0.01211,-0.012473
2869,-0.001113,0.024037,0.005607
2870,-0.001113,0.024037,0.005607
2871,-0.001113,0.024037,-0.012473
2872,-0.001113,0.005964,-0.012473
2873,-0.001113,0.005964,0.005607
2874,-0.038191,0.024037,0.023687
2875,-0.019652,0.024037,-0.012473
2876,0.017426,0.005964,0.005607
2877,-0.001113,0.005964,0.023687
2878,-0.001113,0.005964,0.005607
2879,-0.001113,0.005964,0.023687
2880,-0.019652,0.005964,0.023687
2881,-0.001113,0.005964,-0.012473
2882,-0.001113,0.005964,-0.012473
2883,-0.038191,0.024037,-0.012473
2884,0.017426,0.024037,0.005607
2885,0.017426,0.024037,-0.012473
2886,-0.019652,0.005964,-0.012473
2887,-0.019652,0.005964,-0.012473
2888,-0.019652,-0.01211,-0.012473
2889,-0.001113,0.005964,-0.030552
2890,-0.001113,-0.01211,0.005607
2891,0.017426,-0.01211,0.023687
2892,-0.001113,-0.048257,-0.012473
2893,0.017426,0.024037,0.005607
2894,-0.001113,0.005964,0.023687
2895,-0.038191,0.005964,0.023687
2896,-0.001113,0.005964,-0.012473
2897,-0.001113,0.024037,0.023687
2898,-0.001113,0.005964,0.023687
2899,-0.001113,-0.01211,0.005607
2900,0.017426,0.005964,-0.012473
2901,-0.001113,0.005964,0.005607
2902,-0.001113,0.005964,0.005607
2903,-0.001113,0.005964,0.005607
2904,-0.038191,0.024037,0.005607
2905,-0.038191,0.005964,0.005607
2906,-0.038191,0.005964,-0.030552
2907,-0.001113,-0.01211,0.005607
2908,-0.038191,0.005964,0.005607
2909,0.017426,0.024037,0.005607
2910,-0.001113,0.005964,-0.012473
2911,-0.001113,-0.01211,0.041767
2912,-0.001113,0.005964,0.023687
2913,-0.001113,0.024037,-0.012473
2914,-0.019652,0.005964,0.005607
2915,-0.019652,-0.01211,0.005607
2916,-0.001113,0.005964,0.023687
2917,-0.001113,0.005964,0.005607
2918,-0.001113,0.005964,-0.012473
2919,-0.001113,0.005964,0.005607
2920,-0.001113,0.024037,-0.012473
2921,-0.001113,0.005964,-0.030552
2922,-0.001113,0.005964,-0.012473
2923,0.017426,0.005964,-0.030552
2924,-0.001113,0.005964,-0.030552
2925,0.017426,0.005964,-0.012473
2926,-0.001113,-0.01211,0.005607
2927,-0.019652,0.005964,0.023687
2928,-0.001113,0.005964,0.005607
2929,-0.001113,-0.01211,0.005607
2930,-0.001113,0.024037,0.023687
2931,0.017426,0.024037,0.005607
2932,-0.019652,0.005964,0.023687
2933,-0.001113,0.024037,0.005607
2934,-0.001113,0.005964,-0.012473
2935,-0.019652,0.024037,0.005607
2936,-0.038191,0.005964,-0.012473
2937,-0.001113,0.005964,-0.012473
2938,0.017426,0.005964,-0.048632
2939,-0.019652,0.005964,-0.012473
2940,-0.001113,0.005964,0.023687
2941,-0.019652,0.005964,-0.030552
2942,-0.019652,-0.01211,0.005607
2943,-0.019652,0.005964,0.005607
2944,-0.001113,0.024037,0.023687
2945,-0.019652,0.005964,0.005607
2946,-0.001113,0.005964,0.005607
2947,-0.019652,-0.030183,0.023687
2948,-0.001113,0.005964,0.023687
2949,0.017426,-0.01211,-0.012473
2950,-0.019652,-0.01211,0.005607
2951,-0.001113,-0.01211,0.005607
2952,-0.001113,0.005964,-0.012473
2953,0.017426,0.005964,-0.012473
2954,-0.001113,0.005964,0.005607
2955,-0.001113,0.005964,-0.012473
2956,0.017426,0.005964,-0.012473
2957,-0.001113,0.024037,0.005607
2958,-0.001113,-0.01211,-0.030552
2959,-0.001113,0.005964,-0.012473
2960,-0.001113,0.005964,0.023687
2961,-0.001113,0.005964,0.041767
2962,-0.001113,0.005964,0.023687
2963,-0.001113,0.024037,0.005607
2964,-0.019652,0.005964,0.023687
2965,0.017426,0.005964,0.023687
2966,-0.001113,0.024037,-0.012473
2967,-0.001113,0.005964,0.005607
2968,-0.001113,0.005964,-0.012473
2969,-0.001113,0.005964,0.023687
2970,-0.019652,0.005964,-0.030552
2971,-0.038191,0.024037,-0.012473
2972,-0.001113,0.005964,-0.030552
2973,-0.001113,0.024037,-0.012473
2974,0.017426,0.005964,-0.012473
2975,-0.019652,0.024037,0.005607
2976,-0.001113,0.005964,0.005607
2977,-0.001113,-0.01211,0.023687
2978,-0.001113,0.005964,0.005607
2979,-0.001113,0.005964,0.023687
2980,-0.001113,0.005964,0.005607
2981,0.017426,0.024037,0.023687
2982,-0.001113,0.005964,0.023687
2983,-0.001113,0.005964,0.005607
2984,-0.001113,-0.01211,0.005607
2985,-0.001113,0.005964,0.005607
2986,-0.001113,0.005964,0.005607
2987,-0.001113,0.005964,-0.030552
2988,0.017426,-0.01211,0.005607
2989,-0.001113,0.005964,-0.012473
2990,-0.019652,-0.01211,-0.012473
2991,-0.001113,0.04211,-0.012473
2992,-0.038191,0.096331,0.005607
2993,-0.001113,0.005964,0.041767
2994,-0.001113,0.024037,0.005607
2995,-0.001113,0.005964,0.023687
2996,-0.001113,0.005964,0.023687
2997,0.017426,-0.01211,0.005607
2998,0.017426,-0.01211,0.023687
2999,-0.001113,0.005964,0.005607
3000,-0.001113,0.024037,-0.012473
3001,0.017426,0.005964,-0.012473
3002,-0.019652,0.005964,0.005607
3003,0.017426,0.024037,-0.012473
3004,-0.001113,-0.01211,-0.012473
3005,-0.001113,0.005964,-0.012473
3006,-0.019652,-0.01211,0.005607
3007,0.035965,0.005964,-0.012473
3008,-0.019652,0.024037,-0.012473
3009,-0.001113,0.024037,0.023687
3010,-0.019652,0.005964,0.023687
3011,-0.001113,0.005964,0.005607
3012,-0.019652,-0.01211,-0.012473
3013,-0.001113,-0.01211,0.023687
3014,-0.001113,0.005964,0.005607
3015,-0.001113,0.024037,0.005607
3016,-0.001113,0.005964,0.023687
3017,0.017426,0.024037,0.023687
3018,-0.001113,-0.01211,-0.012473
3019,-0.019652,-0.01211,-0.030552
3020,-0.001113,0.005964,0.005607
3021,-0.001113,-0.01211,-0.012473
3022,-0.001113,-0.01211,-0.048632
3023,-0.001113,0.005964,0.023687
3024,-0.001113,0.005964,-0.012473
3025,-0.001113,0.024037,-0.030552
3026,-0.001113,0.005964,0.005607
3027,0.017426,0.005964,0.023687
3028,-0.001113,0.005964,0.041767
3029,-0.001113,-0.01211,0.023687
3030,-0.001113,0.005964,0.005607
3031,-0.019652,0.024037,0.005607
3032,-0.001113,0.024037,-0.012473
3033,-0.019652,0.024037,0.041767
3034,-0.001113,0.005964,0.005607
3035,-0.001113,0.04211,-0.012473
3036,0.017426,0.005964,0.005607
3037,-0.001113,0.005964,0.005607
3038,-0.001113,-0.01211,-0.012473
3039,-0.019652,-0.01211,-0.030552
3040,-0.001113,0.005964,-0.012473
3041,-0.019652,-0.01211,0.005607
3042,-0.001113,-0.01211,-0.030552
3043,-0.001113,0.024037,-0.012473
3044,-0.019652,0.024037,0.005607
3045,-0.001113,0.005964,0.023687
3046,-0.001113,0.024037,-0.012473
3047,0.017426,0.024037,0.023687
3048,-0.001113,0.005964,0.041767
3049,-0.001113,-0.01211,0.005607
3050,-0.019652,0.024037,-0.012473
3051,-0.019652,0.005964,0.005607
3052,-0.019652,0.005964,-0.012473
3053,-0.019652,-0.01211,-0.030552
3054,-0.001113,-0.01211,-0.030552
3055,-0.001113,0.005964,0.005607
3056,0.017426,0.005964,-0.012473
3057,-0.001113,0.005964,-0.012473
3058,0.017426,0.005964,0.023687
3059,-0.001113,0.005964,0.005607
3060,0.017426,0.005964,-0.030552
3061,-0.001113,-0.01211,0.005607
3062,0.017426,0.024037,0.023687
3063,-0.001113,0.005964,0.005607
3064,-0.019652,0.005964,0.023687
3065,-0.019652,0.005964,0.041767
3066,0.017426,0.024037,0.005607
3067,-0.019652,-0.01211,0.005607
3068,-0.001113,0.005964,0.023687
3069,-0.001113,0.005964,0.005607
3070,-0.019652,0.005964,-0.012473
3071,-0.019652,0.024037,-0.012473
3072,-0.019652,0.005964,-0.012473
3073,-0.019652,-0.030183,-0.012473
3074,-0.001113,0.005964,-0.012473
3075,-0.001113,-0.01211,0.005607
3076,0.017426,0.005964,0.005607
3077,-0.019652,0.005964,-0.012473
3078,-0.001113,0.024037,0.005607
3079,-0.001113,0.005964,0.023687
3080,-0.001113,0.005964,0.023687
3081,-0.001113,0.024037,0.023687
3082,-0.001113,0.005964,0.023687
3083,-0.019652,0.024037,0.023687
3084,-0.019652,0.005964,0.005607
3085,-0.001113,-0.01211,-0.012473
3086,-0.001113,-0.01211,0.023687
3087,-0.019652,0.024037,-0.012473
3088,-0.001113,0.005964,-0.012473
3089,-0.001113,0.005964,-0.012473
3090,-0.001113,0.005964,-0.012473
3091,-0.019652,0.005964,-0.012473
3092,-0.019652,0.005964,-0.012473
3093,-0.001113,0.005964,0.005607
3094,-0.001113,-0.01211,0.023687
3095,-0.001113,-0.030183,0.005607
3096,0.017426,0.024037,0.023687
3097,-0.019652,0.005964,0.023687
3098,-0.001113,0.005964,0.005607
3099,0.017426,-0.01211,0.023687
3100,-0.019652,0.005964,0.023687
3101,-0.019652,0.005964,0.005607
3102,-0.001113,0.005964,-0.012473
3103,-0.019652,-0.01211,-0.030552
3104,-0.001113,0.024037,0.005607
3105,-0.019652,0.024037,-0.012473
3106,0.017426,0.005964,-0.012473
3107,-0.019652,0.024037,0.005607
3108,0.017426,0.024037,-0.012473
3109,-0.019652,0.024037,-0.012473
3110,0.017426,0.024037,0.005607
3111,-0.001113,0.024037,0.041767
3112,-0.001113,0.005964,0.005607
3113,-0.001113,0.005964,0.023687
3114,-0.001113,0.005964,0.023687
3115,-0.019652,0.005964,0.005607
3116,-0.001113,0.005964,0.005607
3117,-0.019652,-0.01211,0.041767
3118,-0.001113,0.005964,0.005607
3119,-0.001113,-0.01211,-0.012473
3120,-0.001113,-0.01211,-0.030552
3121,0.017426,0.005964,0.005607
3122,0.017426,0.024037,-0.030552
3123,-0.019652,0.024037,-0.030552
3124,-0.001113,0.005964,0.005607
3125,-0.001113,0.005964,0.005607
3126,0.017426,0.005964,0.005607
3127,-0.001113,0.005964,-0.012473
3128,-0.019652,0.005964,0.023687
3129,-0.001113,0.005964,0.023687
3130,-0.019652,0.005964,0.023687
3131,-0.019652,-0.01211,0.041767
3132,0.017426,0.005964,0.023687
3133,-0.001113,0.005964,0.023687
3134,-0.001113,0.005964,0.023687
3135,0.017426,0.005964,0.005607
3136,-0.019652,0.005964,0.005607
3137,-0.001113,0.005964,-0.012473
3138,-0.001113,0.005964,0.005607
3139,-0.001113,0.005964,0.005607
3140,-0.019652,0.005964,-0.030552
3141,-0.019652,0.005964,-0.012473
3142,-0.038191,0.005964,0.005607
3143,-0.05673,0.005964,-0.012473
3144,-0.001113,0.005964,0.005607
3145,-0.001113,0.005964,0.005607
3146,-0.019652,0.024037,0.023687
3147,0.035965,0.024037,0.005607
3148,-0.001113,0.005964,0.023687
3149,-0.001113,0.005964,0.023687
3150,-0.001113,0.024037,0.005607
3151,-0.019652,0.005964,-0.012473
3152,-0.019652,0.005964,0.005607
3153,-0.019652,0.005964,-0.012473
3154,-0.038191,0.005964,-0.030552
3155,-0.001113,-0.01211,-0.030552
3156,-0.001113,-0.01211,-0.012473
3157,0.017426,0.005964,-0.030552
3158,-0.001113,0.005964,0.023687
3159,-0.019652,0.005964,0.023687
3160,-0.001113,0.005964,0.041767
3161,0.017426,0.005964,-0.012473
3162,0.017426,0.005964,0.023687
3163,-0.001113,0.005964,0.005607
3164,0.017426,0.024037,0.023687
3165,-0.001113,0.005964,0.041767
3166,-0.001113,0.005964,0.023687
3167,-0.001113,0.024037,0.005607
3168,-0.001113,0.005964,-0.012473
3169,-0.001113,-0.01211,-0.030552
3170,-0.001113,-0.01211,-0.012473
3171,-0.019652,-0.01211,-0.012473
3172,-0.019652,0.005964,-0.012473
3173,-0.001113,0.005964,0.005607
3174,-0.019652,-0.01211,-0.030552
3175,-0.019652,-0.01211,-0.012473
3176,-0.001113,0.005964,0.023687
3177,-0.001113,0.005964,0.023687
3178,-0.019652,0.005964,0.005607
3179,-0.019652,0.005964,0.005607
3180,-0.001113,0.024037,0.023687
3181,-0.001113,0.005964,0.005607
3182,-0.019652,0.005964,-0.012473
3183,-0.001113,0.005964,0.005607
3184,-0.001113,0.005964,0.005607
3185,-0.019652,0.005964,0.005607
3186,-0.019652,-0.01211,-0.030552
3187,0.017426,-0.030183,0.005607
3188,0.017426,0.024037,-0.030552
3189,-0.001113,0.005964,-0.030552
3190,-0.001113,0.005964,0.005607
3191,-0.019652,-0.01211,0.023687
3192,-0.019652,0.024037,0.005607
3193,-0.001113,0.005964,0.023687
3194,-0.001113,0.005964,0.005607
3195,-0.019652,-0.01211,0.005607
3196,-0.001113,0.005964,0.005607
3197,-0.001113,0.005964,0.023687
3198,-0.001113,0.005964,0.005607
3199,0.017426,0.024037,-0.012473
3200,-0.019652,0.005964,0.023687
3201,-0.001113,0.005964,0.005607
3202,-0.001113,-0.01211,-0.012473
3203,-0.019652,-0.01211,-0.030552
3204,-0.001113,0.005964,0.005607
3205,0.017426,0.005964,-0.012473
3206,-0.001113,0.005964,-0.030552
3207,-0.001113,0.005964,0.005607
3208,0.017426,0.005964,0.023687
3209,-0.001113,0.04211,-0.012473
3210,-0.001113,0.005964,0.023687
3211,-0.019652,0.005964,0.005607
3212,-0.001113,-0.01211,0.041767
3213,-0.019652,0.005964,0.005607
3214,0.017426,0.005964,0.023687
3215,-0.001113,0.005964,0.023687
3216,0.017426,0.005964,0.005607
3217,-0.001113,0.005964,-0.012473
3218,-0.001113,0.005964,0.005607
3219,-0.019652,-0.01211,-0.030552
3220,-0.001113,0.005964,-0.012473
3221,-0.019652,0.005964,0.005607
3222,0.017426,0.005964,-0.030552
3223,0.017426,0.005964,-0.030552
3224,-0.001113,0.005964,0.005607
3225,-0.001113,0.005964,0.005607
3226,-0.001113,0.005964,0.023687
3227,-0.001113,0.024037,0.005607
3228,-0.038191,-0.01211,0.023687
3229,-0.001113,0.024037,0.023687
3230,-0.001113,0.005964,0.005607
3231,-0.019652,-0.01211,0.023687
3232,0.017426,0.04211,0.023687
3233,0.017426,0.005964,0.005607
3234,-0.019652,0.005964,0.005607
3235,-0.019652,-0.01211,-0.012473
3236,-0.019652,0.024037,0.005607
3237,-0.001113,-0.01211,-0.030552
3238,-0.001113,0.005964,0.005607
3239,-0.001113,0.005964,0.005607
3240,0.017426,0.005964,-0.012473
3241,-0.001113,-0.030183,-0.012473
3242,-0.001113,0.024037,0.005607
3243,0.017426,0.005964,0.023687
3244,-0.019652,-0.01211,-0.012473
3245,-0.019652,0.005964,0.023687
3246,0.017426,0.005964,0.041767
3247,-0.001113,0.005964,0.005607
3248,-0.001113,0.024037,-0.012473
3249,-0.001113,0.005964,0.023687
3250,0.017426,-0.01211,0.023687
3251,-0.001113,0.005964,0.005607
3252,-0.001113,0.005964,-0.030552
3253,-0.001113,-0.01211,-0.030552
3254,-0.001113,0.005964,-0.030552
3255,-0.001113,0.024037,0.005607
3256,-0.019652,0.005964,0.005607
3257,-0.001113,0.005964,0.023687
3258,-0.001113,0.024037,0.005607
3259,-0.001113,0.024037,0.005607
3260,-0.001113,-0.01211,0.023687
3261,-0.001113,0.005964,0.005607
3262,-0.001113,0.005964,0.023687
3263,-0.001113,0.005964,0.041767
3264,-0.001113,0.005964,0.005607
3265,-0.001113,0.024037,0.023687
3266,-0.001113,0.005964,0.005607
3267,-0.019652,0.005964,0.005607
3268,-0.001113,-0.01211,0.005607
3269,-0.001113,0.005964,-0.012473
3270,-0.019652,0.005964,-0.012473
3271,-0.001113,0.005964,-0.012473
3272,-0.019652,0.005964,-0.012473
3273,-0.001113,0.005964,0.005607
3274,-0.001113,0.024037,0.005607
3275,-0.001113,0.024037,0.005607
3276,-0.001113,0.005964,0.023687
3277,0.017426,0.005964,0.023687
3278,-0.001113,0.024037,0.023687
3279,-0.001113,0.024037,0.005607
3280,-0.019652,0.005964,0.023687
3281,0.017426,0.005964,0.005607
3282,-0.001113,0.005964,0.005607
3283,0.017426,0.024037,-0.030552
3284,-0.001113,0.005964,0.023687
3285,-0.001113,0.005964,-0.012473
3286,-0.001113,-0.01211,-0.030552
3287,-0.019652,0.005964,-0.012473
3288,-0.001113,0.005964,-0.030552
3289,0.017426,0.005964,-0.030552
3290,-0.001113,-0.030183,0.005607
3291,-0.001113,-0.01211,0.023687
3292,-0.019652,0.005964,0.005607
3293,-0.001113,-0.01211,0.005607
3294,-0.001113,-0.030183,0.023687
3295,-0.001113,0.005964,0.023687
3296,0.035965,0.04211,0.005607
3297,-0.019652,0.005964,0.023687
3298,-0.001113,-0.01211,0.023687
3299,-0.001113,0.005964,-0.012473
3300,-0.001113,0.005964,0.005607
3301,-0.001113,0.005964,-0.012473
3302,-0.001113,0.005964,-0.012473
3303,0.035965,-0.01211,-0.012473
3304,-0.001113,0.024037,-0.012473
3305,-0.001113,0.005964,-0.012473
3306,-0.001113,-0.01211,-0.030552
3307,-0.038191,0.005964,-0.012473
3308,-0.001113,-0.01211,0.005607
3309,-0.019652,0.005964,0.023687
3310,0.017426,-0.01211,0.005607
3311,-0.019652,0.005964,0.041767
3312,-0.001113,0.024037,0.041767
3313,0.017426,0.024037,0.005607
3314,-0.019652,0.024037,-0.012473
3315,-0.019652,0.005964,0.005607
3316,0.017426,0.005964,-0.012473
3317,0.017426,-0.01211,-0.030552
3318,-0.038191,-0.01211,0.005607
3319,-0.001113,-0.01211,-0.012473
3320,-0.019652,0.024037,-0.012473
3321,-0.001113,0.005964,0.005607
3322,-0.019652,0.005964,-0.012473
3323,-0.019652,-0.030183,-0.012473
3324,-0.001113,-0.01211,0.005607
3325,-0.001113,0.024037,0.005607
3326,-0.001113,0.005964,0.023687
3327,-0.001113,0.005964,-0.012473
3328,0.017426,0.005964,0.023687
3329,-0.019652,-0.01211,0.005607
3330,-0.001113,0.005964,0.005607
3331,-0.001113,0.005964,0.005607
3332,-0.001113,0.024037,0.005607
3333,0.017426,-0.01211,-0.012473
3334,-0.019652,0.005964,-0.012473
3335,-0.001113,0.005964,-0.012473
3336,-0.019652,0.005964,0.005607
3337,-0.001113,0.005964,-0.030552
3338,-0.001113,0.005964,0.005607
3339,-0.001113,-0.01211,0.005607
3340,-0.001113,-0.01211,0.023687
3341,-0.019652,0.005964,0.005607
3342,0.017426,-0.01211,0.023687
3343,-0.001113,0.024037,0.023687
3344,-0.001113,0.005964,0.005607
3345,-0.001113,0.005964,-0.012473
3346,-0.001113,0.005964,0.005607
3347,-0.001113,-0.01211,0.005607
3348,-0.001113,0.005964,-0.012473
3349,-0.001113,0.005964,-0.012473
3350,-0.019652,0.005964,-0.012473
3351,-0.001113,0.005964,-0.030552
3352,0.017426,-0.01211,-0.012473
3353,-0.038191,0.005964,0.005607
3354,-0.001113,0.024037,-0.030552
3355,-0.001113,0.005964,0.005607
3356,-0.019652,0.005964,0.005607
3357,-0.001113,0.024037,0.023687
3358,-0.001113,0.005964,0.005607
3359,-0.001113,0.005964,0.005607
3360,-0.001113,0.005964,0.041767
3361,-0.019652,0.005964,0.023687
3362,-0.001113,0.005964,-0.012473
3363,-0.001113,0.005964,0.023687
3364,-0.001113,0.005964,-0.012473
3365,-0.019652,0.005964,-0.012473
3366,-0.001113,0.005964,-0.012473
3367,0.017426,0.024037,0.005607
3368,-0.001113,0.005964,0.005607
3369,-0.019652,0.005964,-0.012473
3370,-0.001113,0.005964,0.005607
3371,-0.019652,-0.01211,0.023687
3372,0.017426,0.024037,-0.012473
3373,0.017426,0.005964,0.005607
3374,-0.001113,0.005964,0.005607
3375,-0.001113,-0.01211,0.023687
3376,-0.001113,0.005964,0.005607
3377,-0.019652,-0.01211,0.041767
3378,0.017426,0.005964,0.005607
3379,-0.019652,0.024037,-0.012473
3380,-0.001113,0.005964,-0.030552
3381,0.017426,-0.01211,0.023687
3382,-0.019652,-0.01211,0.005607
3383,0.017426,0.005964,-0.030552
3384,0.017426,0.005964,0.005607
3385,-0.019652,0.005964,-0.012473
3386,-0.019652,0.005964,-0.012473
3387,-0.019652,-0.01211,0.005607
3388,-0.001113,0.024037,0.005607
3389,-0.019652,0.005964,0.023687
3390,-0.019652,0.024037,0.005607
3391,-0.019652,0.005964,0.041767
3392,0.017426,0.005964,0.023687
3393,-0.019652,-0.01211,-0.012473
3394,-0.001113,-0.01211,0.023687
3395,-0.001113,0.005964,0.041767
3396,-0.001113,-0.01211,-0.012473
3397,-0.019652,0.005964,-0.030552
3398,-0.001113,0.005964,0.005607
3399,-0.001113,0.005964,-0.012473
3400,0.017426,0.005964,-0.012473
3401,-0.019652,0.005964,0.005607
3402,-0.001113,0.005964,0.041767
3403,-0.001113,0.024037,-0.030552
3404,0.017426,0.005964,0.005607
3405,-0.038191,0.005964,0.005607
3406,-0.019652,0.024037,0.023687
3407,-0.001113,0.005964,0.023687
3408,-0.001113,-0.030183,0.023687
3409,-0.001113,0.005964,0.023687
3410,0.035965,0.024037,0.005607
3411,-0.001113,0.005964,-0.012473
3412,-0.001113,0.04211,0.005607
3413,-0.001113,0.005964,0.023687
3414,0.035965,-0.01211,-0.012473
3415,-0.001113,-0.01211,-0.012473
3416,-0.001113,0.005964,-0.012473
3417,-0.001113,-0.01211,-0.048632
3418,-0.001113,0.005964,-0.012473
3419,-0.001113,0.005964,0.041767
3420,-0.019652,0.005964,-0.012473
3421,-0.001113,0.005964,-0.030552
3422,-0.019652,0.024037,0.005607
3423,-0.019652,0.005964,0.023687
3424,-0.001113,0.005964,0.023687
3425,0.017426,0.024037,0.005607
3426,-0.001113,0.024037,0.023687
3427,-0.001113,0.005964,-0.012473
3428,0.017426,0.005964,-0.012473
3429,-0.001113,0.024037,0.005607
3430,-0.019652,0.024037,-0.012473
3431,-0.001113,0.005964,-0.012473
3432,0.017426,0.005964,-0.030552
3433,-0.019652,0.005964,0.005607
3434,-0.001113,0.005964,-0.012473
3435,-0.001113,0.005964,-0.012473
3436,0.017426,0.005964,0.023687
3437,-0.001113,-0.01211,0.023687
3438,-0.019652,-0.01211,-0.012473
3439,-0.001113,0.005964,0.005607
3440,-0.001113,0.005964,0.005607
3441,-0.001113,-0.01211,0.005607
3442,-0.019652,0.005964,0.005607
3443,-0.001113,-0.01211,0.023687
3444,-0.001113,-0.01211,0.005607
3445,-0.038191,-0.01211,-0.012473
3446,-0.001113,-0.030183,-0.012473
3447,-0.001113,0.024037,0.023687
3448,-0.001113,0.005964,0.005607
3449,-0.019652,0.005964,-0.012473
3450,0.017426,0.024037,0.005607
3451,-0.019652,-0.01211,0.005607
3452,-0.001113,0.024037,-0.012473
3453,-0.038191,0.024037,0.005607
3454,-0.001113,0.005964,0.005607
3455,-0.038191,-0.01211,0.023687
3456,-0.001113,0.005964,0.005607
3457,-0.019652,-0.01211,0.023687
3458,-0.001113,-0.01211,0.005607
3459,-0.001113,0.005964,0.005607
3460,-0.001113,0.005964,0.005607
3461,-0.019652,0.005964,0.023687
3462,-0.001113,0.024037,-0.012473
3463,0.017426,-0.01211,-0.012473
3464,-0.001113,0.005964,0.005607
3465,-0.019652,0.005964,0.005607
3466,-0.001113,-0.01211,-0.012473
3467,-0.001113,0.005964,-0.012473
3468,-0.001113,0.005964,0.005607
3469,0.017426,0.005964,-0.012473
3470,-0.001113,-0.01211,0.005607
3471,-0.001113,0.005964,-0.012473
3472,-0.001113,0.005964,-0.012473
3473,-0.001113,-0.01211,0.005607
3474,-0.001113,0.005964,0.005607
3475,-0.001113,0.005964,0.023687
3476,-0.001113,0.024037,0.005607
3477,0.035965,0.005964,-0.012473
3478,-0.019652,0.005964,0.041767
3479,-0.001113,0.005964,0.023687
3480,0.017426,0.005964,0.005607
3481,0.017426,0.005964,-0.012473
3482,-0.001113,0.005964,0.005607
3483,-0.001113,0.005964,-0.012473
3484,-0.019652,0.005964,-0.012473
3485,-0.001113,0.005964,0.005607
3486,-0.001113,0.005964,-0.030552
3487,0.017426,0.024037,-0.012473
3488,-0.019652,-0.01211,0.005607
3489,-0.001113,0.005964,0.023687
3490,-0.001113,0.005964,0.005607
3491,-0.001113,-0.01211,0.005607
3492,-0.001113,0.005964,0.005607
3493,-0.001113,-0.01211,0.005607
3494,-0.001113,-0.01211,-0.012473
3495,-0.001113,-0.01211,-0.012473
3496,-0.001113,0.024037,0.023687
3497,-0.001113,-0.01211,0.005607
3498,-0.001113,0.005964,0.005607
3499,-0.019652,0.005964,0.005607
3500,-0.038191,0.005964,0.005607
3501,-0.001113,-0.01211,-0.030552
3502,-0.019652,0.005964,-0.012473
3503,-0.001113,0.005964,0.023687
3504,0.017426,0.005964,-0.012473
3505,-0.001113,0.024037,0.005607
3506,-0.001113,-0.01211,0.005607
3507,-0.019652,0.005964,0.023687
3508,-0.001113,0.005964,0.005607
3509,-0.038191,0.005964,0.023687
3510,-0.019652,0.005964,0.023687
3511,0.017426,0.024037,0.023687
3512,-0.001113,0.024037,-0.030552
3513,-0.019652,0.005964,-0.012473
3514,-0.001113,-0.01211,0.005607
3515,-0.001113,0.005964,-0.012473
3516,-0.019652,0.005964,0.023687
3517,0.017426,0.005964,0.005607
3518,-0.019652,0.005964,-0.048632
3519,-0.001113,0.005964,0.005607
3520,-0.019652,0.005964,0.023687
3521,-0.019652,0.024037,0.005607
3522,-0.001113,0.005964,-0.012473
3523,0.017426,0.005964,0.023687
3524,-0.001113,0.005964,0.005607
3525,-0.001113,-0.01211,0.005607
3526,-0.001113,0.005964,0.005607
3527,-0.019652,-0.01211,0.023687
3528,-0.038191,-0.01211,0.005607
3529,-0.001113,0.005964,-0.012473
3530,-0.001113,-0.01211,0.023687
3531,0.017426,0.005964,0.005607
3532,-0.001113,0.024037,0.005607
3533,-0.001113,0.005964,-0.012473
3534,-0.001113,0.005964,0.005607
3535,0.017426,-0.01211,-0.030552
3536,-0.001113,0.005964,-0.012473
3537,-0.001113,0.005964,0.023687
3538,-0.001113,-0.01211,0.023687
3539,-0.019652,0.005964,-0.012473
3540,-0.019652,0.005964,0.005607
3541,-0.019652,-0.01211,0.023687
3542,-0.001113,-0.01211,0.005607
3543,-0.019652,-0.01211,0.005607
3544,-0.001113,0.005964,0.041767
3545,-0.019652,0.005964,0.005607
3546,-0.001113,-0.01211,-0.012473
3547,-0.019652,0.024037,-0.030552
3548,-0.001113,0.005964,0.005607
3549,-0.001113,0.005964,-0.012473
3550,-0.001113,0.005964,-0.012473
3551,-0.001113,0.005964,0.005607
3552,0.017426,0.005964,-0.048632
3553,-0.001113,0.005964,0.005607
3554,-0.019652,-0.01211,0.005607
3555,0.017426,-0.01211,0.023687
3556,-0.001113,0.005964,0.005607
3557,-0.019652,0.005964,0.005607
3558,0.017426,0.024037,0.041767
3559,-0.001113,0.005964,-0.012473
3560,-0.019652,0.005964,-0.030552
3561,0.017426,-0.01211,0.023687
3562,-0.001113,0.005964,0.005607
3563,-0.019652,0.005964,-0.012473
3564,-0.038191,0.005964,-0.012473
3565,-0.001113,-0.01211,0.005607
3566,-0.019652,0.005964,-0.012473
3567,-0.001113,0.005964,-0.012473
3568,-0.019652,-0.01211,0.005607
3569,-0.001113,0.005964,0.023687
3570,-0.001113,0.005964,0.005607
3571,-0.001113,0.005964,0.005607
3572,-0.019652,0.005964,0.023687
3573,0.017426,-0.01211,0.005607
3574,-0.019652,0.005964,0.005607
3575,-0.001113,-0.030183,0.023687
3576,-0.001113,0.005964,-0.012473
3577,-0.001113,0.005964,-0.012473
3578,0.017426,-0.01211,0.005607
3579,0.017426,0.005964,0.005607
3580,-0.001113,-0.01211,-0.012473
3581,-0.001113,0.024037,-0.030552
3582,0.017426,0.024037,-0.012473
3583,-0.001113,0.005964,-0.012473
3584,-0.019652,-0.01211,-0.012473
3585,-0.001113,-0.01211,0.005607
3586,-0.001113,-0.01211,0.023687
3587,-0.019652,0.005964,0.023687
3588,-0.001113,-0.030183,0.005607
3589,-0.019652,0.024037,0.023687
3590,-0.001113,-0.01211,0.023687
3591,0.017426,0.024037,0.005607
3592,0.035965,0.005964,0.005607
3593,-0.001113,0.005964,0.005607
3594,-0.001113,0.024037,0.005607
3595,-0.001113,0.024037,-0.030552
3596,-0.038191,-0.01211,0.005607
3597,-0.001113,0.005964,-0.012473
3598,-0.019652,0.005964,-0.012473
3599,-0.001113,0.005964,0.005607
3600,-0.001113,0.005964,0.023687
3601,-0.001113,0.024037,-0.030552
3602,-0.019652,0.005964,-0.012473
3603,-0.001113,0.005964,-0.012473
3604,-0.019652,0.005964,0.005607
3605,-0.001113,-0.01211,0.023687
3606,-0.001113,-0.01211,0.005607
3607,-0.001113,0.005964,0.023687
3608,-0.001113,0.005964,-0.012473
3609,-0.001113,0.005964,-0.030552
3610,-0.019652,0.005964,0.005607
3611,-0.019652,-0.01211,-0.012473
3612,-0.001113,0.005964,-0.012473
3613,-0.019652,0.005964,-0.012473
3614,-0.001113,0.024037,0.023687
3615,-0.001113,0.005964,0.005607
3616,-0.001113,-0.01211,-0.012473
3617,-0.001113,0.005964,0.023687
3618,-0.001113,0.024037,-0.030552
3619,0.017426,0.024037,-0.012473
3620,-0.001113,0.005964,0.005607
3621,-0.019652,-0.01211,0.023687
3622,0.017426,-0.01211,0.005607
3623,-0.001113,0.005964,0.023687
3624,-0.001113,0.024037,0.041767
3625,-0.001113,0.005964,-0.012473
3626,0.017426,0.024037,-0.012473
3627,-0.001113,-0.01211,0.005607
3628,-0.001113,-0.01211,-0.012473
3629,-0.019652,0.024037,-0.012473
3630,-0.001113,0.096331,0.005607
3631,-0.019652,0.024037,0.023687
3632,-0.001113,0.04211,-0.012473
3633,-0.019652,0.005964,-0.012473
3634,-0.019652,-0.01211,-0.012473
3635,-0.019652,-0.01211,0.005607
3636,0.017426,0.005964,0.005607
3637,-0.001113,-0.01211,0.005607
3638,-0.001113,0.024037,0.023687
3639,-0.019652,0.005964,0.023687
