# Requested Sampling Rate (Hz):,1000
# Actual Sampling Rate (Hz):,999.545
# Requested Duration (s):,5.0
# Actual Duration (s):,5.044
# REST Calibration:,832.0600347222207,831.6700347222207,832.6898611111126
# MAX Calibration:,886.0000,887.0000,888.0000
# Normalization: MVC-based  (x_norm = (x - REST) / (MAX - REST))
sample_idx,EMG1,EMG2,EMG3
0,-0.019652,0.024037,-0.012473
1,-0.019652,0.005964,-0.048632
2,-0.001113,0.005964,-0.012473
3,-0.019652,0.005964,0.005607
4,-0.019652,0.005964,0.005607
5,-0.001113,0.005964,-0.030552
6,-0.019652,0.005964,0.023687
7,0.017426,-0.01211,0.023687
8,-0.001113,0.005964,0.023687
9,0.017426,0.005964,0.005607
10,-0.001113,0.024037,0.005607
11,-0.001113,0.024037,0.041767
12,-0.001113,0.005964,0.023687
13,-0.019652,-0.01211,-0.012473
14,-0.019652,0.005964,0.023687
15,-0.001113,-0.01211,0.005607
16,-0.001113,0.005964,-0.030552
17,-0.019652,0.024037,0.005607
18,0.017426,0.005964,-0.012473
19,0.035965,0.005964,-0.012473
20,-0.019652,0.005964,-0.012473
21,-0.001113,0.005964,0.005607
22,0.035965,0.005964,0.005607
23,-0.001113,0.005964,0.023687
24,-0.001113,0.005964,0.023687
25,-0.001113,-0.01211,0.023687
26,-0.001113,0.005964,-0.012473
27,-0.019652,0.024037,0.023687
28,-0.001113,0.005964,0.023687
29,-0.001113,0.005964,0.005607
30,-0.001113,-0.01211,-0.012473
31,-0.001113,-0.01211,-0.030552
32,-0.001113,-0.01211,-0.012473
33,-0.001113,0.005964,-0.012473
34,-0.001113,0.005964,-0.012473
35,-0.001113,0.005964,-0.012473
36,-0.019652,0.005964,0.005607
37,-0.001113,-0.01211,-0.012473
38,-0.001113,0.005964,-0.012473
39,0.017426,0.024037,0.005607
40,-0.019652,0.024037,0.005607
41,-0.019652,0.005964,0.005607
42,0.017426,0.005964,0.005607
43,-0.019652,0.005964,0.023687
44,-0.001113,0.005964,0.023687
45,-0.001113,0.024037,0.041767
46,-0.001113,0.005964,0.005607
47,-0.001113,-0.030183,-0.012473
48,-0.001113,0.005964,-0.030552
49,-0.001113,0.005964,-0.012473
50,-0.019652,-0.01211,-0.030552
51,-0.019652,0.005964,-0.012473
52,-0.001113,0.024037,0.005607
53,-0.001113,-0.01211,-0.012473
54,-0.001113,0.024037,0.005607
55,-0.001113,-0.01211,0.005607
56,-0.001113,-0.01211,0.005607
57,-0.001113,0.005964,0.005607
58,-0.001113,0.024037,0.023687
59,0.017426,0.024037,0.023687
60,0.017426,0.005964,0.041767
61,-0.019652,0.005964,0.005607
62,-0.019652,0.024037,-0.012473
63,-0.019652,0.005964,0.023687
64,0.017426,-0.01211,0.023687
65,-0.001113,0.005964,-0.012473
66,0.017426,-0.01211,-0.030552
67,-0.001113,0.005964,-0.012473
68,-0.001113,-0.01211,-0.012473
69,-0.001113,0.005964,-0.030552
70,-0.019652,0.005964,0.005607
71,-0.019652,0.005964,0.023687
72,-0.001113,0.005964,-0.012473
73,-0.001113,0.005964,0.005607
74,-0.001113,0.005964,0.023687
75,-0.001113,0.024037,0.041767
76,-0.001113,0.024037,0.023687
77,-0.019652,-0.030183,0.023687
78,-0.001113,-0.01211,0.005607
79,-0.001113,0.024037,0.005607
80,-0.019652,0.005964,-0.012473
81,-0.001113,0.005964,0.005607
82,-0.001113,-0.030183,-0.012473
83,-0.001113,-0.01211,-0.012473
84,-0.001113,-0.01211,-0.030552
85,-0.001113,0.024037,-0.012473
86,0.017426,0.005964,-0.030552
87,-0.019652,0.005964,0.005607
88,0.017426,-0.01211,0.005607
89,-0.001113,0.005964,-0.030552
90,0.017426,0.024037,0.005607
91,-0.019652,0.024037,0.005607
92,-0.001113,0.005964,0.023687
93,-0.001113,-0.01211,0.023687
94,-0.001113,0.024037,0.023687
95,-0.001113,0.005964,0.023687
96,-0.001113,0.005964,-0.012473
97,-0.019652,-0.01211,-0.012473
98,-0.001113,-0.01211,0.005607
99,-0.019652,0.024037,-0.012473
100,0.035965,0.005964,-0.030552
101,-0.019652,0.005964,-0.030552
102,-0.001113,0.005964,0.005607
103,-0.001113,0.024037,-0.030552
104,-0.001113,-0.01211,-0.012473
105,-0.019652,-0.01211,0.023687
106,-0.001113,-0.01211,0.023687
107,-0.019652,-0.01211,0.005607
108,-0.038191,0.005964,0.023687
109,-0.001113,0.005964,0.041767
110,-0.001113,0.005964,0.005607
111,-0.019652,0.005964,0.005607
112,-0.001113,0.024037,0.023687
113,-0.001113,0.024037,0.005607
114,-0.019652,-0.01211,0.005607
115,-0.001113,0.005964,-0.030552
116,-0.001113,0.005964,-0.012473
117,0.017426,0.005964,-0.012473
118,-0.019652,0.005964,-0.030552
119,-0.001113,0.024037,-0.012473
120,-0.038191,0.024037,-0.012473
121,-0.019652,0.005964,-0.012473
122,-0.001113,0.005964,0.005607
123,-0.019652,-0.01211,0.005607
124,-0.019652,0.005964,0.041767
125,0.017426,-0.01211,-0.012473
126,-0.001113,0.005964,0.023687
127,0.017426,0.005964,0.059847
128,-0.001113,0.005964,0.005607
129,-0.019652,0.024037,0.023687
130,-0.038191,0.005964,0.023687
131,-0.001113,0.005964,-0.030552
132,-0.019652,0.005964,-0.012473
133,-0.001113,0.005964,0.005607
134,-0.019652,0.005964,0.005607
135,-0.019652,0.005964,-0.030552
136,-0.019652,0.005964,-0.012473
137,-0.019652,0.005964,0.005607
138,-0.001113,0.005964,-0.030552
139,-0.001113,0.024037,0.005607
140,-0.001113,0.005964,0.005607
141,-0.001113,-0.01211,0.023687
142,-0.019652,0.024037,0.005607
143,-0.001113,0.024037,0.023687
144,-0.001113,0.024037,0.023687
145,-0.001113,0.005964,0.023687
146,0.017426,-0.01211,0.005607
147,-0.001113,0.005964,0.023687
148,-0.001113,0.005964,0.005607
149,0.017426,-0.01211,-0.030552
150,0.017426,-0.01211,-0.030552
151,-0.001113,0.024037,0.005607
152,-0.001113,0.024037,-0.012473
153,-0.001113,-0.01211,-0.048632
154,0.017426,0.005964,0.005607
155,-0.019652,-0.030183,0.005607
156,-0.019652,-0.01211,-0.030552
157,-0.001113,0.005964,-0.012473
158,-0.019652,0.005964,0.005607
159,-0.001113,-0.01211,0.041767
160,0.017426,-0.01211,0.023687
161,0.017426,0.005964,0.041767
162,-0.001113,0.005964,0.023687
163,-0.001113,-0.01211,-0.012473
164,-0.001113,0.005964,0.023687
165,-0.001113,-0.01211,0.005607
166,-0.001113,0.005964,-0.012473
167,0.017426,0.005964,-0.012473
168,-0.001113,0.005964,-0.012473
169,-0.019652,0.005964,-0.030552
170,0.017426,0.005964,-0.012473
171,0.017426,0.005964,0.005607
172,0.017426,0.005964,0.005607
173,-0.001113,0.005964,-0.012473
174,-0.001113,-0.01211,0.005607
175,-0.001113,0.005964,0.005607
176,-0.001113,0.005964,0.023687
177,-0.001113,0.005964,-0.012473
178,-0.001113,-0.01211,0.005607
179,-0.001113,0.024037,0.023687
180,-0.001113,-0.01211,0.005607
181,-0.001113,0.005964,-0.012473
182,-0.001113,-0.01211,0.023687
183,-0.019652,-0.01211,0.005607
184,-0.019652,-0.01211,-0.012473
185,-0.019652,0.005964,-0.030552
186,-0.001113,0.005964,-0.012473
187,-0.019652,0.005964,-0.030552
188,-0.001113,0.005964,-0.030552
189,-0.019652,0.005964,0.005607
190,-0.001113,0.005964,0.023687
191,0.017426,-0.01211,-0.012473
192,-0.019652,0.024037,0.023687
193,-0.019652,0.005964,0.023687
194,-0.019652,0.005964,0.023687
195,-0.001113,0.005964,0.023687
196,-0.019652,0.005964,0.005607
197,-0.001113,-0.01211,0.023687
198,-0.019652,0.005964,0.005607
199,-0.019652,0.005964,0.023687
200,-0.001113,0.005964,0.005607
201,-0.001113,0.005964,0.005607
202,-0.019652,0.005964,-0.012473
203,-0.001113,0.005964,-0.012473
204,-0.019652,0.005964,-0.012473
205,-0.001113,0.005964,-0.012473
206,-0.001113,-0.01211,-0.012473
207,-0.001113,0.005964,0.005607
208,-0.001113,-0.01211,-0.012473
209,-0.019652,0.024037,0.005607
210,-0.001113,0.005964,0.023687
211,-0.001113,0.005964,0.023687
212,-0.019652,-0.01211,0.023687
213,-0.001113,-0.01211,0.005607
214,-0.001113,0.005964,0.041767
215,-0.019652,0.005964,0.005607
216,-0.001113,0.005964,-0.012473
217,-0.001113,0.005964,0.023687
218,-0.001113,0.005964,-0.012473
219,-0.001113,0.005964,-0.012473
220,-0.001113,-0.01211,-0.012473
221,-0.019652,0.005964,0.005607
222,-0.038191,-0.01211,-0.012473
223,-0.001113,0.005964,-0.012473
224,-0.001113,0.005964,0.005607
225,0.017426,0.04211,0.023687
226,-0.001113,0.024037,0.005607
227,0.017426,0.005964,0.023687
228,-0.001113,0.024037,0.023687
229,-0.019652,0.005964,0.023687
230,-0.038191,-0.01211,0.005607
231,-0.001113,-0.01211,0.005607
232,-0.001113,0.005964,0.005607
233,-0.019652,-0.01211,0.005607
234,-0.019652,0.005964,-0.030552
235,-0.001113,0.005964,-0.012473
236,-0.001113,0.005964,0.005607
237,-0.038191,0.005964,-0.012473
238,0.017426,0.024037,-0.012473
239,-0.019652,-0.01211,0.005607
240,-0.001113,-0.01211,-0.012473
241,-0.001113,0.005964,0.005607
242,-0.001113,0.005964,0.005607
243,-0.019652,-0.01211,0.041767
244,-0.001113,0.005964,0.005607
245,-0.001113,0.005964,0.005607
246,-0.019652,-0.01211,0.041767
247,0.017426,0.024037,-0.012473
248,-0.001113,0.005964,0.023687
249,-0.001113,-0.030183,0.005607
250,-0.001113,0.005964,0.005607
251,-0.001113,0.005964,-0.012473
252,-0.019652,-0.01211,0.005607
253,-0.001113,0.024037,-0.012473
254,-0.001113,0.024037,-0.012473
255,-0.001113,-0.01211,0.005607
256,-0.019652,0.005964,0.005607
257,-0.001113,0.005964,-0.012473
258,0.017426,0.024037,0.005607
259,-0.001113,0.005964,0.023687
260,-0.001113,0.005964,0.023687
261,-0.019652,0.005964,0.005607
262,-0.001113,-0.01211,0.023687
263,-0.001113,0.005964,0.023687
264,-0.019652,0.005964,0.023687
265,-0.019652,0.005964,-0.030552
266,-0.019652,0.024037,0.023687
267,-0.001113,0.024037,0.023687
268,-0.001113,-0.01211,-0.012473
269,-0.019652,0.005964,-0.012473
270,-0.001113,0.024037,0.005607
271,-0.001113,0.005964,-0.012473
272,-0.001113,-0.01211,-0.048632
273,-0.038191,0.024037,0.005607
274,-0.019652,0.005964,-0.012473
275,0.017426,0.024037,-0.012473
276,-0.001113,0.005964,0.023687
277,-0.019652,0.005964,0.059847
278,-0.001113,0.005964,0.041767
279,-0.001113,0.005964,0.023687
280,-0.001113,0.005964,0.023687
281,-0.001113,0.024037,0.023687
282,-0.001113,0.005964,-0.012473
283,-0.001113,0.005964,0.023687
284,0.017426,0.005964,0.005607
285,-0.019652,0.005964,-0.030552
286,-0.019652,0.096331,-0.048632
287,-0.019652,0.005964,-0.012473
288,0.017426,0.005964,-0.012473
289,-0.019652,0.005964,-0.030552
290,-0.019652,0.005964,0.005607
291,-0.001113,0.005964,0.023687
292,-0.001113,0.005964,-0.012473
293,-0.001113,-0.01211,-0.012473
294,-0.019652,-0.01211,0.023687
295,0.017426,0.005964,0.023687
296,-0.019652,0.005964,0.005607
297,-0.001113,0.005964,0.023687
298,-0.001113,0.024037,0.041767
299,0.017426,0.005964,0.005607
300,-0.019652,0.005964,-0.030552
301,-0.019652,0.005964,0.005607
302,-0.001113,0.005964,-0.012473
303,-0.001113,-0.030183,-0.012473
304,-0.001113,0.024037,-0.030552
305,-0.001113,0.005964,-0.012473
306,-0.001113,-0.030183,-0.012473
307,-0.001113,-0.01211,-0.012473
308,-0.001113,-0.01211,0.005607
309,-0.001113,-0.01211,0.005607
310,-0.019652,-0.01211,0.005607
311,-0.001113,0.005964,0.023687
312,-0.001113,0.005964,-0.012473
313,-0.001113,0.024037,0.023687
314,-0.001113,-0.01211,0.005607
315,-0.019652,0.005964,0.023687
316,-0.019652,0.024037,0.005607
317,-0.019652,0.024037,0.005607
318,-0.001113,0.005964,0.023687
319,-0.001113,0.005964,0.023687
320,-0.001113,0.005964,0.005607
321,0.017426,0.005964,-0.030552
322,-0.001113,0.005964,0.005607
323,-0.019652,0.005964,-0.012473
324,-0.001113,-0.01211,-0.030552
325,-0.001113,0.005964,0.005607
326,-0.019652,-0.01211,0.023687
327,0.017426,0.005964,-0.012473
328,0.017426,0.005964,0.023687
329,-0.001113,0.005964,0.041767
330,-0.001113,-0.01211,0.023687
331,-0.001113,0.005964,0.005607
332,-0.001113,0.005964,0.005607
333,-0.001113,0.024037,0.005607
334,-0.019652,0.005964,-0.012473
335,-0.019652,0.005964,-0.030552
336,0.017426,0.005964,0.005607
337,-0.019652,0.005964,-0.012473
338,-0.001113,0.005964,-0.012473
339,-0.001113,-0.01211,-0.030552
340,-0.001113,0.005964,-0.012473
341,-0.001113,-0.01211,-0.012473
342,-0.001113,0.005964,0.005607
343,0.017426,0.005964,0.005607
344,-0.001113,0.005964,0.041767
345,-0.038191,0.024037,0.005607
346,-0.019652,0.005964,0.023687
347,0.017426,0.005964,0.023687
348,-0.019652,0.005964,0.005607
349,-0.001113,0.005964,0.023687
350,-0.019652,0.005964,0.041767
351,-0.019652,0.024037,0.005607
352,-0.001113,0.005964,-0.012473
353,-0.019652,0.024037,-0.012473
354,-0.001113,0.005964,-0.012473
355,-0.001113,0.005964,-0.012473
356,-0.001113,-0.01211,-0.030552
357,-0.001113,-0.01211,0.005607
358,-0.001113,0.024037,-0.030552
359,-0.001113,0.005964,-0.012473
360,0.017426,0.024037,0.005607
361,-0.001113,-0.01211,0.023687
362,-0.019652,0.024037,0.005607
363,-0.001113,0.005964,0.005607
364,-0.019652,-0.01211,0.023687
365,-0.019652,0.005964,0.005607
366,-0.019652,0.024037,-0.012473
367,-0.019652,0.024037,0.023687
368,0.017426,-0.01211,0.005607
369,-0.001113,-0.01211,-0.012473
370,-0.019652,-0.01211,-0.012473
371,-0.001113,0.005964,-0.012473
372,-0.019652,-0.01211,0.005607
373,-0.019652,0.005964,-0.012473
374,-0.019652,-0.01211,0.005607
375,0.017426,0.005964,0.005607
376,-0.001113,0.005964,-0.012473
377,-0.019652,0.005964,0.005607
378,-0.001113,0.005964,0.023687
379,-0.001113,0.005964,0.023687
380,-0.019652,0.005964,0.005607
381,-0.001113,-0.01211,0.005607
382,0.017426,0.005964,0.023687
383,-0.038191,-0.01211,0.005607
384,-0.001113,0.005964,0.023687
385,-0.019652,0.005964,0.005607
386,-0.001113,0.04211,0.005607
387,-0.001113,0.005964,-0.030552
388,-0.001113,0.005964,-0.012473
389,-0.019652,0.005964,0.005607
390,-0.001113,0.005964,-0.030552
391,0.017426,0.024037,-0.012473
392,-0.001113,0.005964,0.005607
393,-0.001113,0.005964,-0.012473
394,-0.001113,0.005964,0.023687
395,-0.001113,0.024037,0.023687
396,0.035965,0.005964,0.041767
397,-0.019652,0.024037,0.005607
398,-0.019652,-0.01211,0.005607
399,-0.001113,-0.030183,0.005607
400,-0.019652,0.005964,-0.012473
401,-0.001113,0.024037,-0.012473
402,-0.019652,0.005964,0.005607
403,-0.019652,-0.01211,0.005607
404,-0.001113,0.005964,0.005607
405,-0.001113,0.005964,-0.030552
406,-0.001113,0.005964,0.005607
407,-0.001113,0.005964,-0.030552
408,-0.019652,0.005964,-0.012473
409,-0.001113,0.005964,-0.012473
410,-0.001113,0.005964,0.023687
411,-0.019652,0.024037,0.005607
412,-0.001113,0.005964,0.005607
413,-0.001113,-0.01211,0.023687
414,-0.001113,0.005964,0.005607
415,-0.001113,-0.01211,0.005607
416,-0.001113,0.005964,0.005607
417,-0.001113,-0.01211,0.005607
418,-0.001113,0.005964,-0.012473
419,-0.019652,0.005964,-0.030552
420,-0.001113,0.005964,0.005607
421,-0.001113,-0.01211,0.005607
422,-0.001113,-0.01211,-0.012473
423,-0.001113,0.024037,0.005607
424,0.017426,0.005964,-0.012473
425,-0.019652,0.005964,-0.012473
426,-0.001113,0.005964,0.005607
427,-0.019652,-0.01211,0.023687
428,0.017426,0.005964,-0.012473
429,0.017426,0.005964,0.005607
430,-0.001113,0.005964,0.023687
431,-0.001113,0.024037,0.023687
432,-0.001113,0.005964,-0.012473
433,-0.001113,0.005964,0.023687
434,0.017426,0.005964,0.005607
435,-0.001113,-0.01211,-0.012473
436,-0.001113,0.005964,-0.012473
437,0.035965,0.005964,0.005607
438,-0.001113,0.024037,0.005607
439,-0.001113,0.005964,-0.012473
440,-0.001113,0.024037,0.005607
441,-0.001113,0.005964,0.005607
442,-0.001113,0.024037,-0.030552
443,-0.001113,0.024037,0.005607
444,-0.019652,0.005964,0.005607
445,-0.019652,0.005964,0.023687
446,-0.019652,0.005964,0.005607
447,-0.001113,-0.01211,0.005607
448,-0.038191,0.005964,0.005607
449,-0.019652,0.005964,-0.012473
450,-0.001113,0.005964,0.023687
451,0.035965,0.024037,0.023687
452,0.017426,0.005964,-0.030552
453,-0.001113,0.024037,-0.012473
454,-0.001113,-0.01211,-0.030552
455,0.017426,0.005964,0.005607
456,0.017426,0.005964,-0.012473
457,-0.019652,0.005964,-0.012473
458,0.017426,-0.01211,0.005607
459,-0.001113,-0.01211,0.005607
460,-0.019652,0.005964,0.005607
461,-0.001113,-0.01211,0.023687
462,0.017426,0.005964,0.023687
463,-0.001113,0.005964,0.023687
464,-0.001113,-0.030183,0.023687
465,-0.019652,0.005964,-0.012473
466,0.017426,-0.030183,0.005607
467,-0.001113,0.005964,0.005607
468,-0.001113,0.005964,0.041767
469,-0.019652,-0.01211,0.041767
470,-0.001113,0.005964,0.005607
471,-0.019652,0.005964,-0.030552
472,-0.001113,0.005964,0.023687
473,-0.001113,0.005964,-0.012473
474,0.017426,0.024037,-0.030552
475,0.017426,0.005964,0.005607
476,-0.019652,0.005964,0.023687
477,-0.001113,0.024037,0.005607
478,-0.001113,-0.01211,0.005607
479,-0.001113,0.005964,0.023687
480,-0.001113,0.024037,-0.012473
481,-0.001113,0.005964,0.023687
482,-0.001113,0.005964,0.005607
483,-0.019652,0.005964,-0.012473
484,-0.001113,0.005964,-0.012473
485,0.017426,0.024037,-0.030552
486,-0.019652,0.005964,-0.012473
487,-0.001113,-0.01211,-0.012473
488,-0.001113,0.005964,-0.012473
489,-0.019652,0.024037,0.005607
490,-0.001113,0.024037,-0.030552
491,-0.001113,0.005964,-0.012473
492,-0.019652,0.005964,0.005607
493,-0.001113,0.024037,0.023687
494,-0.001113,0.005964,0.005607
495,-0.038191,0.005964,0.041767
496,-0.001113,0.005964,0.041767
497,-0.001113,0.005964,0.023687
498,-0.001113,0.005964,0.023687
499,0.017426,-0.01211,0.005607
500,-0.019652,0.005964,0.005607
501,-0.001113,0.024037,0.005607
502,-0.001113,0.024037,-0.030552
503,0.017426,0.005964,-0.012473
504,-0.001113,0.005964,-0.030552
505,-0.019652,-0.01211,-0.048632
506,-0.001113,0.005964,-0.012473
507,-0.019652,0.024037,-0.012473
508,0.017426,-0.01211,-0.030552
509,-0.019652,0.024037,0.005607
510,-0.019652,-0.01211,0.005607
511,-0.001113,0.005964,0.041767
512,-0.001113,0.024037,0.023687
513,-0.001113,0.005964,0.059847
514,-0.001113,0.005964,0.023687
515,-0.001113,0.024037,-0.012473
516,-0.019652,0.005964,0.041767
517,-0.038191,0.024037,0.005607
518,-0.001113,0.005964,-0.012473
519,-0.001113,0.005964,-0.012473
520,0.017426,0.024037,0.005607
521,-0.001113,0.005964,0.005607
522,-0.001113,0.024037,-0.030552
523,-0.001113,0.024037,-0.012473
524,-0.001113,0.005964,-0.030552
525,-0.019652,0.005964,-0.066712
526,-0.019652,-0.01211,-0.030552
527,0.035965,0.005964,-0.012473
528,-0.001113,-0.01211,0.005607
529,0.017426,0.024037,-0.030552
530,-0.001113,-0.01211,-0.012473
531,-0.019652,0.005964,0.023687
532,-0.001113,0.005964,0.023687
533,-0.001113,0.005964,0.005607
534,-0.019652,0.024037,0.059847
535,0.017426,0.024037,0.041767
536,-0.001113,0.024037,0.023687
537,-0.019652,0.005964,0.005607
538,-0.019652,-0.01211,0.005607
539,-0.001113,0.005964,0.005607
540,-0.001113,0.005964,0.005607
541,-0.001113,0.005964,0.005607
542,-0.001113,0.005964,0.041767
543,-0.001113,-0.01211,-0.012473
544,-0.001113,-0.01211,-0.012473
545,-0.019652,0.005964,0.023687
546,-0.019652,0.005964,0.005607
547,-0.001113,0.005964,-0.012473
548,-0.001113,-0.01211,-0.012473
549,-0.019652,-0.01211,-0.030552
550,-0.019652,-0.030183,-0.066712
551,-0.001113,0.005964,-0.066712
552,0.017426,0.024037,-0.012473
553,-0.001113,0.024037,0.005607
554,-0.019652,0.005964,0.005607
555,-0.001113,0.005964,0.023687
556,0.017426,0.005964,0.005607
557,0.017426,0.005964,0.041767
558,-0.001113,0.005964,0.023687
559,-0.001113,0.024037,0.023687
560,-0.001113,0.024037,0.023687
561,-0.001113,0.04211,0.023687
562,-0.001113,0.005964,0.023687
563,-0.001113,0.005964,0.005607
564,-0.001113,0.04211,-0.030552
565,-0.001113,0.005964,0.023687
566,-0.001113,0.024037,0.023687
567,-0.019652,0.024037,-0.012473
568,-0.001113,-0.01211,-0.048632
569,-0.019652,0.005964,-0.012473
570,-0.001113,0.005964,-0.030552
571,-0.001113,0.005964,-0.012473
572,-0.001113,0.005964,0.005607
573,-0.038191,0.024037,0.023687
574,-0.001113,0.005964,-0.012473
575,-0.019652,0.005964,0.023687
576,-0.038191,0.024037,0.023687
577,-0.07527,-0.030183,-0.012473
578,-0.038191,-0.030183,-0.030552
579,0.035965,-0.030183,-0.030552
580,0.054504,0.005964,-0.030552
581,0.035965,0.024037,-0.048632
582,0.017426,-0.01211,0.005607
583,0.035965,-0.030183,-0.012473
584,0.017426,0.005964,-0.012473
585,0.017426,0.005964,0.005607
586,0.017426,0.024037,0.041767
587,-0.001113,0.024037,0.041767
588,-0.001113,0.024037,0.041767
589,-0.019652,0.04211,0.059847
590,-0.001113,0.005964,0.059847
591,-0.001113,0.005964,0.041767
592,-0.019652,0.024037,0.059847
593,0.017426,-0.01211,0.059847
594,0.017426,0.005964,0.059847
595,-0.001113,0.005964,0.041767
596,-0.001113,0.024037,0.059847
597,-0.001113,0.024037,0.023687
598,0.017426,-0.030183,0.005607
599,0.017426,-0.01211,-0.030552
600,-0.001113,0.005964,-0.012473
601,-0.019652,0.005964,-0.012473
602,-0.019652,0.005964,-0.030552
603,-0.019652,0.005964,-0.030552
604,-0.019652,0.005964,-0.030552
605,-0.001113,-0.01211,-0.030552
606,-0.019652,0.005964,-0.012473
607,-0.038191,0.005964,0.005607
608,-0.019652,0.005964,0.005607
609,-0.001113,-0.030183,-0.030552
610,-0.019652,-0.01211,0.023687
611,-0.001113,-0.030183,0.023687
612,-0.001113,0.005964,0.005607
613,-0.001113,0.005964,0.041767
614,-0.001113,0.005964,0.023687
615,0.017426,0.024037,0.005607
616,-0.001113,0.005964,-0.012473
617,0.017426,0.005964,-0.012473
618,-0.001113,0.024037,-0.030552
619,-0.019652,0.024037,-0.048632
620,-0.001113,-0.01211,-0.030552
621,0.035965,0.005964,0.005607
622,-0.019652,0.005964,-0.012473
623,-0.001113,-0.030183,-0.012473
624,-0.019652,-0.030183,0.023687
625,-0.001113,0.024037,0.023687
626,-0.019652,0.005964,-0.012473
627,-0.001113,0.005964,-0.030552
628,-0.019652,-0.01211,-0.048632
629,-0.019652,0.005964,-0.048632
630,0.017426,-0.01211,-0.084792
631,-0.001113,-0.030183,-0.066712
632,-0.019652,-0.030183,-0.102872
633,-0.019652,-0.030183,-0.120952
634,-0.001113,-0.030183,-0.102872
635,-0.001113,-0.030183,-0.066712
636,-0.001113,0.005964,0.005607
637,-0.001113,0.005964,0.041767
638,-0.001113,0.005964,0.041767
639,-0.019652,0.005964,0.077927
640,-0.019652,0.04211,0.114086
641,-0.001113,0.04211,0.114086
642,0.017426,0.024037,0.132166
643,0.017426,0.04211,0.114086
644,0.017426,0.04211,0.114086
645,0.017426,0.04211,0.077927
646,0.017426,0.024037,0.041767
647,-0.001113,0.024037,0.041767
648,0.017426,0.024037,0.059847
649,-0.019652,0.005964,0.005607
650,-0.019652,0.005964,-0.012473
651,-0.019652,-0.01211,-0.012473
652,-0.019652,-0.030183,0.041767
653,-0.019652,-0.01211,0.041767
654,-0.019652,0.005964,0.005607
655,0.017426,0.005964,-0.012473
656,-0.001113,0.005964,0.005607
657,-0.001113,0.005964,-0.030552
658,-0.001113,0.024037,-0.012473
659,0.017426,0.005964,-0.012473
660,-0.038191,0.005964,0.005607
661,-0.001113,0.005964,0.005607
662,-0.019652,0.005964,0.023687
663,-0.001113,0.005964,-0.030552
664,-0.019652,-0.01211,-0.048632
665,-0.001113,-0.01211,-0.066712
666,-0.019652,0.005964,-0.048632
667,-0.001113,-0.01211,-0.066712
668,-0.019652,0.005964,-0.066712
669,-0.038191,-0.01211,-0.030552
670,-0.038191,0.005964,-0.030552
671,-0.019652,0.005964,-0.012473
672,-0.05673,-0.030183,-0.012473
673,-0.05673,0.005964,0.059847
674,0.017426,0.024037,0.059847
675,0.091583,0.005964,0.023687
676,0.073044,0.024037,0.023687
677,0.035965,0.024037,0.023687
678,0.017426,0.024037,0.023687
679,0.017426,0.024037,0.023687
680,-0.001113,0.005964,0.041767
681,-0.001113,0.024037,0.041767
682,-0.001113,0.005964,0.059847
683,0.017426,0.04211,0.059847
684,-0.001113,0.005964,0.059847
685,-0.001113,-0.01211,0.005607
686,0.017426,0.005964,-0.012473
687,-0.001113,0.005964,-0.084792
688,0.017426,-0.030183,-0.157112
689,-0.019652,-0.030183,-0.139032
690,-0.019652,-0.030183,-0.102872
691,-0.019652,-0.01211,-0.066712
692,-0.001113,-0.01211,0.005607
693,-0.019652,0.005964,0.096007
694,-0.001113,0.005964,0.114086
695,0.017426,0.04211,0.096007
696,-0.001113,0.024037,0.041767
697,-0.001113,0.04211,0.059847
698,-0.001113,0.005964,0.041767
699,-0.001113,0.005964,-0.012473
700,-0.001113,0.005964,0.023687
701,0.017426,0.024037,0.096007
702,-0.001113,0.024037,0.041767
703,-0.019652,0.005964,0.023687
704,-0.001113,0.005964,0.041767
705,0.017426,0.005964,0.023687
706,-0.001113,-0.01211,-0.048632
707,0.017426,0.005964,-0.048632
708,-0.001113,0.005964,-0.048632
709,-0.001113,-0.01211,-0.030552
710,-0.001113,-0.01211,-0.012473
711,-0.001113,-0.01211,0.005607
712,-0.019652,-0.030183,-0.048632
713,-0.001113,0.005964,-0.084792
714,-0.038191,-0.01211,-0.102872
715,-0.019652,0.005964,-0.030552
716,-0.019652,0.024037,-0.012473
717,-0.001113,0.005964,0.005607
718,-0.001113,0.005964,0.077927
719,0.017426,0.005964,0.041767
720,-0.019652,0.005964,-0.012473
721,0.017426,0.005964,-0.030552
722,0.017426,0.005964,0.005607
723,0.017426,0.024037,-0.012473
724,-0.001113,0.024037,0.005607
725,-0.019652,0.024037,0.023687
726,0.017426,0.024037,0.041767
727,-0.001113,0.024037,0.059847
728,-0.001113,0.005964,0.041767
729,-0.001113,0.005964,0.023687
730,-0.001113,0.024037,0.041767
731,-0.001113,0.005964,0.096007
732,0.035965,0.024037,0.096007
733,-0.001113,0.005964,0.023687
734,-0.019652,-0.030183,-0.066712
735,-0.001113,-0.01211,-0.048632
736,0.017426,0.005964,0.023687
737,-0.019652,0.005964,-0.030552
738,-0.001113,-0.01211,-0.030552
739,-0.038191,-0.030183,-0.048632
740,-0.019652,-0.030183,-0.030552
741,-0.001113,-0.01211,0.023687
742,0.035965,0.024037,0.114086
743,0.017426,0.005964,0.114086
744,-0.001113,0.024037,0.005607
745,-0.019652,0.024037,0.023687
746,-0.019652,-0.01211,-0.030552
747,-0.019652,-0.01211,-0.048632
748,-0.001113,-0.01211,-0.048632
749,-0.001113,-0.030183,-0.120952
750,-0.001113,0.005964,-0.066712
751,-0.001113,0.005964,-0.048632
752,0.017426,0.024037,0.023687
753,-0.019652,0.005964,0.059847
754,0.017426,0.005964,0.041767
755,0.017426,0.024037,0.077927
756,-0.001113,0.024037,0.077927
757,-0.001113,0.024037,0.114086
758,-0.05673,0.024037,0.150246
759,-0.019652,0.04211,0.114086
760,-0.038191,0.005964,0.059847
761,-0.05673,0.024037,-0.012473
762,-0.019652,0.024037,-0.012473
763,0.017426,0.005964,0.041767
764,0.054504,0.005964,0.041767
765,0.054504,-0.01211,0.005607
766,0.017426,-0.01211,-0.066712
767,-0.001113,-0.030183,-0.066712
768,-0.019652,-0.01211,-0.084792
769,-0.019652,-0.030183,-0.139032
770,-0.019652,-0.030183,-0.102872
771,-0.001113,-0.01211,-0.048632
772,-0.019652,0.005964,-0.030552
773,0.017426,-0.01211,-0.048632
774,-0.038191,-0.030183,-0.048632
775,-0.019652,-0.01211,-0.012473
776,-0.05673,-0.01211,0.005607
777,-0.019652,0.005964,0.096007
778,0.035965,0.024037,0.059847
779,0.035965,0.04211,0.023687
780,0.017426,0.04211,-0.012473
781,0.017426,0.005964,-0.012473
782,-0.001113,-0.01211,-0.030552
783,-0.001113,-0.030183,-0.066712
784,0.017426,-0.01211,-0.048632
785,-0.001113,-0.01211,0.114086
786,-0.001113,0.024037,0.150246
787,0.017426,0.024037,0.150246
788,0.017426,0.04211,0.132166
789,-0.001113,0.024037,0.059847
790,0.017426,0.024037,0.114086
791,-0.001113,0.024037,0.096007
792,-0.001113,-0.01211,-0.012473
793,-0.019652,-0.048257,-0.066712
794,0.017426,-0.01211,-0.012473
795,-0.038191,0.024037,0.059847
796,0.035965,0.024037,-0.012473
797,0.017426,-0.01211,-0.066712
798,-0.001113,0.005964,-0.048632
799,-0.001113,-0.01211,-0.030552
800,-0.001113,0.005964,0.077927
801,-0.001113,0.005964,0.059847
802,-0.038191,-0.048257,-0.012473
803,-0.019652,-0.01211,-0.030552
804,-0.001113,-0.01211,-0.030552
805,-0.001113,-0.01211,0.023687
806,-0.001113,-0.01211,0.023687
807,0.035965,0.005964,-0.012473
808,0.017426,0.005964,0.077927
809,-0.001113,0.005964,0.023687
810,-0.019652,-0.01211,-0.048632
811,-0.001113,-0.01211,-0.120952
812,-0.019652,-0.030183,-0.102872
813,-0.019652,-0.06633,-0.084792
814,-0.001113,0.005964,-0.066712
815,0.017426,-0.01211,-0.048632
816,-0.019652,-0.01211,0.077927
817,-0.019652,-0.01211,0.059847
818,-0.019652,0.005964,-0.030552
819,-0.019652,0.005964,0.041767
820,-0.038191,0.024037,0.041767
821,-0.001113,0.005964,0.005607
822,-0.001113,-0.01211,-0.012473
823,-0.001113,-0.01211,-0.048632
824,0.017426,0.005964,-0.012473
825,-0.001113,-0.01211,-0.048632
826,-0.001113,-0.01211,-0.012473
827,-0.001113,0.024037,0.041767
828,-0.001113,0.005964,0.077927
829,0.035965,0.005964,0.096007
830,-0.019652,-0.01211,0.041767
831,0.035965,0.005964,0.005607
832,0.017426,0.024037,-0.030552
833,0.017426,0.005964,0.059847
834,0.017426,0.024037,0.077927
835,-0.019652,0.005964,0.041767
836,-0.001113,0.024037,0.041767
837,-0.001113,0.024037,0.132166
838,-0.001113,0.005964,-0.048632
839,-0.019652,-0.030183,-0.120952
840,-0.019652,0.005964,-0.030552
841,0.017426,-0.01211,-0.030552
842,-0.019652,-0.030183,-0.084792
843,-0.001113,-0.01211,0.005607
844,0.017426,0.060184,0.150246
845,0.017426,0.078257,0.204486
846,0.035965,0.024037,0.132166
847,0.017426,0.024037,0.168326
848,0.017426,0.024037,0.096007
849,0.017426,0.005964,0.005607
850,-0.001113,-0.030183,-0.066712
851,0.017426,-0.01211,-0.139032
852,0.017426,-0.01211,-0.175191
853,-0.001113,-0.01211,-0.139032
854,-0.001113,0.024037,0.023687
855,-0.019652,-0.01211,-0.066712
856,-0.001113,0.005964,0.059847
857,0.017426,0.024037,0.222566
858,-0.001113,0.04211,0.114086
859,0.035965,-0.01211,-0.030552
860,-0.001113,-0.030183,-0.211351
861,-0.038191,-0.048257,-0.157112
862,-0.038191,-0.048257,-0.066712
863,-0.038191,-0.030183,-0.157112
864,-0.05673,-0.06633,-0.084792
865,-0.019652,-0.01211,0.096007
866,-0.001113,0.024037,0.186406
867,0.017426,0.024037,0.096007
868,0.017426,0.04211,0.150246
869,0.017426,0.024037,0.059847
870,-0.001113,-0.01211,-0.012473
871,-0.001113,0.005964,0.077927
872,0.017426,0.04211,0.132166
873,0.017426,-0.01211,-0.175191
874,-0.001113,-0.030183,-0.120952
875,0.054504,0.04211,0.041767
876,0.054504,0.078257,0.168326
877,0.035965,0.060184,0.168326
878,0.035965,0.04211,0.132166
879,0.017426,0.04211,0.023687
880,-0.001113,-0.030183,-0.102872
881,-0.038191,-0.030183,-0.157112
882,-0.05673,-0.06633,-0.048632
883,-0.038191,-0.030183,-0.066712
884,-0.038191,-0.06633,-0.229431
885,-0.05673,-0.06633,-0.33791
886,-0.038191,-0.06633,-0.35599
887,-0.019652,-0.048257,-0.283671
888,-0.019652,0.005964,0.005607
889,0.035965,0.078257,0.493764
890,0.073044,0.132477,0.493764
891,0.073044,0.132477,0.349125
892,0.035965,0.078257,0.132166
893,-0.038191,-0.048257,-0.211351
894,-0.05673,-0.102477,-0.084792
895,-0.093809,-0.12055,-0.175191
896,-0.05673,-0.030183,-0.012473
897,0.035965,0.078257,0.023687
898,0.054504,0.096331,0.132166
899,0.035965,0.060184,0.439524
900,0.035965,0.060184,0.222566
901,0.091583,0.04211,-0.048632
902,-0.019652,0.024037,-0.012473
903,-0.001113,-0.06633,-0.066712
904,-0.019652,-0.030183,-0.102872
905,-0.019652,-0.030183,-0.139032
906,-0.038191,-0.01211,-0.139032
907,-0.001113,-0.01211,-0.102872
908,-0.019652,-0.048257,-0.247511
909,-0.001113,-0.048257,-0.30175
910,-0.001113,-0.048257,-0.102872
911,0.017426,0.04211,0.331045
912,0.017426,0.024037,0.276805
913,0.017426,0.060184,0.331045
914,-0.019652,0.04211,0.276805
915,-0.019652,0.005964,-0.048632
916,-0.001113,0.024037,-0.084792
917,0.054504,0.060184,-0.102872
918,0.017426,0.005964,-0.211351
919,-0.001113,-0.01211,-0.102872
920,-0.001113,-0.01211,-0.157112
921,-0.038191,-0.030183,-0.084792
922,-0.001113,-0.01211,-0.139032
923,-0.019652,-0.01211,-0.120952
924,-0.019652,0.005964,-0.030552
925,-0.001113,0.005964,0.005607
926,-0.001113,0.005964,0.240646
927,0.035965,0.060184,0.493764
928,0.073044,0.096331,0.349125
929,0.035965,0.078257,0.132166
930,-0.05673,-0.048257,-0.175191
931,-0.093809,-0.102477,-0.247511
932,-0.07527,-0.12055,-0.31983
933,-0.038191,-0.030183,-0.157112
934,-0.001113,-0.01211,-0.030552
935,-0.038191,-0.01211,0.059847
936,0.017426,0.005964,0.132166
937,0.017426,0.04211,0.059847
938,0.017426,-0.030183,-0.229431
939,0.035965,0.005964,-0.229431
940,0.073044,0.060184,-0.157112
941,0.091583,0.060184,-0.066712
942,-0.038191,0.005964,0.186406
943,-0.07527,-0.048257,0.475684
944,-0.05673,0.060184,0.728802
945,-0.019652,0.060184,0.457604
946,-0.001113,0.024037,0.114086
947,-0.001113,0.024037,-0.012473
948,-0.019652,-0.030183,-0.120952
949,-0.019652,-0.030183,-0.175191
950,-0.019652,-0.01211,-0.084792
951,0.035965,0.024037,-0.066712
952,0.035965,0.024037,-0.084792
953,0.110122,0.096331,0.168326
954,0.073044,0.060184,-0.048632
955,-0.001113,-0.06633,-0.572948
956,-0.07527,-0.156697,-0.681428
957,-0.093809,-0.17477,-0.193271
958,-0.05673,-0.06633,0.005607
959,-0.019652,-0.048257,-0.175191
960,-0.019652,0.024037,0.294885
961,0.054504,0.168624,0.638403
962,0.017426,0.096331,0.294885
963,-0.038191,-0.048257,-0.084792
964,-0.019652,-0.06633,-0.265591
965,-0.038191,-0.06633,-0.175191
966,-0.038191,-0.01211,0.041767
967,-0.001113,0.005964,0.367205
968,0.073044,0.096331,0.186406
969,0.110122,0.168624,0.222566
970,0.091583,0.114404,0.005607
971,-0.001113,-0.01211,-0.30175
972,-0.038191,-0.084403,-0.33791
973,-0.07527,-0.06633,-0.012473
974,-0.07527,-0.048257,-0.048632
975,-0.038191,0.04211,0.096007
976,-0.001113,0.04211,0.132166
977,-0.001113,0.04211,0.204486
978,-0.001113,0.005964,-0.175191
979,0.017426,-0.01211,-0.084792
980,0.035965,0.04211,0.096007
981,0.035965,0.005964,-0.084792
982,-0.001113,0.005964,-0.084792
983,-0.001113,-0.048257,-0.609108
984,-0.05673,-0.138624,-0.826067
985,-0.05673,-0.06633,-0.139032
986,-0.019652,0.078257,0.764962
987,-0.038191,0.04211,0.674562
988,-0.001113,0.024037,0.294885
989,-0.038191,0.024037,0.114086
990,-0.019652,0.005964,0.041767
991,-0.038191,-0.030183,-0.157112
992,-0.001113,0.005964,0.114086
993,0.035965,0.060184,0.240646
994,0.035965,0.060184,0.331045
995,0.035965,0.096331,0.294885
996,-0.019652,0.04211,0.132166
997,0.035965,0.060184,0.204486
998,0.017426,0.060184,0.168326
999,-0.019652,-0.030183,-0.084792
1000,-0.019652,-0.06633,-0.41023
1001,-0.001113,-0.048257,-0.39215
1002,0.017426,0.005964,-0.157112
1003,-0.001113,-0.030183,0.005607
1004,-0.038191,-0.030183,-0.084792
1005,-0.038191,-0.084403,-0.591028
1006,-0.019652,-0.048257,-0.482549
1007,0.017426,0.005964,-0.247511
1008,0.035965,0.04211,0.222566
1009,-0.038191,0.005964,0.186406
1010,-0.093809,-0.084403,-0.283671
1011,-0.112348,-0.084403,-0.012473
1012,-0.038191,0.005964,0.457604
1013,0.054504,0.114404,0.674562
1014,0.091583,0.132477,0.349125
1015,0.073044,0.078257,0.096007
1016,-0.001113,-0.048257,-0.283671
1017,-0.038191,-0.084403,-0.193271
1018,-0.001113,0.005964,0.222566
1019,0.017426,0.078257,0.240646
1020,-0.001113,0.04211,-0.030552
1021,-0.07527,-0.030183,-0.157112
1022,-0.07527,-0.030183,0.005607
1023,-0.019652,-0.01211,0.059847
1024,-0.019652,-0.01211,-0.012473
1025,-0.019652,-0.030183,-0.084792
1026,-0.038191,-0.030183,0.041767
1027,-0.001113,0.005964,0.168326
1028,0.035965,0.024037,-0.030552
1029,0.017426,-0.01211,-0.283671
1030,0.017426,0.005964,-0.157112
1031,0.017426,0.04211,0.041767
1032,-0.001113,0.005964,-0.31983
1033,-0.019652,-0.06633,-0.42831
1034,-0.05673,-0.102477,-0.265591
1035,-0.05673,-0.030183,0.294885
1036,-0.001113,0.060184,0.493764
1037,0.017426,0.078257,0.096007
1038,0.035965,0.078257,-0.012473
1039,-0.001113,0.04211,-0.102872
1040,-0.019652,-0.030183,-0.066712
1041,0.017426,0.04211,0.276805
1042,-0.001113,0.04211,0.258725
1043,-0.001113,-0.01211,-0.012473
1044,0.054504,0.096331,0.385284
1045,0.035965,0.078257,0.168326
1046,-0.038191,-0.06633,-0.500629
1047,-0.112348,-0.12055,-0.572948
1048,-0.019652,-0.030183,-0.120952
1049,0.017426,-0.048257,0.005607
1050,0.017426,0.024037,0.132166
1051,-0.001113,-0.01211,-0.193271
1052,-0.038191,-0.030183,-0.247511
1053,-0.093809,-0.048257,0.041767
1054,-0.05673,0.005964,0.331045
1055,-0.019652,0.060184,0.294885
1056,0.035965,0.078257,0.204486
1057,0.054504,0.060184,0.367205
1058,-0.001113,0.078257,0.349125
1059,0.017426,0.04211,0.077927
1060,-0.001113,-0.01211,-0.283671
1061,-0.019652,-0.048257,-0.39215
1062,0.017426,-0.048257,-0.139032
1063,0.017426,-0.030183,0.222566
1064,0.091583,0.096331,0.258725
1065,0.054504,0.078257,-0.193271
1066,-0.038191,-0.084403,-0.41023
1067,-0.112348,-0.156697,-0.35599
1068,-0.07527,-0.030183,0.240646
1069,-0.001113,0.060184,0.385284
1070,-0.001113,0.005964,-0.012473
1071,-0.019652,-0.01211,-0.175191
1072,-0.019652,0.005964,-0.283671
1073,0.017426,-0.048257,-0.500629
1074,-0.019652,-0.048257,-0.42831
1075,-0.019652,-0.01211,0.132166
1076,0.110122,0.186697,1.126559
1077,0.1472,0.258991,1.0
1078,0.110122,0.114404,0.276805
1079,-0.093809,-0.102477,-0.41023
1080,-0.130887,-0.12055,-0.102872
1081,-0.07527,-0.06633,0.150246
1082,-0.019652,0.005964,0.059847
1083,-0.001113,-0.01211,-0.175191
1084,-0.019652,-0.06633,-0.42831
1085,-0.019652,-0.01211,-0.39215
1086,0.035965,0.005964,-0.012473
1087,0.054504,0.078257,0.240646
1088,0.054504,0.078257,0.403364
1089,-0.001113,0.04211,0.186406
1090,-0.001113,-0.030183,-0.211351
1091,-0.07527,-0.138624,-0.482549
1092,-0.112348,-0.17477,-0.681428
1093,-0.07527,-0.12055,-0.157112
1094,-0.038191,-0.01211,0.150246
1095,-0.001113,0.060184,0.096007
1096,0.017426,0.060184,0.077927
1097,0.054504,0.060184,0.168326
1098,0.017426,-0.030183,0.059847
1099,-0.001113,0.005964,-0.030552
1100,0.054504,0.096331,0.294885
1101,0.054504,0.078257,0.331045
1102,0.017426,0.04211,0.276805
1103,-0.001113,-0.01211,-0.048632
1104,-0.019652,-0.030183,-0.102872
1105,-0.019652,-0.01211,-0.120952
1106,-0.07527,-0.06633,-0.265591
1107,-0.05673,-0.084403,-0.39215
1108,-0.038191,-0.048257,-0.681428
1109,-0.019652,-0.048257,-0.645268
1110,0.017426,-0.01211,0.023687
1111,-0.038191,0.024037,0.602243
1112,0.035965,0.132477,0.801121
1113,0.091583,0.150551,0.638403
1114,0.091583,0.168624,0.529923
1115,-0.019652,0.04211,0.258725
1116,-0.05673,-0.06633,-0.211351
1117,-0.038191,-0.048257,-0.157112
1118,-0.019652,-0.030183,-0.175191
1119,-0.038191,-0.030183,0.041767
1120,-0.001113,0.005964,0.023687
1121,-0.001113,0.005964,-0.030552
1122,0.017426,0.005964,-0.066712
1123,-0.001113,-0.048257,-0.175191
1124,-0.019652,-0.030183,-0.229431
1125,-0.05673,-0.084403,-0.30175
1126,-0.038191,-0.030183,0.096007
1127,0.017426,0.060184,0.421444
1128,0.054504,0.078257,0.222566
1129,0.035965,0.060184,-0.030552
1130,-0.001113,-0.01211,-0.31983
1131,-0.038191,-0.030183,-0.048632
1132,-0.019652,-0.01211,0.150246
1133,-0.05673,-0.06633,-0.048632
1134,-0.093809,-0.06633,-0.39215
1135,-0.07527,-0.084403,-0.536789
1136,-0.019652,-0.048257,-0.536789
1137,-0.019652,-0.048257,-0.37407
1138,0.017426,0.024037,0.204486
1139,0.017426,0.04211,0.240646
1140,-0.001113,0.024037,0.276805
1141,0.017426,0.060184,0.077927
1142,0.073044,0.114404,0.077927
1143,0.091583,0.078257,0.041767
1144,0.017426,0.060184,0.077927
1145,-0.038191,0.005964,0.150246
1146,-0.019652,0.04211,0.258725
1147,-0.019652,-0.030183,0.222566
1148,-0.05673,-0.030183,0.222566
1149,-0.07527,-0.030183,-0.120952
1150,-0.038191,-0.06633,-0.283671
1151,-0.038191,-0.030183,0.077927
1152,-0.019652,-0.01211,0.186406
1153,-0.001113,0.04211,0.240646
1154,0.035965,0.060184,0.096007
1155,0.035965,0.04211,-0.102872
1156,0.035965,0.024037,-0.139032
1157,-0.001113,-0.048257,-0.157112
1158,-0.001113,0.005964,-0.030552
1159,0.110122,0.078257,0.041767
1160,0.073044,0.078257,-0.193271
1161,-0.019652,-0.048257,-0.265591
1162,-0.093809,-0.102477,0.096007
1163,-0.093809,-0.06633,0.168326
1164,0.017426,0.024037,0.186406
1165,-0.001113,0.04211,0.150246
1166,0.035965,0.04211,0.041767
1167,-0.019652,0.005964,0.041767
1168,-0.001113,-0.048257,-0.048632
1169,-0.019652,0.005964,-0.084792
1170,0.017426,-0.01211,-0.084792
1171,0.017426,0.005964,0.041767
1172,0.073044,0.04211,-0.084792
1173,-0.001113,0.024037,0.041767
1174,-0.038191,0.005964,0.132166
1175,-0.038191,-0.01211,0.222566
1176,0.035965,0.04211,0.186406
1177,0.054504,0.060184,0.150246
1178,0.054504,0.024037,-0.157112
1179,0.035965,0.005964,-0.446389
1180,-0.07527,-0.12055,-0.536789
1181,-0.112348,-0.102477,0.096007
1182,-0.038191,0.005964,0.204486
1183,0.017426,0.04211,0.294885
1184,-0.019652,0.024037,0.294885
1185,-0.019652,-0.030183,0.059847
1186,-0.05673,-0.048257,-0.211351
1187,-0.038191,-0.06633,-0.35599
1188,-0.019652,-0.048257,-0.283671
1189,-0.001113,-0.01211,0.096007
1190,0.035965,0.060184,0.186406
1191,0.073044,0.096331,0.114086
1192,-0.001113,0.005964,0.005607
1193,-0.001113,0.024037,0.132166
1194,-0.019652,0.024037,0.150246
1195,-0.05673,-0.030183,0.096007
1196,0.035965,0.04211,-0.048632
1197,0.054504,0.060184,-0.102872
1198,-0.001113,-0.048257,-0.33791
1199,-0.05673,-0.084403,-0.211351
1200,-0.112348,-0.084403,0.168326
1201,-0.019652,0.04211,0.204486
1202,0.017426,0.04211,0.114086
1203,0.017426,0.005964,0.077927
1204,0.054504,0.060184,-0.030552
1205,0.073044,0.024037,-0.247511
1206,-0.019652,-0.048257,-0.247511
1207,-0.05673,-0.06633,-0.157112
1208,-0.019652,0.024037,0.077927
1209,0.017426,0.024037,0.150246
1210,0.017426,-0.030183,-0.084792
1211,-0.019652,0.005964,-0.030552
1212,-0.05673,-0.030183,-0.048632
1213,-0.038191,0.005964,0.041767
1214,0.054504,0.096331,0.294885
1215,0.073044,0.132477,0.349125
1216,0.054504,0.078257,0.240646
1217,-0.019652,-0.030183,-0.102872
1218,-0.038191,-0.048257,-0.229431
1219,-0.019652,-0.030183,-0.211351
1220,-0.001113,-0.01211,-0.048632
1221,-0.019652,-0.01211,-0.030552
1222,-0.05673,-0.06633,0.077927
1223,-0.093809,-0.06633,0.096007
1224,-0.019652,0.005964,-0.048632
1225,0.017426,0.04211,-0.048632
1226,0.035965,0.060184,0.041767
1227,0.017426,0.005964,-0.012473
1228,-0.019652,-0.01211,-0.012473
1229,0.017426,0.024037,-0.012473
1230,0.017426,0.04211,0.005607
1231,0.017426,0.005964,-0.048632
1232,-0.019652,-0.01211,-0.102872
1233,0.017426,0.024037,0.077927
1234,-0.001113,0.04211,0.114086
1235,-0.001113,0.024037,0.114086
1236,0.017426,0.04211,0.059847
1237,0.054504,0.04211,0.041767
1238,0.017426,-0.030183,-0.229431
1239,-0.07527,-0.12055,-0.699508
1240,-0.093809,-0.156697,-0.518709
1241,-0.07527,-0.084403,-0.193271
1242,0.017426,0.04211,0.367205
1243,0.054504,0.150551,0.710722
1244,0.073044,0.168624,0.439524
1245,0.054504,0.096331,0.204486
1246,-0.038191,0.005964,0.114086
1247,-0.038191,-0.030183,0.041767
1248,-0.001113,-0.01211,-0.012473
1249,-0.001113,-0.01211,-0.084792
1250,0.017426,-0.030183,-0.157112
1251,0.054504,0.024037,-0.102872
1252,0.073044,0.04211,0.023687
1253,0.054504,0.04211,0.150246
1254,-0.07527,-0.06633,0.059847
1255,-0.093809,-0.12055,-0.283671
1256,-0.05673,-0.06633,-0.35599
1257,-0.001113,-0.01211,-0.30175
1258,0.017426,0.024037,0.005607
1259,0.035965,0.060184,0.421444
1260,0.035965,0.060184,0.403364
1261,0.091583,0.096331,0.258725
1262,0.054504,0.078257,0.114086
1263,0.017426,-0.01211,-0.120952
1264,0.017426,-0.048257,-0.102872
1265,0.035965,0.005964,0.168326
1266,0.035965,0.060184,0.204486
1267,0.035965,0.060184,0.005607
1268,-0.07527,-0.084403,-0.464469
1269,-0.149426,-0.138624,-0.572948
1270,-0.130887,-0.084403,-0.102872
1271,-0.07527,0.005964,0.077927
1272,0.017426,0.078257,0.114086
1273,-0.001113,0.078257,0.059847
1274,-0.001113,0.005964,-0.030552
1275,-0.019652,0.024037,0.041767
1276,-0.07527,0.005964,0.059847
1277,-0.07527,-0.048257,-0.193271
1278,-0.05673,-0.048257,-0.048632
1279,-0.001113,-0.01211,0.041767
1280,0.035965,0.04211,0.132166
1281,0.054504,0.024037,-0.102872
1282,-0.038191,-0.06633,-0.33791
1283,-0.001113,0.005964,0.059847
1284,0.017426,0.060184,0.349125
1285,0.035965,0.060184,0.222566
1286,0.017426,0.024037,-0.066712
1287,-0.001113,0.024037,-0.084792
1288,0.017426,0.04211,0.077927
1289,0.091583,0.04211,0.312965
1290,0.017426,-0.01211,0.168326
1291,-0.019652,-0.030183,-0.030552
1292,-0.001113,0.005964,-0.012473
1293,-0.038191,-0.030183,-0.247511
1294,-0.07527,-0.048257,-0.33791
1295,-0.038191,0.005964,-0.030552
1296,0.017426,0.04211,0.385284
1297,0.017426,0.04211,0.403364
1298,0.017426,0.024037,0.186406
1299,-0.001113,0.04211,-0.048632
1300,0.017426,0.005964,-0.102872
1301,0.054504,0.04211,-0.120952
1302,-0.001113,-0.01211,-0.120952
1303,-0.07527,-0.084403,0.005607
1304,-0.038191,-0.048257,-0.012473
1305,-0.001113,-0.01211,0.005607
1306,0.035965,0.060184,0.041767
1307,0.017426,0.04211,-0.012473
1308,-0.001113,-0.01211,-0.102872
1309,-0.038191,-0.030183,-0.193271
1310,-0.001113,-0.030183,-0.283671
1311,-0.001113,-0.030183,-0.229431
1312,-0.038191,-0.048257,-0.084792
1313,-0.038191,-0.048257,-0.030552
1314,0.054504,0.005964,0.005607
1315,-0.019652,0.024037,0.114086
1316,0.017426,0.024037,0.168326
1317,0.054504,0.078257,0.294885
1318,0.091583,0.078257,0.150246
1319,0.073044,0.078257,-0.139032
1320,-0.038191,-0.084403,-0.518709
1321,-0.093809,-0.12055,-0.37407
1322,-0.019652,-0.030183,0.096007
1323,-0.019652,0.04211,0.421444
1324,0.035965,0.060184,0.294885
1325,-0.001113,0.005964,-0.012473
1326,-0.019652,-0.01211,-0.030552
1327,-0.05673,-0.030183,0.077927
1328,-0.05673,-0.01211,0.132166
1329,0.017426,0.04211,0.276805
1330,0.035965,0.060184,0.150246
1331,-0.001113,0.024037,-0.030552
1332,-0.001113,0.04211,0.005607
1333,0.035965,0.04211,0.023687
1334,0.035965,0.04211,0.077927
1335,-0.001113,-0.01211,-0.030552
1336,-0.019652,-0.030183,-0.030552
1337,-0.001113,-0.01211,-0.030552
1338,-0.019652,-0.048257,-0.30175
1339,-0.093809,-0.084403,-0.283671
1340,-0.07527,-0.084403,-0.139032
1341,-0.019652,0.005964,0.132166
1342,0.017426,0.060184,0.132166
1343,0.054504,0.04211,-0.066712
1344,-0.019652,0.005964,0.023687
1345,-0.019652,0.005964,0.023687
1346,0.017426,0.024037,0.041767
1347,-0.001113,0.024037,0.041767
1348,0.017426,0.024037,-0.030552
1349,0.035965,0.04211,-0.030552
1350,0.035965,0.04211,-0.102872
1351,-0.05673,-0.06633,-0.193271
1352,-0.093809,-0.06633,0.132166
1353,-0.038191,0.024037,0.276805
1354,0.035965,0.04211,-0.030552
1355,0.035965,0.024037,0.077927
1356,0.035965,0.024037,0.041767
1357,-0.019652,-0.01211,0.005607
1358,0.035965,0.060184,0.276805
1359,-0.001113,0.024037,0.005607
1360,0.017426,0.005964,-0.048632
1361,-0.038191,-0.030183,-0.120952
1362,-0.019652,-0.030183,-0.229431
1363,-0.038191,-0.030183,-0.120952
1364,-0.019652,-0.01211,-0.157112
1365,-0.001113,0.005964,-0.120952
1366,-0.019652,-0.048257,-0.012473
1367,-0.038191,-0.01211,0.168326
1368,-0.019652,-0.030183,0.041767
1369,-0.001113,-0.01211,-0.066712
1370,0.017426,-0.01211,-0.175191
1371,0.035965,0.005964,-0.229431
1372,0.017426,0.024037,-0.066712
1373,0.017426,0.024037,0.059847
1374,-0.001113,0.024037,0.385284
1375,0.017426,0.060184,0.475684
1376,0.054504,0.078257,0.349125
1377,0.035965,0.04211,0.168326
1378,-0.038191,-0.06633,-0.193271
1379,-0.112348,-0.138624,-0.35599
1380,-0.112348,-0.12055,-0.30175
1381,-0.038191,-0.01211,-0.084792
1382,0.035965,0.060184,0.023687
1383,0.035965,0.04211,0.132166
1384,0.054504,0.078257,0.168326
1385,0.017426,0.04211,0.077927
1386,-0.001113,0.005964,-0.102872
1387,-0.038191,-0.030183,-0.084792
1388,-0.038191,-0.01211,-0.102872
1389,-0.019652,-0.030183,-0.048632
1390,-0.019652,-0.048257,0.077927
1391,-0.038191,0.024037,0.294885
1392,0.017426,0.060184,0.367205
1393,-0.001113,0.024037,0.023687
1394,-0.001113,0.005964,-0.012473
1395,-0.019652,0.005964,-0.048632
1396,-0.019652,0.024037,-0.084792
1397,-0.07527,-0.030183,-0.139032
1398,-0.001113,0.04211,-0.030552
1399,0.054504,0.04211,0.168326
1400,0.054504,0.060184,-0.012473
1401,0.017426,0.005964,-0.084792
1402,-0.001113,-0.048257,-0.175191
1403,-0.07527,-0.084403,-0.139032
1404,-0.038191,-0.06633,0.023687
1405,-0.038191,0.005964,0.114086
1406,0.017426,-0.01211,0.023687
1407,0.017426,0.024037,-0.030552
1408,-0.001113,-0.01211,0.041767
1409,-0.093809,-0.102477,-0.139032
1410,-0.019652,0.04211,0.222566
1411,0.054504,0.114404,0.150246
1412,0.054504,0.096331,0.114086
1413,0.017426,0.024037,0.096007
1414,0.017426,-0.030183,-0.048632
1415,-0.038191,-0.102477,-0.35599
1416,-0.001113,-0.048257,-0.247511
1417,0.035965,-0.01211,-0.175191
1418,-0.001113,0.024037,0.059847
1419,-0.038191,-0.01211,0.059847
1420,-0.038191,-0.01211,0.005607
1421,-0.019652,-0.01211,-0.102872
1422,-0.019652,0.005964,-0.066712
1423,0.017426,0.04211,0.023687
1424,-0.001113,0.024037,0.132166
1425,-0.001113,0.024037,0.132166
1426,-0.019652,0.060184,0.186406
1427,-0.038191,0.04211,0.240646
1428,0.035965,0.04211,0.222566
1429,0.017426,0.024037,0.059847
1430,0.017426,0.024037,0.023687
1431,-0.038191,-0.048257,-0.33791
1432,-0.07527,-0.06633,-0.482549
1433,-0.038191,-0.084403,-0.42831
1434,-0.019652,-0.030183,-0.030552
1435,-0.05673,-0.030183,0.186406
1436,-0.019652,0.024037,0.150246
1437,0.017426,0.060184,0.150246
1438,0.017426,0.04211,0.096007
1439,-0.001113,0.024037,0.059847
1440,0.017426,0.04211,0.096007
1441,-0.001113,0.04211,0.077927
1442,-0.001113,0.024037,0.059847
1443,-0.001113,-0.01211,-0.066712
1444,-0.019652,-0.048257,-0.175191
1445,-0.05673,-0.01211,0.005607
1446,-0.001113,0.005964,0.005607
1447,-0.001113,-0.01211,-0.157112
1448,0.017426,0.024037,-0.247511
1449,-0.001113,-0.01211,-0.33791
1450,-0.019652,-0.01211,0.041767
1451,-0.001113,0.04211,0.584163
1452,-0.001113,0.078257,0.548003
1453,0.017426,0.04211,0.240646
1454,-0.001113,0.04211,0.114086
1455,-0.038191,0.005964,-0.030552
1456,-0.038191,-0.01211,-0.139032
1457,-0.019652,-0.048257,-0.175191
1458,-0.019652,-0.030183,-0.157112
1459,0.017426,-0.01211,-0.193271
1460,0.035965,0.024037,-0.120952
1461,0.017426,-0.01211,-0.048632
1462,-0.001113,0.024037,0.240646
1463,-0.019652,-0.01211,0.077927
1464,-0.07527,-0.01211,-0.030552
1465,0.035965,0.024037,0.059847
1466,-0.001113,-0.048257,0.023687
1467,-0.019652,-0.01211,-0.102872
1468,-0.019652,0.005964,-0.030552
1469,-0.001113,-0.01211,0.041767
1470,-0.001113,0.024037,0.168326
1471,-0.019652,-0.030183,0.005607
1472,-0.038191,-0.01211,-0.084792
1473,-0.019652,-0.030183,-0.175191
1474,0.017426,0.005964,-0.229431
1475,0.017426,-0.01211,-0.193271
1476,0.017426,0.005964,-0.030552
1477,0.017426,0.060184,0.349125
1478,-0.001113,0.024037,0.222566
1479,0.017426,0.024037,0.059847
1480,-0.001113,0.024037,0.023687
1481,0.017426,0.024037,-0.030552
1482,-0.038191,-0.01211,0.059847
1483,-0.038191,-0.030183,-0.048632
1484,-0.038191,-0.01211,-0.102872
1485,-0.038191,0.005964,-0.066712
1486,-0.019652,-0.01211,0.041767
1487,-0.001113,0.005964,0.132166
1488,0.017426,0.04211,0.186406
1489,0.035965,0.04211,-0.030552
1490,0.017426,0.04211,-0.139032
1491,-0.038191,-0.030183,0.023687
1492,-0.019652,0.024037,0.132166
1493,-0.001113,-0.01211,0.041767
1494,-0.038191,-0.030183,-0.102872
1495,-0.038191,-0.01211,-0.102872
1496,-0.001113,-0.01211,0.023687
1497,-0.019652,0.005964,0.023687
1498,-0.001113,0.024037,-0.084792
1499,0.035965,0.024037,-0.175191
1500,-0.038191,-0.01211,-0.120952
1501,-0.038191,-0.030183,-0.030552
1502,-0.05673,-0.030183,0.023687
1503,-0.001113,0.024037,0.114086
1504,-0.001113,0.005964,0.096007
1505,0.017426,0.024037,0.059847
1506,-0.001113,-0.01211,0.041767
1507,-0.001113,-0.030183,-0.030552
1508,-0.038191,-0.030183,-0.120952
1509,-0.001113,0.005964,-0.084792
1510,-0.019652,0.005964,0.005607
1511,-0.001113,0.005964,0.005607
1512,-0.001113,0.024037,0.041767
1513,0.035965,0.04211,0.132166
1514,0.017426,0.024037,0.168326
1515,-0.019652,0.005964,0.005607
1516,-0.019652,-0.01211,-0.084792
1517,-0.038191,-0.030183,-0.084792
1518,-0.038191,-0.030183,0.005607
1519,-0.001113,-0.01211,-0.066712
1520,-0.001113,0.024037,0.041767
1521,0.035965,0.04211,0.077927
1522,0.035965,0.024037,-0.030552
1523,-0.019652,-0.01211,-0.012473
1524,-0.038191,-0.01211,-0.120952
1525,-0.001113,-0.01211,-0.102872
1526,-0.001113,0.04211,0.059847
1527,0.035965,0.078257,0.276805
1528,0.035965,0.024037,0.204486
1529,-0.019652,0.005964,0.023687
1530,-0.019652,-0.01211,-0.012473
1531,-0.038191,-0.01211,-0.066712
1532,-0.038191,-0.01211,-0.066712
1533,0.017426,0.024037,0.023687
1534,0.035965,0.024037,0.059847
1535,-0.001113,-0.01211,0.077927
1536,-0.019652,-0.030183,-0.012473
1537,-0.019652,0.005964,-0.012473
1538,-0.001113,0.005964,-0.012473
1539,-0.019652,0.005964,0.005607
1540,-0.001113,0.005964,-0.030552
1541,-0.019652,-0.01211,-0.084792
1542,-0.019652,-0.030183,-0.048632
1543,-0.001113,-0.01211,-0.030552
1544,0.017426,-0.030183,-0.048632
1545,-0.001113,-0.01211,-0.012473
1546,-0.019652,-0.01211,-0.048632
1547,-0.001113,0.005964,-0.048632
1548,-0.019652,-0.01211,0.023687
1549,-0.019652,-0.01211,0.005607
1550,-0.001113,-0.01211,-0.012473
1551,-0.001113,0.024037,0.041767
1552,0.017426,0.005964,0.059847
1553,0.017426,-0.01211,-0.012473
1554,-0.001113,-0.01211,0.005607
1555,-0.001113,-0.01211,0.005607
1556,-0.019652,0.005964,-0.012473
1557,0.017426,0.04211,0.041767
1558,-0.001113,0.024037,0.005607
1559,0.017426,0.024037,0.005607
1560,-0.001113,0.024037,0.005607
1561,-0.001113,0.024037,0.005607
1562,-0.001113,0.024037,0.041767
1563,-0.001113,0.024037,0.041767
1564,-0.038191,-0.01211,-0.012473
1565,-0.019652,0.005964,-0.012473
1566,0.017426,0.024037,0.041767
1567,0.017426,0.024037,0.041767
1568,0.017426,-0.01211,-0.012473
1569,0.017426,-0.01211,0.005607
1570,-0.001113,-0.01211,0.059847
1571,-0.019652,-0.01211,-0.030552
1572,-0.001113,-0.01211,0.023687
1573,-0.019652,0.005964,0.005607
1574,-0.001113,-0.01211,0.005607
1575,-0.001113,0.005964,-0.030552
1576,-0.019652,0.005964,-0.030552
1577,-0.001113,0.005964,-0.012473
1578,0.054504,0.005964,-0.048632
1579,0.017426,0.024037,0.005607
1580,-0.001113,0.005964,0.005607
1581,-0.019652,0.005964,-0.012473
1582,-0.019652,0.005964,0.023687
1583,0.017426,-0.030183,-0.012473
1584,-0.001113,0.005964,0.005607
1585,-0.001113,0.005964,0.023687
1586,-0.038191,-0.01211,0.023687
1587,-0.019652,-0.01211,0.041767
1588,-0.001113,0.005964,0.023687
1589,0.017426,0.005964,0.005607
1590,0.035965,0.005964,0.041767
1591,0.017426,0.024037,0.023687
1592,-0.001113,0.005964,-0.012473
1593,-0.001113,0.005964,-0.030552
1594,-0.019652,0.005964,-0.012473
1595,-0.001113,0.005964,-0.030552
1596,-0.001113,0.024037,-0.012473
1597,-0.001113,0.005964,0.005607
1598,-0.001113,0.005964,-0.012473
1599,-0.001113,0.005964,0.005607
1600,-0.001113,-0.01211,0.041767
1601,-0.001113,-0.01211,0.041767
1602,0.017426,0.005964,0.059847
1603,0.017426,0.024037,0.077927
1604,-0.019652,0.005964,0.077927
1605,0.035965,0.04211,0.023687
1606,0.054504,0.024037,-0.048632
1607,0.054504,0.005964,-0.048632
1608,0.035965,0.005964,0.005607
1609,0.054504,-0.01211,0.005607
1610,0.054504,0.005964,-0.030552
1611,0.035965,-0.01211,-0.030552
1612,-0.001113,-0.030183,-0.012473
1613,0.017426,-0.01211,-0.030552
1614,-0.019652,-0.01211,-0.012473
1615,-0.019652,0.024037,0.023687
1616,0.017426,0.005964,0.005607
1617,0.017426,0.024037,0.023687
1618,-0.019652,0.024037,0.005607
1619,-0.038191,0.005964,0.023687
1620,-0.07527,0.005964,0.005607
1621,-0.130887,0.024037,0.023687
1622,-0.07527,0.005964,0.059847
1623,-0.038191,0.005964,0.023687
1624,-0.019652,0.005964,-0.012473
1625,-0.019652,0.005964,0.023687
1626,-0.001113,0.005964,0.005607
1627,-0.038191,-0.030183,-0.012473
1628,0.017426,0.024037,0.005607
1629,-0.001113,-0.01211,-0.012473
1630,0.017426,-0.01211,-0.048632
1631,-0.001113,0.005964,-0.030552
1632,-0.001113,0.005964,-0.012473
1633,-0.001113,0.005964,0.023687
1634,-0.001113,0.005964,-0.012473
1635,-0.001113,0.024037,0.005607
1636,0.017426,0.024037,0.023687
1637,0.017426,0.005964,0.005607
1638,-0.001113,0.005964,0.005607
1639,-0.019652,0.005964,0.023687
1640,-0.05673,0.005964,-0.012473
1641,-0.001113,-0.01211,-0.012473
1642,0.017426,0.005964,0.005607
1643,0.035965,0.024037,0.005607
1644,0.017426,0.024037,-0.012473
1645,0.017426,0.005964,-0.030552
1646,-0.001113,0.005964,-0.012473
1647,0.017426,-0.01211,0.005607
1648,-0.001113,0.005964,0.005607
1649,-0.001113,0.005964,0.005607
1650,0.017426,0.096331,0.005607
1651,-0.001113,0.005964,0.041767
1652,-0.019652,-0.01211,0.005607
1653,-0.019652,0.005964,0.005607
1654,0.017426,0.005964,0.023687
1655,-0.019652,0.005964,0.005607
1656,-0.001113,0.024037,0.023687
1657,-0.001113,0.005964,0.005607
1658,-0.001113,-0.01211,-0.012473
1659,0.017426,-0.01211,-0.030552
1660,-0.019652,0.005964,0.005607
1661,-0.001113,0.005964,-0.012473
1662,-0.001113,-0.01211,-0.048632
1663,-0.001113,0.005964,-0.012473
1664,0.017426,0.005964,0.005607
1665,-0.019652,0.005964,0.005607
1666,0.017426,0.04211,0.041767
1667,-0.019652,0.005964,0.023687
1668,-0.001113,0.005964,0.023687
1669,-0.001113,0.005964,0.005607
1670,-0.001113,0.005964,0.005607
1671,-0.001113,0.005964,-0.012473
1672,-0.019652,-0.01211,-0.012473
1673,0.017426,0.005964,-0.012473
1674,-0.001113,-0.01211,0.005607
1675,-0.019652,0.005964,-0.012473
1676,-0.019652,0.024037,-0.012473
1677,0.017426,0.005964,-0.030552
1678,-0.001113,0.005964,-0.012473
1679,-0.001113,0.024037,-0.030552
1680,0.017426,0.005964,-0.012473
1681,0.035965,0.005964,0.023687
1682,0.017426,0.005964,-0.030552
1683,0.035965,0.005964,-0.012473
1684,-0.001113,0.005964,0.005607
1685,-0.001113,0.005964,0.023687
1686,-0.038191,0.024037,0.041767
1687,-0.038191,0.005964,0.023687
1688,-0.038191,0.024037,0.041767
1689,-0.001113,0.024037,0.059847
1690,-0.038191,0.04211,0.023687
1691,-0.001113,0.005964,0.023687
1692,-0.001113,0.005964,0.005607
1693,-0.001113,0.024037,-0.030552
1694,-0.001113,0.024037,-0.030552
1695,-0.001113,0.024037,0.023687
1696,-0.001113,0.005964,-0.030552
1697,-0.019652,0.005964,-0.012473
1698,-0.019652,0.005964,0.005607
1699,-0.001113,0.005964,0.005607
1700,-0.001113,-0.01211,-0.030552
1701,-0.001113,-0.01211,0.005607
1702,-0.001113,0.005964,0.005607
1703,-0.001113,0.005964,0.005607
1704,-0.001113,0.005964,0.005607
1705,-0.001113,0.005964,0.041767
1706,-0.001113,0.024037,0.023687
1707,-0.001113,0.024037,0.005607
1708,-0.001113,0.005964,-0.012473
1709,-0.001113,-0.01211,0.005607
1710,0.017426,0.005964,-0.012473
1711,-0.019652,0.005964,-0.030552
1712,-0.019652,-0.01211,0.005607
1713,-0.001113,0.005964,-0.030552
1714,0.035965,0.005964,-0.030552
1715,0.073044,0.005964,-0.012473
1716,0.035965,0.024037,0.005607
1717,0.035965,0.005964,0.005607
1718,-0.019652,-0.01211,-0.012473
1719,-0.019652,-0.01211,0.005607
1720,-0.019652,0.005964,0.005607
1721,-0.05673,0.005964,0.005607
1722,-0.001113,0.005964,0.005607
1723,0.035965,0.04211,0.005607
1724,-0.001113,0.024037,-0.012473
1725,-0.001113,0.024037,-0.012473
1726,-0.001113,0.024037,-0.012473
1727,-0.001113,0.024037,0.005607
1728,-0.019652,0.024037,-0.030552
1729,-0.019652,0.005964,-0.012473
1730,-0.019652,0.005964,0.023687
1731,-0.019652,0.005964,0.005607
1732,-0.019652,-0.01211,0.005607
1733,-0.001113,-0.01211,0.005607
1734,-0.001113,0.005964,0.005607
1735,0.017426,0.024037,-0.012473
1736,-0.001113,0.005964,0.023687
1737,-0.001113,0.005964,0.005607
1738,-0.019652,0.005964,0.005607
1739,-0.001113,0.005964,-0.012473
1740,-0.038191,0.005964,0.023687
1741,-0.001113,0.024037,0.005607
1742,-0.001113,0.024037,-0.012473
1743,-0.019652,0.04211,0.005607
1744,0.017426,0.005964,0.005607
1745,-0.001113,0.005964,-0.048632
1746,-0.001113,0.005964,0.005607
1747,-0.001113,0.005964,0.023687
1748,0.017426,-0.01211,0.041767
1749,0.017426,0.024037,0.005607
1750,-0.001113,0.005964,0.005607
1751,-0.05673,0.005964,0.005607
1752,-0.019652,0.005964,0.005607
1753,-0.038191,0.005964,0.005607
1754,-0.019652,0.005964,0.023687
1755,-0.019652,-0.01211,-0.012473
1756,-0.001113,-0.01211,-0.012473
1757,-0.001113,0.005964,0.005607
1758,-0.001113,0.005964,-0.012473
1759,-0.019652,0.024037,-0.012473
1760,0.017426,0.024037,-0.012473
1761,-0.001113,0.005964,0.005607
1762,-0.001113,0.005964,-0.012473
1763,-0.019652,-0.01211,0.005607
1764,-0.001113,0.005964,0.005607
1765,-0.001113,0.005964,0.005607
1766,-0.001113,0.005964,0.005607
1767,-0.001113,0.005964,0.041767
1768,-0.001113,0.024037,0.023687
1769,-0.001113,0.024037,-0.012473
1770,-0.001113,0.005964,-0.012473
1771,0.017426,0.005964,0.005607
1772,0.017426,0.005964,0.005607
1773,-0.001113,0.024037,-0.012473
1774,-0.001113,0.024037,-0.030552
1775,0.017426,0.024037,0.005607
1776,-0.019652,0.005964,-0.030552
1777,-0.001113,0.005964,-0.012473
1778,-0.019652,0.024037,0.005607
1779,-0.001113,0.005964,-0.012473
1780,-0.001113,0.005964,0.005607
1781,0.017426,0.005964,0.005607
1782,0.017426,0.005964,0.023687
1783,0.017426,0.005964,0.023687
1784,-0.001113,-0.01211,0.005607
1785,-0.001113,0.005964,0.005607
1786,-0.038191,0.024037,0.005607
1787,-0.038191,0.005964,0.005607
1788,-0.019652,0.005964,0.023687
1789,-0.038191,0.024037,0.005607
1790,-0.019652,0.024037,-0.012473
1791,-0.019652,0.024037,-0.030552
1792,-0.001113,0.024037,0.005607
1793,-0.019652,0.024037,-0.012473
1794,0.017426,0.005964,-0.048632
1795,-0.001113,0.005964,0.005607
1796,-0.019652,0.024037,0.005607
1797,0.017426,0.005964,-0.012473
1798,-0.019652,0.005964,0.005607
1799,-0.038191,0.04211,0.023687
1800,-0.001113,0.024037,0.023687
1801,-0.038191,0.005964,0.005607
1802,0.017426,0.024037,0.023687
1803,0.035965,0.005964,-0.012473
1804,0.035965,0.024037,-0.012473
1805,0.017426,0.024037,-0.030552
1806,0.017426,0.005964,-0.030552
1807,-0.019652,0.005964,0.005607
1808,-0.001113,0.024037,-0.012473
1809,0.017426,0.005964,0.005607
1810,-0.019652,0.024037,-0.012473
1811,-0.05673,0.005964,-0.030552
1812,-0.019652,0.04211,-0.012473
1813,-0.001113,0.005964,0.005607
1814,-0.019652,0.005964,0.023687
1815,-0.019652,0.024037,0.005607
1816,-0.001113,0.024037,0.023687
1817,-0.019652,0.005964,0.023687
1818,-0.038191,0.005964,0.005607
1819,-0.001113,0.005964,0.005607
1820,-0.019652,0.005964,0.023687
1821,-0.019652,0.005964,0.005607
1822,-0.019652,0.024037,0.005607
1823,-0.019652,0.005964,0.023687
1824,-0.019652,0.005964,0.023687
1825,-0.001113,0.024037,-0.012473
1826,-0.038191,0.024037,-0.012473
1827,-0.019652,0.005964,0.023687
1828,-0.019652,0.005964,0.005607
1829,-0.001113,0.024037,-0.012473
1830,-0.038191,0.005964,0.005607
1831,-0.019652,0.005964,-0.012473
1832,-0.019652,-0.01211,0.005607
1833,-0.019652,0.005964,0.023687
1834,-0.001113,0.024037,0.005607
1835,-0.019652,-0.01211,0.005607
1836,0.017426,0.005964,0.005607
1837,0.017426,0.005964,0.041767
1838,-0.001113,0.024037,0.005607
1839,-0.001113,0.005964,-0.012473
1840,-0.001113,0.005964,-0.030552
1841,-0.038191,0.005964,0.005607
1842,-0.019652,0.005964,-0.012473
1843,-0.001113,0.024037,-0.012473
1844,-0.001113,0.024037,-0.012473
1845,-0.001113,0.005964,-0.012473
1846,-0.019652,0.005964,-0.048632
1847,-0.019652,0.005964,0.005607
1848,-0.001113,0.024037,0.023687
1849,-0.001113,0.005964,0.005607
1850,-0.001113,0.024037,-0.012473
1851,-0.019652,0.005964,0.023687
1852,-0.001113,0.024037,0.005607
1853,0.035965,0.005964,0.005607
1854,-0.001113,-0.01211,0.023687
1855,-0.001113,0.005964,0.005607
1856,-0.001113,0.005964,-0.012473
1857,-0.001113,0.024037,-0.012473
1858,-0.001113,0.005964,-0.012473
1859,-0.001113,0.024037,-0.030552
1860,-0.001113,0.005964,-0.030552
1861,-0.019652,-0.01211,-0.012473
1862,-0.001113,0.005964,0.005607
1863,-0.019652,0.005964,-0.030552
1864,-0.001113,0.005964,-0.012473
1865,0.017426,0.005964,0.023687
1866,-0.001113,0.005964,0.023687
1867,-0.019652,0.024037,0.005607
1868,-0.001113,0.005964,0.005607
1869,-0.001113,0.024037,0.023687
1870,-0.001113,0.005964,0.023687
1871,-0.019652,0.005964,-0.012473
1872,-0.001113,0.005964,0.023687
1873,0.017426,0.005964,0.005607
1874,-0.019652,-0.030183,0.005607
1875,0.017426,0.024037,-0.030552
1876,-0.019652,-0.01211,0.005607
1877,-0.001113,0.005964,-0.030552
1878,-0.019652,0.005964,-0.048632
1879,-0.019652,0.024037,0.005607
1880,-0.001113,0.024037,0.005607
1881,-0.001113,0.005964,-0.012473
1882,0.017426,-0.01211,0.005607
1883,-0.001113,0.005964,0.041767
1884,-0.001113,0.005964,0.005607
1885,0.017426,0.005964,0.005607
1886,-0.019652,0.005964,0.023687
1887,-0.019652,0.005964,0.005607
1888,-0.001113,-0.01211,-0.012473
1889,-0.019652,-0.01211,-0.030552
1890,-0.019652,0.005964,0.005607
1891,-0.001113,0.024037,0.005607
1892,-0.001113,0.005964,-0.012473
1893,-0.001113,0.005964,-0.012473
1894,-0.001113,0.024037,-0.012473
1895,-0.001113,0.024037,-0.012473
1896,-0.001113,0.005964,0.005607
1897,-0.019652,0.005964,0.023687
1898,-0.001113,0.005964,-0.030552
1899,-0.038191,-0.01211,-0.012473
1900,-0.001113,0.005964,0.023687
1901,-0.001113,0.005964,0.023687
1902,-0.001113,-0.01211,0.005607
1903,-0.038191,0.005964,0.005607
1904,-0.001113,0.005964,0.023687
1905,-0.001113,0.005964,0.005607
1906,-0.019652,0.005964,0.005607
1907,0.017426,0.024037,-0.012473
1908,-0.001113,0.005964,0.005607
1909,-0.001113,0.024037,-0.012473
1910,-0.019652,0.005964,-0.030552
1911,-0.001113,0.024037,-0.012473
1912,-0.001113,0.005964,-0.012473
1913,-0.001113,0.005964,-0.012473
1914,-0.001113,0.005964,0.005607
1915,-0.001113,0.024037,0.005607
1916,-0.001113,0.005964,-0.012473
1917,-0.001113,0.005964,0.005607
1918,-0.019652,0.024037,0.023687
1919,-0.001113,0.005964,0.023687
1920,-0.001113,0.024037,0.023687
1921,-0.019652,0.005964,0.023687
1922,-0.001113,0.005964,0.005607
1923,-0.019652,0.005964,0.005607
1924,-0.019652,0.005964,-0.012473
1925,-0.001113,0.005964,0.005607
1926,-0.019652,0.005964,-0.012473
1927,-0.019652,0.024037,-0.012473
1928,-0.001113,0.005964,-0.012473
1929,-0.001113,-0.01211,-0.012473
1930,-0.019652,0.024037,-0.030552
1931,-0.019652,0.005964,-0.030552
1932,-0.001113,0.005964,-0.012473
1933,-0.001113,0.005964,0.041767
1934,-0.019652,0.005964,-0.012473
1935,-0.019652,0.005964,0.005607
1936,-0.001113,-0.030183,0.041767
1937,-0.019652,0.005964,-0.012473
1938,-0.019652,0.005964,0.023687
1939,-0.001113,0.005964,0.005607
1940,-0.019652,0.005964,-0.012473
1941,-0.001113,0.005964,-0.030552
1942,-0.019652,0.005964,0.005607
1943,-0.001113,0.005964,-0.012473
1944,-0.019652,0.005964,-0.012473
1945,0.017426,0.005964,0.005607
1946,-0.001113,-0.01211,0.005607
1947,-0.001113,0.005964,-0.030552
1948,-0.019652,0.005964,-0.012473
1949,-0.001113,0.024037,0.005607
1950,-0.019652,0.005964,0.005607
1951,-0.019652,0.005964,0.023687
1952,-0.001113,0.005964,0.005607
1953,0.017426,0.024037,0.023687
1954,-0.001113,-0.01211,0.023687
1955,0.017426,0.024037,0.005607
1956,-0.001113,-0.01211,0.023687
1957,-0.001113,-0.01211,-0.012473
1958,-0.001113,0.005964,-0.012473
1959,0.035965,0.024037,-0.030552
1960,-0.001113,-0.01211,0.005607
1961,-0.001113,0.005964,-0.012473
1962,-0.019652,0.005964,-0.012473
1963,-0.019652,0.024037,0.005607
1964,-0.001113,-0.01211,-0.048632
1965,-0.001113,-0.01211,-0.012473
1966,-0.019652,0.005964,0.023687
1967,-0.001113,0.005964,0.005607
1968,-0.001113,0.005964,-0.012473
1969,-0.001113,0.005964,0.023687
1970,-0.019652,0.005964,0.041767
1971,-0.001113,0.005964,-0.012473
1972,0.017426,0.005964,-0.030552
1973,0.017426,0.024037,0.005607
1974,-0.001113,0.005964,0.005607
1975,-0.019652,-0.01211,-0.012473
1976,-0.001113,0.024037,-0.012473
1977,-0.019652,0.005964,-0.012473
1978,-0.019652,0.005964,-0.012473
1979,-0.001113,0.005964,-0.012473
1980,-0.001113,0.005964,0.005607
1981,-0.019652,0.005964,-0.012473
1982,-0.019652,0.005964,-0.012473
1983,-0.001113,0.005964,0.005607
1984,-0.001113,0.005964,0.023687
1985,-0.001113,-0.01211,0.023687
1986,-0.019652,-0.01211,0.005607
1987,-0.019652,0.005964,0.023687
1988,0.017426,0.005964,-0.012473
1989,-0.001113,0.005964,-0.012473
1990,0.017426,0.005964,-0.012473
1991,-0.001113,0.005964,0.005607
1992,-0.001113,-0.01211,-0.012473
1993,-0.001113,-0.01211,-0.012473
1994,-0.019652,0.005964,0.005607
1995,-0.019652,-0.01211,-0.012473
1996,-0.001113,0.005964,-0.012473
1997,-0.001113,0.005964,0.005607
1998,-0.001113,-0.01211,0.005607
1999,-0.001113,0.024037,0.005607
2000,-0.001113,0.005964,-0.012473
2001,-0.001113,0.024037,0.023687
2002,-0.019652,0.024037,0.023687
2003,0.017426,0.005964,-0.012473
2004,-0.001113,0.005964,0.023687
2005,-0.001113,0.024037,0.023687
2006,-0.038191,0.005964,0.005607
2007,0.017426,-0.030183,-0.012473
2008,-0.001113,0.005964,0.005607
2009,-0.019652,-0.01211,-0.030552
2010,-0.001113,0.005964,-0.030552
2011,0.017426,0.005964,0.005607
2012,0.017426,0.005964,0.005607
2013,-0.001113,-0.01211,-0.048632
2014,-0.019652,0.024037,-0.012473
2015,-0.001113,0.005964,0.005607
2016,-0.001113,0.005964,0.023687
2017,0.017426,0.005964,-0.030552
2018,-0.019652,0.005964,0.005607
2019,0.017426,0.005964,0.023687
2020,0.017426,0.005964,0.023687
2021,-0.019652,0.005964,-0.012473
2022,-0.001113,0.005964,0.005607
2023,-0.001113,0.005964,-0.012473
2024,-0.019652,-0.01211,-0.012473
2025,-0.001113,0.024037,-0.030552
2026,-0.001113,0.005964,-0.012473
2027,-0.001113,-0.01211,-0.030552
2028,-0.001113,0.005964,-0.012473
2029,-0.019652,0.005964,0.005607
2030,-0.001113,0.024037,-0.012473
2031,-0.019652,0.005964,-0.012473
2032,-0.001113,-0.01211,0.023687
2033,-0.019652,0.005964,0.041767
2034,-0.001113,0.005964,0.005607
2035,-0.019652,-0.01211,0.005607
2036,0.017426,0.005964,0.005607
2037,-0.019652,0.005964,-0.012473
2038,-0.019652,0.005964,-0.012473
2039,-0.001113,0.005964,0.005607
2040,-0.001113,0.005964,0.023687
2041,-0.019652,0.005964,-0.012473
2042,0.017426,0.005964,-0.030552
2043,0.017426,0.005964,-0.012473
2044,-0.001113,-0.01211,-0.012473
2045,-0.001113,-0.01211,-0.030552
2046,-0.001113,0.024037,0.005607
2047,-0.001113,-0.01211,0.005607
2048,-0.019652,0.005964,-0.012473
2049,0.017426,0.005964,0.005607
2050,0.017426,-0.01211,0.023687
2051,-0.001113,0.005964,0.005607
2052,-0.001113,0.024037,-0.012473
2053,-0.001113,0.005964,0.005607
2054,-0.001113,0.024037,0.005607
2055,0.017426,0.005964,-0.030552
2056,-0.001113,0.005964,-0.030552
2057,0.017426,0.005964,0.005607
2058,-0.001113,0.024037,0.005607
2059,-0.019652,0.005964,0.005607
2060,-0.001113,0.005964,0.005607
2061,-0.019652,-0.01211,-0.012473
2062,-0.019652,0.005964,-0.030552
2063,-0.001113,0.005964,0.005607
2064,-0.001113,0.005964,0.005607
2065,-0.001113,0.005964,0.005607
2066,-0.001113,0.005964,0.005607
2067,-0.001113,0.005964,0.005607
2068,-0.001113,0.005964,0.023687
2069,-0.019652,0.005964,0.005607
2070,0.017426,-0.01211,0.023687
2071,0.017426,0.005964,0.023687
2072,-0.001113,0.005964,0.005607
2073,-0.001113,0.005964,-0.012473
2074,-0.019652,0.005964,0.005607
2075,-0.001113,-0.01211,-0.012473
2076,-0.001113,0.005964,-0.012473
2077,-0.001113,0.005964,-0.012473
2078,-0.001113,0.005964,0.005607
2079,-0.019652,0.005964,-0.012473
2080,-0.001113,0.005964,0.005607
2081,-0.001113,0.005964,0.005607
2082,-0.019652,0.005964,0.023687
2083,-0.019652,0.005964,0.005607
2084,-0.019652,-0.01211,0.005607
2085,-0.001113,0.005964,0.023687
2086,-0.001113,0.005964,0.005607
2087,-0.019652,0.005964,0.005607
2088,-0.001113,0.024037,0.023687
2089,-0.019652,0.024037,0.005607
2090,-0.001113,0.005964,0.005607
2091,-0.001113,-0.01211,-0.030552
2092,-0.019652,-0.01211,0.005607
2093,-0.001113,-0.01211,-0.012473
2094,-0.001113,0.005964,-0.012473
2095,-0.001113,-0.01211,0.005607
2096,-0.001113,0.005964,-0.030552
2097,-0.001113,0.005964,-0.030552
2098,-0.019652,0.024037,0.023687
2099,-0.001113,0.005964,0.023687
2100,-0.019652,0.005964,0.023687
2101,-0.001113,-0.01211,0.005607
2102,-0.019652,0.005964,0.023687
2103,-0.001113,0.005964,0.005607
2104,-0.001113,0.005964,-0.012473
2105,0.017426,0.005964,0.059847
2106,-0.001113,-0.01211,0.005607
2107,-0.001113,0.024037,-0.012473
2108,-0.019652,0.005964,-0.012473
2109,0.017426,0.005964,0.005607
2110,-0.038191,-0.01211,-0.012473
2111,-0.001113,0.005964,-0.030552
2112,0.017426,-0.01211,-0.012473
2113,-0.001113,0.024037,0.005607
2114,-0.019652,0.005964,-0.012473
2115,-0.001113,-0.01211,-0.012473
2116,-0.001113,0.005964,0.005607
2117,-0.019652,0.005964,0.041767
2118,-0.019652,-0.01211,0.023687
2119,-0.001113,-0.01211,0.005607
2120,-0.001113,0.005964,0.023687
2121,-0.001113,0.005964,0.005607
2122,0.017426,0.005964,-0.012473
2123,-0.019652,0.024037,0.023687
2124,-0.001113,0.005964,0.005607
2125,0.017426,0.005964,-0.012473
2126,-0.001113,0.005964,-0.012473
2127,-0.019652,0.005964,0.005607
2128,-0.038191,-0.01211,-0.030552
2129,-0.019652,0.005964,-0.030552
2130,-0.019652,0.005964,-0.030552
2131,-0.001113,-0.01211,0.005607
2132,0.017426,0.005964,-0.012473
2133,-0.001113,0.005964,0.023687
2134,-0.001113,0.005964,0.023687
2135,0.017426,0.005964,-0.012473
2136,-0.001113,-0.01211,0.005607
2137,-0.001113,0.005964,0.023687
2138,-0.001113,0.024037,0.023687
2139,-0.001113,0.005964,0.005607
2140,-0.001113,0.024037,0.041767
2141,-0.001113,0.005964,0.023687
2142,-0.001113,0.005964,0.005607
2143,-0.001113,0.024037,-0.030552
2144,-0.001113,-0.01211,0.005607
2145,-0.001113,0.005964,-0.030552
2146,-0.038191,-0.01211,-0.030552
2147,-0.001113,-0.01211,0.005607
2148,-0.001113,0.005964,-0.012473
2149,-0.001113,-0.01211,-0.012473
2150,-0.001113,0.024037,0.005607
2151,-0.001113,-0.01211,0.005607
2152,-0.019652,0.005964,0.005607
2153,-0.038191,-0.01211,0.023687
2154,0.017426,-0.01211,0.023687
2155,-0.019652,0.005964,0.005607
2156,-0.001113,0.005964,0.005607
2157,0.017426,0.024037,-0.012473
2158,-0.001113,0.005964,0.005607
2159,-0.001113,-0.030183,-0.012473
2160,0.017426,0.024037,-0.012473
2161,-0.05673,0.005964,-0.012473
2162,-0.001113,-0.01211,-0.030552
2163,-0.019652,0.005964,-0.030552
2164,-0.001113,0.024037,-0.012473
2165,-0.001113,0.005964,0.005607
2166,-0.001113,0.005964,0.005607
2167,-0.019652,0.005964,-0.012473
2168,-0.001113,-0.01211,0.005607
2169,-0.001113,-0.01211,0.023687
2170,-0.001113,0.024037,0.023687
2171,-0.019652,0.005964,0.023687
2172,-0.001113,0.024037,0.023687
2173,-0.038191,0.005964,0.023687
2174,-0.001113,0.005964,-0.012473
2175,-0.001113,0.005964,-0.030552
2176,0.017426,-0.01211,0.005607
2177,0.017426,0.005964,-0.012473
2178,-0.019652,0.005964,-0.030552
2179,-0.001113,0.005964,0.005607
2180,-0.001113,0.005964,-0.012473
2181,0.017426,0.024037,-0.012473
2182,-0.001113,0.005964,0.005607
2183,-0.019652,-0.01211,0.023687
2184,-0.019652,-0.01211,0.005607
2185,0.017426,-0.01211,0.023687
2186,-0.001113,-0.01211,0.041767
2187,-0.001113,0.04211,0.005607
2188,-0.001113,-0.01211,0.005607
2189,-0.001113,0.005964,0.023687
2190,-0.019652,0.005964,0.005607
2191,-0.001113,0.005964,-0.012473
2192,-0.019652,0.005964,-0.030552
2193,-0.001113,-0.01211,-0.012473
2194,-0.019652,0.005964,-0.012473
2195,-0.001113,-0.030183,-0.030552
2196,0.017426,0.096331,-0.012473
2197,-0.001113,0.024037,0.005607
2198,-0.019652,0.005964,-0.030552
2199,-0.019652,0.024037,0.005607
2200,-0.001113,0.005964,0.023687
2201,-0.001113,0.005964,0.023687
2202,-0.001113,-0.01211,-0.012473
2203,-0.001113,0.005964,0.005607
2204,0.017426,0.005964,0.041767
2205,-0.001113,0.024037,0.005607
2206,-0.001113,0.005964,0.005607
2207,-0.001113,0.005964,0.023687
2208,0.017426,0.005964,0.005607
2209,-0.001113,0.005964,-0.012473
2210,-0.019652,0.005964,-0.012473
2211,-0.001113,0.005964,0.005607
2212,-0.001113,0.005964,-0.012473
2213,-0.001113,0.005964,-0.012473
2214,-0.001113,0.024037,0.005607
2215,-0.019652,0.005964,-0.030552
2216,0.017426,-0.01211,-0.012473
2217,-0.001113,0.024037,0.005607
2218,-0.019652,-0.01211,0.023687
2219,-0.001113,-0.01211,0.023687
2220,0.017426,-0.030183,0.005607
2221,-0.001113,0.005964,0.023687
2222,-0.001113,0.005964,0.005607
2223,0.017426,0.005964,-0.012473
2224,0.017426,0.024037,0.041767
2225,-0.001113,-0.01211,0.023687
2226,-0.001113,0.005964,0.005607
2227,-0.001113,0.024037,0.005607
2228,-0.019652,0.005964,0.023687
2229,-0.001113,0.005964,-0.012473
2230,-0.001113,0.005964,-0.048632
2231,-0.001113,0.005964,0.005607
2232,-0.001113,0.005964,0.023687
2233,0.035965,0.024037,-0.012473
2234,-0.001113,-0.01211,0.005607
2235,-0.019652,-0.01211,0.005607
2236,0.017426,0.024037,0.023687
2237,-0.038191,-0.01211,0.005607
2238,0.017426,0.005964,0.023687
2239,-0.001113,0.005964,0.023687
2240,0.017426,0.005964,0.005607
2241,0.035965,0.005964,-0.012473
2242,-0.001113,-0.01211,0.023687
2243,-0.001113,0.005964,0.005607
2244,-0.001113,0.005964,0.005607
2245,0.017426,0.024037,-0.012473
2246,-0.001113,0.005964,0.005607
2247,-0.019652,0.005964,-0.012473
2248,0.017426,0.005964,-0.066712
2249,-0.001113,0.005964,-0.030552
2250,-0.019652,-0.01211,-0.030552
2251,-0.019652,0.005964,-0.012473
2252,-0.001113,-0.01211,0.005607
2253,0.017426,0.005964,0.023687
2254,0.017426,0.005964,0.023687
2255,-0.019652,-0.01211,0.023687
2256,-0.001113,-0.01211,0.005607
2257,-0.019652,0.005964,0.005607
2258,-0.001113,0.005964,-0.012473
2259,-0.001113,0.005964,0.023687
2260,-0.001113,-0.01211,0.005607
2261,-0.019652,0.005964,-0.012473
2262,-0.019652,0.005964,-0.012473
2263,-0.001113,-0.01211,-0.012473
2264,-0.001113,0.005964,-0.012473
2265,-0.038191,0.005964,-0.030552
2266,-0.001113,0.005964,0.005607
2267,-0.001113,0.005964,0.023687
2268,-0.019652,-0.030183,-0.030552
2269,-0.019652,-0.030183,0.005607
2270,-0.019652,0.005964,0.023687
2271,-0.001113,0.024037,0.023687
2272,0.017426,0.005964,-0.012473
2273,-0.019652,0.024037,0.041767
2274,-0.001113,0.005964,0.041767
2275,0.017426,0.005964,0.005607
2276,0.017426,0.005964,0.005607
2277,0.017426,0.005964,0.023687
2278,-0.001113,-0.01211,-0.012473
2279,-0.001113,-0.01211,-0.012473
2280,-0.019652,0.005964,-0.030552
2281,-0.001113,0.005964,-0.012473
2282,-0.001113,0.024037,-0.030552
2283,-0.001113,0.005964,-0.012473
2284,-0.019652,-0.01211,-0.012473
2285,-0.001113,0.005964,0.023687
2286,-0.001113,0.005964,-0.012473
2287,-0.001113,0.024037,0.005607
2288,-0.019652,0.005964,0.005607
2289,0.035965,0.024037,0.023687
2290,-0.019652,-0.01211,0.005607
2291,-0.001113,0.024037,0.023687
2292,-0.001113,0.005964,0.023687
2293,-0.001113,-0.01211,-0.012473
2294,-0.001113,0.005964,0.023687
2295,-0.001113,0.005964,0.023687
2296,-0.019652,0.005964,-0.012473
2297,0.017426,0.024037,-0.012473
2298,-0.001113,0.005964,-0.012473
2299,-0.001113,0.005964,0.005607
2300,-0.001113,0.024037,-0.012473
2301,-0.001113,0.005964,0.005607
2302,0.017426,0.005964,0.005607
2303,-0.001113,0.005964,-0.030552
2304,-0.001113,0.024037,0.005607
2305,-0.019652,-0.01211,0.023687
2306,0.017426,0.024037,0.041767
2307,0.017426,0.024037,0.023687
2308,-0.001113,0.005964,0.005607
2309,-0.019652,0.024037,0.005607
2310,-0.001113,0.005964,-0.012473
2311,-0.019652,0.005964,-0.012473
2312,-0.001113,-0.01211,0.023687
2313,-0.001113,0.005964,-0.012473
2314,-0.019652,0.005964,0.005607
2315,-0.019652,0.005964,-0.030552
2316,-0.001113,-0.01211,0.005607
2317,-0.019652,-0.01211,-0.012473
2318,0.017426,0.005964,-0.030552
2319,-0.001113,0.005964,0.005607
2320,-0.001113,-0.01211,0.005607
2321,-0.001113,0.005964,-0.012473
2322,-0.019652,0.005964,0.023687
2323,-0.001113,0.005964,0.041767
2324,-0.001113,0.005964,0.023687
2325,0.017426,0.005964,0.023687
2326,-0.019652,0.005964,0.023687
2327,-0.001113,0.024037,0.005607
2328,-0.019652,0.005964,0.005607
2329,-0.001113,0.005964,0.005607
2330,-0.001113,-0.01211,0.005607
2331,0.017426,0.005964,-0.012473
2332,-0.001113,0.005964,-0.030552
2333,-0.019652,0.005964,-0.012473
2334,-0.001113,0.005964,-0.012473
2335,-0.001113,0.024037,-0.012473
2336,-0.001113,0.005964,0.005607
2337,-0.001113,-0.01211,0.023687
2338,-0.001113,0.005964,0.023687
2339,0.017426,-0.01211,-0.012473
2340,0.017426,0.005964,0.023687
2341,-0.019652,0.005964,0.041767
2342,0.017426,0.005964,0.005607
2343,-0.001113,0.005964,0.005607
2344,-0.001113,0.005964,0.023687
2345,0.017426,0.005964,0.005607
2346,-0.001113,0.005964,-0.012473
2347,-0.001113,-0.01211,0.005607
2348,-0.001113,-0.030183,-0.012473
2349,0.017426,0.024037,-0.030552
2350,-0.001113,-0.01211,-0.030552
2351,-0.001113,0.005964,0.023687
2352,-0.001113,0.005964,-0.012473
2353,-0.019652,0.005964,0.005607
2354,-0.001113,0.005964,0.005607
2355,-0.019652,0.005964,0.041767
2356,-0.001113,0.005964,-0.012473
2357,-0.001113,-0.01211,0.023687
2358,-0.001113,0.005964,0.041767
2359,-0.001113,0.024037,0.005607
2360,-0.001113,0.024037,0.005607
2361,-0.001113,0.024037,0.041767
2362,-0.001113,0.024037,0.005607
2363,-0.001113,-0.01211,-0.012473
2364,-0.001113,0.005964,-0.048632
2365,-0.019652,0.005964,0.005607
2366,-0.019652,-0.01211,0.005607
2367,-0.001113,0.024037,-0.030552
2368,-0.001113,0.005964,0.005607
2369,-0.001113,0.005964,-0.012473
2370,-0.001113,0.024037,-0.012473
2371,-0.001113,0.024037,-0.012473
2372,-0.019652,0.024037,0.023687
2373,-0.001113,0.024037,0.023687
2374,-0.001113,0.005964,0.023687
2375,-0.001113,0.024037,0.023687
2376,-0.038191,0.005964,0.023687
2377,-0.001113,0.005964,0.005607
2378,-0.001113,0.005964,0.023687
2379,-0.001113,0.005964,-0.012473
2380,-0.019652,-0.01211,-0.012473
2381,-0.001113,-0.01211,-0.012473
2382,-0.001113,0.005964,0.005607
2383,-0.001113,-0.01211,-0.012473
2384,-0.019652,0.005964,0.005607
2385,0.017426,-0.01211,-0.012473
2386,0.035965,0.024037,0.005607
2387,-0.019652,-0.030183,-0.048632
2388,-0.001113,-0.01211,0.005607
2389,-0.001113,0.005964,0.005607
2390,-0.001113,0.005964,0.041767
2391,-0.001113,0.005964,0.023687
2392,-0.001113,0.005964,0.023687
2393,-0.001113,0.005964,0.023687
2394,0.017426,-0.01211,0.005607
2395,-0.001113,0.005964,-0.030552
2396,-0.038191,0.005964,0.005607
2397,-0.019652,-0.01211,0.005607
2398,0.017426,0.005964,-0.012473
2399,-0.019652,-0.01211,-0.012473
2400,-0.001113,-0.01211,-0.012473
2401,-0.001113,0.005964,-0.012473
2402,-0.001113,-0.01211,0.005607
2403,0.017426,-0.01211,0.023687
2404,-0.001113,-0.01211,0.023687
2405,-0.019652,0.005964,0.023687
2406,-0.001113,0.005964,0.023687
2407,-0.001113,0.005964,0.005607
2408,-0.019652,0.024037,0.005607
2409,-0.001113,-0.01211,0.005607
2410,-0.001113,0.005964,0.023687
2411,-0.001113,0.005964,-0.012473
2412,-0.019652,0.005964,-0.030552
2413,-0.019652,0.005964,0.023687
2414,-0.019652,0.005964,0.005607
2415,-0.019652,0.005964,-0.012473
2416,-0.001113,0.005964,-0.012473
2417,-0.019652,0.005964,0.005607
2418,-0.001113,0.024037,-0.012473
2419,0.017426,-0.01211,-0.012473
2420,-0.019652,-0.01211,0.005607
2421,-0.001113,0.005964,0.023687
2422,-0.001113,0.005964,0.005607
2423,-0.001113,0.005964,0.005607
2424,-0.019652,-0.01211,0.023687
2425,-0.019652,0.005964,0.005607
2426,0.017426,0.005964,-0.030552
2427,-0.001113,0.005964,0.023687
2428,-0.001113,0.024037,0.005607
2429,0.017426,0.024037,-0.012473
2430,-0.001113,0.005964,-0.012473
2431,0.017426,0.005964,0.005607
2432,-0.019652,0.005964,-0.012473
2433,-0.019652,-0.01211,-0.030552
2434,0.017426,0.005964,0.005607
2435,-0.001113,0.005964,-0.030552
2436,-0.001113,0.005964,-0.012473
2437,-0.001113,0.005964,0.005607
2438,-0.001113,0.005964,0.023687
2439,-0.001113,0.005964,0.023687
2440,-0.019652,0.005964,0.005607
2441,-0.001113,-0.01211,0.023687
2442,0.017426,0.005964,0.005607
2443,-0.019652,0.005964,0.023687
2444,-0.001113,0.005964,0.023687
2445,-0.019652,0.005964,0.005607
2446,-0.019652,0.005964,-0.012473
2447,-0.001113,0.005964,-0.030552
2448,-0.001113,0.005964,-0.012473
2449,-0.001113,0.024037,-0.012473
2450,0.017426,0.005964,-0.048632
2451,-0.001113,0.024037,-0.012473
2452,-0.001113,-0.01211,0.005607
2453,-0.019652,-0.01211,-0.030552
2454,-0.019652,0.005964,0.023687
2455,-0.001113,0.005964,0.023687
2456,0.017426,0.005964,0.023687
2457,-0.001113,0.005964,0.005607
2458,-0.038191,-0.01211,0.023687
2459,-0.001113,0.005964,0.005607
2460,-0.019652,0.024037,0.005607
2461,-0.019652,0.024037,-0.012473
2462,-0.001113,0.005964,0.005607
2463,-0.001113,-0.01211,-0.030552
2464,-0.001113,-0.01211,-0.030552
2465,-0.001113,-0.01211,-0.012473
2466,-0.001113,0.005964,-0.012473
2467,-0.019652,0.005964,-0.012473
2468,-0.019652,0.005964,0.005607
2469,0.017426,0.005964,0.005607
2470,-0.001113,0.005964,0.041767
2471,-0.001113,0.005964,0.005607
2472,-0.019652,-0.030183,0.023687
2473,-0.001113,0.005964,0.023687
2474,-0.019652,0.024037,0.005607
2475,0.017426,-0.01211,0.023687
2476,-0.001113,0.005964,0.023687
2477,-0.019652,0.024037,-0.012473
2478,-0.019652,0.005964,-0.012473
2479,-0.019652,0.005964,0.005607
2480,-0.001113,0.005964,-0.012473
2481,-0.001113,-0.01211,-0.012473
2482,0.035965,-0.01211,0.005607
2483,-0.019652,0.005964,0.005607
2484,-0.001113,0.005964,-0.030552
2485,-0.038191,0.005964,-0.012473
2486,0.017426,0.005964,0.023687
2487,-0.001113,0.005964,0.041767
2488,0.017426,0.005964,0.005607
2489,-0.019652,0.005964,0.023687
2490,-0.001113,0.024037,0.041767
2491,-0.001113,0.005964,0.005607
2492,-0.001113,-0.01211,-0.012473
2493,-0.001113,0.005964,0.023687
2494,-0.001113,0.005964,-0.030552
2495,0.017426,-0.01211,-0.012473
2496,0.017426,0.005964,-0.012473
2497,-0.001113,-0.01211,-0.030552
2498,-0.001113,0.024037,-0.012473
2499,-0.019652,-0.01211,-0.012473
2500,-0.001113,-0.01211,-0.012473
2501,-0.019652,0.005964,-0.012473
2502,-0.001113,-0.01211,-0.012473
2503,-0.001113,0.005964,0.023687
2504,0.017426,0.005964,0.041767
2505,0.017426,0.005964,0.023687
2506,0.035965,0.005964,0.041767
2507,-0.001113,0.024037,0.041767
2508,-0.019652,0.005964,0.023687
2509,0.017426,0.005964,0.005607
2510,-0.001113,-0.01211,0.005607
2511,-0.019652,0.024037,-0.012473
2512,-0.019652,-0.01211,-0.030552
2513,-0.019652,0.005964,-0.030552
2514,-0.019652,-0.01211,-0.012473
2515,0.017426,0.005964,0.005607
2516,-0.001113,0.005964,-0.030552
2517,-0.019652,0.005964,0.005607
2518,-0.001113,0.005964,0.005607
2519,0.017426,0.005964,-0.030552
2520,0.017426,0.024037,0.023687
2521,0.017426,0.005964,0.041767
2522,-0.001113,-0.01211,0.023687
2523,-0.001113,0.005964,0.023687
2524,-0.001113,0.005964,0.023687
2525,-0.001113,-0.01211,0.005607
2526,-0.001113,0.024037,-0.012473
2527,-0.001113,0.005964,-0.012473
2528,0.017426,0.005964,0.005607
2529,-0.019652,-0.01211,-0.012473
2530,-0.001113,-0.01211,-0.030552
2531,-0.019652,0.005964,-0.012473
2532,-0.019652,0.005964,0.005607
2533,-0.019652,0.005964,-0.012473
2534,-0.019652,0.005964,0.005607
2535,-0.001113,0.005964,0.023687
2536,-0.001113,-0.01211,0.023687
2537,-0.019652,0.005964,0.005607
2538,-0.001113,0.005964,0.005607
2539,-0.001113,-0.01211,0.023687
2540,-0.019652,0.005964,0.023687
2541,-0.019652,0.005964,0.041767
2542,-0.001113,0.005964,0.023687
2543,-0.001113,0.005964,0.005607
2544,-0.001113,0.005964,-0.048632
2545,0.017426,0.005964,0.005607
2546,-0.001113,0.005964,-0.012473
2547,-0.001113,0.005964,-0.012473
2548,-0.019652,0.005964,0.005607
2549,-0.001113,0.005964,0.023687
2550,-0.001113,-0.01211,-0.030552
2551,-0.001113,0.005964,0.023687
2552,-0.019652,-0.01211,0.005607
2553,-0.001113,0.005964,0.023687
2554,-0.001113,0.005964,0.005607
2555,-0.001113,0.005964,0.023687
2556,-0.001113,-0.01211,0.041767
2557,-0.001113,-0.01211,0.023687
2558,-0.001113,0.005964,-0.012473
2559,-0.001113,0.024037,0.023687
2560,0.017426,0.005964,0.005607
2561,-0.019652,-0.01211,0.005607
2562,-0.019652,0.005964,-0.030552
2563,-0.001113,0.005964,0.077927
2564,-0.038191,-0.01211,-0.012473
2565,0.017426,0.005964,-0.048632
2566,-0.019652,0.005964,0.005607
2567,-0.001113,0.005964,-0.030552
2568,-0.001113,0.005964,-0.048632
2569,-0.001113,0.005964,0.005607
2570,-0.001113,0.005964,0.023687
2571,-0.001113,-0.01211,0.041767
2572,-0.001113,-0.01211,0.023687
2573,-0.038191,0.024037,0.023687
2574,-0.001113,0.024037,0.005607
2575,-0.001113,0.005964,-0.012473
2576,-0.001113,0.005964,0.041767
2577,-0.001113,0.005964,0.023687
2578,-0.001113,0.024037,-0.012473
2579,-0.001113,0.005964,-0.012473
2580,-0.019652,-0.01211,-0.012473
2581,-0.019652,-0.01211,0.005607
2582,-0.001113,-0.01211,-0.012473
2583,-0.001113,0.024037,-0.012473
2584,0.017426,0.005964,0.005607
2585,-0.001113,0.005964,-0.030552
2586,0.017426,0.005964,0.005607
2587,-0.001113,0.005964,0.005607
2588,-0.001113,0.005964,0.041767
2589,-0.019652,0.005964,0.023687
2590,-0.001113,0.005964,0.023687
2591,-0.038191,0.005964,0.023687
2592,-0.019652,-0.01211,0.023687
2593,-0.001113,0.024037,-0.030552
2594,-0.001113,0.024037,0.005607
2595,-0.001113,0.005964,-0.012473
2596,-0.001113,0.005964,-0.030552
2597,-0.001113,-0.01211,-0.030552
2598,-0.019652,0.005964,-0.012473
2599,-0.001113,0.005964,-0.048632
2600,-0.019652,-0.01211,-0.012473
2601,-0.001113,0.005964,0.023687
2602,-0.001113,0.005964,0.023687
2603,-0.001113,0.005964,0.005607
2604,0.017426,0.005964,0.023687
2605,-0.001113,-0.01211,0.023687
2606,-0.001113,0.005964,0.023687
2607,-0.001113,0.024037,0.023687
2608,-0.001113,0.024037,0.023687
2609,0.017426,0.005964,0.005607
2610,-0.001113,0.024037,-0.012473
2611,-0.001113,0.005964,0.005607
2612,-0.019652,0.005964,0.005607
2613,-0.019652,0.005964,-0.012473
2614,0.017426,0.005964,-0.012473
2615,-0.019652,0.005964,0.005607
2616,0.017426,0.005964,-0.030552
2617,-0.001113,0.005964,-0.012473
2618,-0.001113,0.024037,0.005607
2619,-0.019652,0.005964,0.059847
2620,-0.001113,-0.01211,0.005607
2621,-0.001113,0.005964,0.005607
2622,0.017426,-0.01211,0.005607
2623,-0.019652,0.005964,-0.012473
2624,-0.001113,0.005964,-0.012473
2625,-0.019652,-0.01211,0.005607
2626,-0.001113,-0.01211,0.005607
2627,-0.019652,0.005964,-0.012473
2628,-0.001113,0.005964,-0.012473
2629,-0.001113,0.005964,-0.012473
2630,-0.001113,0.005964,-0.012473
2631,-0.019652,0.005964,-0.012473
2632,-0.001113,-0.01211,-0.012473
2633,-0.019652,0.024037,-0.048632
2634,0.017426,-0.01211,0.005607
2635,0.017426,0.005964,0.041767
2636,-0.001113,-0.01211,0.023687
2637,-0.001113,0.005964,0.005607
2638,0.017426,0.005964,0.023687
2639,-0.001113,0.024037,0.059847
2640,-0.001113,-0.01211,0.005607
2641,-0.001113,0.005964,-0.012473
2642,-0.05673,0.005964,0.023687
2643,-0.019652,0.005964,0.005607
2644,-0.001113,0.005964,-0.012473
2645,-0.001113,0.024037,-0.030552
2646,-0.001113,0.005964,0.005607
2647,-0.019652,-0.01211,-0.012473
2648,-0.001113,0.005964,-0.030552
2649,-0.001113,0.005964,0.005607
2650,-0.001113,0.024037,0.023687
2651,-0.001113,-0.030183,-0.012473
2652,-0.001113,0.005964,0.005607
2653,0.017426,0.005964,0.005607
2654,-0.038191,0.024037,0.023687
2655,-0.019652,0.005964,0.005607
2656,-0.001113,0.005964,0.023687
2657,-0.001113,0.005964,0.023687
2658,-0.019652,0.005964,0.005607
2659,-0.001113,-0.01211,0.005607
2660,-0.001113,-0.01211,0.005607
2661,0.017426,-0.01211,-0.012473
2662,-0.019652,0.005964,-0.030552
2663,-0.001113,0.005964,-0.012473
2664,-0.001113,0.005964,-0.012473
2665,-0.001113,-0.01211,-0.012473
2666,-0.001113,0.005964,-0.030552
2667,-0.019652,0.005964,0.023687
2668,-0.001113,0.005964,0.023687
2669,-0.001113,0.005964,0.005607
2670,-0.001113,0.005964,0.005607
2671,-0.038191,0.005964,0.023687
2672,-0.019652,-0.01211,0.005607
2673,-0.001113,0.024037,0.023687
2674,-0.001113,0.005964,0.041767
2675,0.017426,0.005964,0.005607
2676,-0.001113,0.005964,-0.012473
2677,0.017426,0.005964,0.005607
2678,0.017426,0.005964,-0.012473
2679,-0.001113,0.005964,-0.012473
2680,-0.001113,0.005964,-0.012473
2681,-0.019652,0.005964,0.005607
2682,-0.019652,0.005964,-0.030552
2683,-0.001113,0.005964,-0.012473
2684,-0.001113,0.024037,0.005607
2685,-0.001113,-0.01211,0.023687
2686,-0.019652,0.024037,0.005607
2687,-0.019652,0.005964,0.005607
2688,-0.001113,0.005964,0.023687
2689,0.035965,-0.01211,0.005607
2690,-0.019652,-0.01211,0.005607
2691,-0.001113,0.005964,0.041767
2692,-0.001113,0.005964,0.005607
2693,-0.038191,0.005964,-0.030552
2694,-0.001113,0.024037,-0.012473
2695,-0.001113,-0.01211,-0.012473
2696,-0.001113,0.005964,-0.012473
2697,-0.001113,-0.01211,-0.030552
2698,-0.001113,-0.01211,-0.012473
2699,-0.001113,0.005964,-0.030552
2700,-0.019652,-0.01211,0.005607
2701,-0.001113,0.024037,0.005607
2702,-0.001113,0.005964,0.023687
2703,-0.001113,0.04211,0.023687
2704,-0.019652,0.005964,0.005607
2705,-0.001113,0.005964,0.041767
2706,-0.019652,0.024037,0.023687
2707,0.017426,-0.01211,-0.012473
2708,0.017426,0.005964,0.005607
2709,-0.001113,0.005964,0.023687
2710,-0.001113,-0.01211,-0.030552
2711,0.017426,0.024037,-0.012473
2712,-0.001113,-0.030183,-0.012473
2713,-0.001113,0.024037,-0.012473
2714,0.017426,-0.01211,-0.030552
2715,-0.019652,0.005964,0.005607
2716,-0.001113,-0.01211,0.005607
2717,0.017426,0.005964,-0.030552
2718,-0.019652,0.005964,0.005607
2719,-0.001113,0.024037,0.023687
2720,-0.001113,0.005964,0.041767
2721,0.017426,0.005964,0.005607
2722,-0.001113,0.005964,0.041767
2723,-0.001113,0.005964,0.023687
2724,-0.001113,0.005964,0.005607
2725,-0.001113,0.005964,-0.030552
2726,0.017426,0.005964,0.005607
2727,0.017426,-0.01211,-0.012473
2728,-0.001113,0.024037,-0.030552
2729,-0.001113,0.005964,-0.012473
2730,-0.001113,-0.01211,-0.012473
2731,-0.001113,0.005964,-0.012473
2732,0.017426,0.005964,0.005607
2733,-0.019652,0.005964,0.023687
2734,-0.001113,-0.01211,0.023687
2735,-0.001113,-0.01211,0.005607
2736,0.017426,0.005964,0.023687
2737,-0.001113,0.005964,0.041767
2738,-0.001113,0.024037,0.005607
2739,-0.001113,0.005964,0.023687
2740,0.017426,0.024037,0.041767
2741,-0.001113,0.024037,0.005607
2742,-0.001113,-0.01211,-0.012473
2743,-0.001113,0.005964,0.023687
2744,0.017426,0.005964,0.023687
2745,-0.019652,0.005964,-0.030552
2746,-0.001113,0.005964,-0.030552
2747,-0.001113,0.005964,0.005607
2748,-0.001113,-0.01211,-0.048632
2749,-0.001113,0.060184,0.005607
2750,-0.001113,0.005964,0.005607
2751,-0.001113,-0.01211,0.023687
2752,-0.019652,0.024037,-0.012473
2753,-0.001113,-0.01211,0.041767
2754,-0.001113,0.005964,0.023687
2755,0.017426,0.005964,0.005607
2756,-0.001113,0.005964,-0.012473
2757,-0.019652,0.024037,0.023687
2758,-0.001113,0.005964,0.005607
2759,0.017426,0.005964,-0.030552
2760,0.017426,0.005964,0.005607
2761,-0.001113,0.005964,0.005607
2762,-0.019652,0.005964,-0.030552
2763,-0.001113,0.005964,-0.012473
2764,-0.001113,-0.01211,-0.012473
2765,-0.001113,-0.01211,-0.048632
2766,-0.019652,0.005964,0.005607
2767,-0.001113,0.005964,0.005607
2768,0.035965,0.024037,0.023687
2769,-0.001113,0.005964,0.023687
2770,-0.001113,-0.01211,0.023687
2771,0.017426,0.005964,0.041767
2772,-0.019652,0.005964,0.023687
2773,-0.001113,0.005964,0.005607
2774,-0.001113,0.024037,0.005607
2775,-0.001113,0.005964,0.005607
2776,-0.001113,0.024037,-0.012473
2777,0.017426,0.024037,-0.012473
2778,-0.001113,0.005964,0.005607
2779,-0.001113,0.005964,-0.012473
2780,0.017426,0.005964,0.005607
2781,-0.019652,-0.01211,0.005607
2782,-0.001113,0.005964,0.023687
2783,0.017426,0.005964,-0.012473
2784,-0.001113,0.005964,0.023687
2785,-0.001113,-0.01211,0.023687
2786,0.017426,0.005964,0.005607
2787,-0.001113,-0.01211,0.023687
2788,0.017426,-0.01211,0.041767
2789,-0.019652,0.005964,0.005607
2790,-0.019652,-0.01211,0.005607
2791,-0.001113,-0.01211,0.005607
2792,-0.001113,0.005964,-0.012473
2793,-0.001113,0.005964,-0.012473
2794,-0.019652,0.005964,-0.012473
2795,-0.001113,-0.01211,0.005607
2796,-0.001113,0.005964,-0.012473
2797,-0.001113,0.005964,-0.012473
2798,-0.001113,0.005964,0.005607
2799,-0.001113,0.005964,0.005607
2800,-0.001113,0.005964,0.023687
2801,-0.001113,0.024037,0.005607
2802,-0.001113,0.005964,0.023687
2803,-0.001113,0.005964,0.005607
2804,-0.001113,0.005964,0.005607
2805,0.017426,0.024037,0.041767
2806,-0.038191,0.005964,0.023687
2807,0.017426,0.024037,0.005607
2808,-0.001113,0.024037,0.005607
2809,-0.001113,0.005964,0.005607
2810,-0.019652,-0.01211,-0.012473
2811,-0.001113,-0.01211,-0.030552
2812,0.017426,0.005964,-0.012473
2813,-0.038191,0.024037,0.023687
2814,-0.001113,0.005964,0.005607
2815,-0.001113,0.005964,0.023687
2816,-0.019652,0.005964,0.023687
2817,-0.019652,0.005964,0.005607
2818,-0.019652,0.005964,0.005607
2819,-0.001113,0.005964,0.023687
2820,-0.019652,0.005964,0.023687
2821,-0.019652,0.005964,-0.012473
2822,-0.001113,0.024037,-0.012473
2823,-0.001113,0.005964,0.005607
2824,-0.001113,-0.01211,0.005607
2825,0.017426,-0.01211,-0.012473
2826,0.017426,0.024037,-0.012473
2827,-0.001113,0.005964,-0.012473
2828,-0.001113,0.005964,-0.012473
2829,0.017426,0.024037,-0.012473
2830,-0.019652,0.024037,0.005607
2831,-0.001113,0.005964,-0.012473
2832,0.017426,0.024037,0.023687
2833,-0.001113,0.005964,0.023687
2834,-0.019652,-0.01211,0.041767
2835,-0.019652,0.005964,0.005607
2836,-0.001113,0.005964,0.041767
2837,-0.019652,0.024037,0.005607
2838,-0.001113,0.005964,0.005607
2839,-0.001113,0.005964,-0.012473
2840,-0.001113,0.024037,0.005607
2841,-0.019652,0.024037,0.005607
2842,-0.019652,-0.01211,0.005607
2843,0.017426,0.005964,-0.012473
2844,-0.019652,0.005964,0.005607
2845,-0.001113,0.005964,-0.030552
2846,-0.038191,0.005964,-0.012473
2847,0.017426,0.005964,0.005607
2848,-0.001113,0.024037,0.059847
2849,-0.019652,0.005964,0.005607
2850,-0.001113,0.024037,0.023687
2851,-0.001113,0.005964,0.041767
2852,-0.019652,-0.01211,0.023687
2853,-0.001113,0.005964,0.005607
2854,0.035965,0.005964,0.023687
2855,-0.019652,0.024037,0.005607
2856,-0.001113,-0.01211,-0.012473
2857,-0.038191,0.005964,-0.012473
2858,-0.001113,0.005964,0.005607
2859,0.017426,0.005964,-0.012473
2860,0.017426,0.005964,0.005607
2861,-0.001113,0.005964,0.023687
2862,-0.001113,0.024037,-0.030552
2863,-0.019652,-0.01211,-0.012473
2864,-0.038191,-0.01211,0.023687
2865,-0.001113,0.005964,0.023687
2866,-0.001113,0.005964,0.005607
2867,-0.019652,0.005964,0.005607
2868,0.017426,0.005964,0.023687
2869,-0.001113,0.005964,-0.012473
2870,0.017426,0.005964,-0.012473
2871,-0.001113,0.024037,0.005607
2872,0.035965,-0.01211,0.005607
2873,0.073044,0.024037,0.005607
2874,0.035965,0.024037,-0.030552
2875,0.035965,0.005964,-0.030552
2876,0.035965,0.024037,-0.012473
2877,0.017426,0.024037,-0.012473
2878,0.017426,0.005964,0.005607
2879,0.017426,-0.01211,0.023687
2880,-0.001113,0.005964,-0.012473
2881,-0.038191,0.005964,0.023687
2882,-0.038191,-0.01211,0.023687
2883,-0.05673,-0.01211,0.005607
2884,-0.038191,0.005964,0.005607
2885,-0.05673,0.005964,0.041767
2886,-0.001113,0.005964,0.005607
2887,-0.019652,0.005964,0.005607
2888,-0.001113,0.005964,-0.012473
2889,-0.001113,0.005964,-0.012473
2890,-0.019652,0.005964,-0.030552
2891,-0.001113,0.005964,-0.030552
2892,-0.019652,0.005964,-0.012473
2893,-0.019652,0.024037,-0.012473
2894,-0.001113,-0.01211,0.005607
2895,-0.019652,0.005964,0.005607
2896,-0.019652,0.005964,0.005607
2897,0.017426,0.005964,0.005607
2898,-0.019652,0.005964,0.023687
2899,-0.019652,0.005964,0.041767
2900,-0.001113,0.005964,0.023687
2901,-0.001113,0.005964,-0.012473
2902,-0.001113,-0.01211,0.023687
2903,-0.001113,0.024037,0.005607
2904,-0.019652,0.024037,0.005607
2905,-0.001113,0.024037,-0.012473
2906,-0.001113,0.024037,-0.012473
2907,-0.001113,0.005964,-0.012473
2908,0.017426,0.005964,-0.030552
2909,0.017426,0.005964,0.005607
2910,-0.001113,0.024037,0.023687
2911,0.017426,0.005964,-0.012473
2912,-0.001113,0.005964,0.005607
2913,-0.019652,0.005964,0.023687
2914,-0.001113,0.005964,0.023687
2915,-0.001113,0.005964,0.005607
2916,-0.001113,0.005964,0.023687
2917,-0.001113,0.024037,0.005607
2918,-0.001113,0.005964,-0.012473
2919,-0.001113,0.024037,0.023687
2920,-0.001113,0.005964,0.023687
2921,-0.001113,0.005964,-0.012473
2922,0.017426,0.005964,-0.030552
2923,-0.001113,0.005964,0.005607
2924,-0.019652,0.024037,0.005607
2925,0.017426,0.024037,0.005607
2926,-0.001113,0.024037,0.023687
2927,-0.001113,0.005964,0.023687
2928,0.017426,0.005964,-0.012473
2929,-0.001113,-0.01211,0.005607
2930,0.017426,0.005964,0.005607
2931,0.017426,-0.01211,0.005607
2932,-0.019652,-0.01211,-0.012473
2933,-0.019652,0.005964,0.005607
2934,0.017426,0.005964,0.005607
2935,-0.001113,-0.01211,-0.012473
2936,-0.019652,0.005964,-0.012473
2937,-0.001113,-0.01211,0.005607
2938,-0.001113,0.005964,0.005607
2939,0.017426,0.005964,-0.012473
2940,-0.001113,0.005964,-0.012473
2941,-0.001113,0.024037,0.005607
2942,0.017426,0.005964,-0.012473
2943,-0.001113,0.005964,-0.030552
2944,-0.001113,-0.01211,0.005607
2945,-0.001113,0.024037,0.023687
2946,0.017426,-0.01211,-0.012473
2947,0.035965,0.005964,0.023687
2948,0.017426,0.024037,0.023687
2949,0.017426,0.005964,-0.012473
2950,-0.019652,0.024037,0.023687
2951,-0.001113,0.005964,-0.012473
2952,-0.019652,0.005964,-0.012473
2953,-0.038191,-0.01211,-0.012473
2954,0.017426,0.005964,-0.012473
2955,0.017426,0.005964,-0.012473
2956,-0.001113,0.005964,-0.012473
2957,0.017426,-0.01211,0.023687
2958,-0.001113,0.024037,0.023687
2959,-0.001113,0.005964,-0.012473
2960,-0.019652,0.005964,0.005607
2961,-0.019652,-0.01211,0.023687
2962,0.017426,0.005964,0.005607
2963,-0.001113,-0.01211,0.023687
2964,-0.019652,0.005964,0.005607
2965,-0.001113,0.005964,0.023687
2966,0.017426,0.005964,0.005607
2967,-0.019652,0.005964,-0.012473
2968,0.017426,0.005964,0.005607
2969,-0.019652,-0.01211,0.005607
2970,-0.019652,-0.01211,0.005607
2971,-0.019652,-0.01211,-0.030552
2972,-0.019652,0.024037,-0.012473
2973,-0.001113,0.024037,-0.012473
2974,-0.001113,-0.01211,-0.012473
2975,-0.019652,0.005964,0.005607
2976,-0.001113,0.005964,0.005607
2977,-0.019652,-0.01211,0.005607
2978,-0.001113,0.005964,0.023687
2979,-0.001113,0.005964,0.041767
2980,-0.019652,-0.01211,0.005607
2981,-0.019652,0.005964,0.005607
2982,0.017426,0.005964,0.041767
2983,-0.001113,0.024037,0.023687
2984,-0.001113,0.005964,0.005607
2985,-0.001113,0.005964,0.023687
2986,-0.001113,0.005964,-0.012473
2987,0.017426,0.024037,-0.012473
2988,-0.019652,0.024037,-0.012473
2989,-0.001113,0.024037,0.023687
2990,-0.001113,0.005964,-0.012473
2991,-0.001113,0.005964,-0.012473
2992,-0.019652,0.024037,0.005607
2993,-0.019652,-0.030183,0.023687
2994,-0.019652,0.005964,0.005607
2995,0.017426,0.005964,0.005607
2996,-0.019652,-0.01211,0.005607
2997,-0.001113,0.024037,0.005607
2998,-0.001113,0.005964,-0.012473
2999,0.017426,0.005964,0.005607
3000,0.017426,0.024037,-0.012473
3001,0.017426,0.005964,0.005607
3002,-0.019652,-0.01211,-0.012473
3003,-0.001113,0.024037,0.005607
3004,-0.001113,-0.01211,0.005607
3005,-0.001113,-0.01211,-0.012473
3006,0.017426,0.005964,0.005607
3007,-0.001113,-0.01211,-0.012473
3008,-0.019652,-0.01211,-0.012473
3009,-0.019652,-0.01211,0.005607
3010,-0.001113,0.005964,0.023687
3011,-0.001113,0.005964,0.041767
3012,0.035965,0.005964,0.023687
3013,-0.019652,-0.01211,0.023687
3014,-0.001113,0.005964,0.023687
3015,-0.001113,0.024037,0.005607
3016,-0.001113,0.005964,0.041767
3017,0.017426,0.005964,0.023687
3018,-0.001113,0.005964,-0.012473
3019,-0.001113,-0.01211,-0.012473
3020,-0.001113,-0.01211,-0.012473
3021,-0.001113,0.005964,-0.012473
3022,0.017426,0.024037,-0.012473
3023,-0.019652,0.024037,0.005607
3024,-0.001113,0.024037,0.023687
3025,-0.001113,0.005964,-0.012473
3026,0.017426,0.024037,0.005607
3027,-0.001113,-0.01211,0.023687
3028,-0.001113,0.005964,0.023687
3029,-0.019652,-0.01211,0.023687
3030,-0.001113,0.005964,0.005607
3031,0.017426,-0.01211,0.005607
3032,-0.001113,0.005964,0.005607
3033,0.017426,0.005964,-0.030552
3034,0.017426,0.005964,0.005607
3035,-0.001113,-0.01211,-0.012473
3036,-0.019652,-0.01211,-0.030552
3037,-0.001113,0.005964,0.005607
3038,-0.001113,-0.01211,-0.012473
3039,-0.001113,0.024037,-0.012473
3040,-0.019652,0.024037,0.005607
3041,0.017426,0.005964,0.005607
3042,-0.001113,0.005964,0.041767
3043,-0.001113,0.005964,0.005607
3044,-0.001113,0.005964,0.023687
3045,0.017426,-0.01211,0.005607
3046,-0.001113,0.005964,-0.012473
3047,-0.001113,0.005964,0.023687
3048,-0.001113,0.024037,0.005607
3049,-0.001113,-0.01211,-0.012473
3050,-0.001113,0.005964,-0.012473
3051,-0.001113,-0.01211,0.023687
3052,-0.001113,0.005964,-0.012473
3053,0.017426,0.024037,-0.012473
3054,-0.001113,0.024037,0.005607
3055,-0.019652,0.024037,0.005607
3056,-0.019652,0.005964,-0.012473
3057,-0.001113,0.005964,0.005607
3058,-0.001113,0.005964,0.005607
3059,-0.001113,0.005964,0.005607
3060,-0.019652,0.005964,0.005607
3061,-0.019652,0.005964,0.005607
3062,-0.001113,0.005964,0.023687
3063,0.017426,-0.01211,0.023687
3064,-0.019652,0.024037,0.005607
3065,-0.001113,0.005964,0.023687
3066,-0.001113,0.005964,0.005607
3067,-0.019652,0.024037,0.005607
3068,-0.001113,0.005964,-0.030552
3069,-0.019652,0.005964,-0.012473
3070,-0.019652,-0.01211,-0.012473
3071,0.017426,-0.01211,-0.030552
3072,-0.001113,0.005964,0.005607
3073,0.017426,0.005964,-0.012473
3074,-0.001113,0.005964,-0.012473
3075,-0.019652,0.024037,0.005607
3076,-0.001113,0.024037,0.023687
3077,-0.001113,-0.01211,0.023687
3078,-0.001113,0.005964,0.005607
3079,-0.019652,0.005964,0.005607
3080,-0.019652,-0.01211,0.005607
3081,-0.001113,0.005964,-0.012473
3082,-0.001113,-0.01211,0.023687
3083,-0.001113,0.024037,0.023687
3084,-0.001113,0.005964,-0.012473
3085,0.017426,-0.01211,-0.012473
3086,-0.001113,-0.01211,-0.012473
3087,-0.019652,0.005964,0.023687
3088,-0.001113,-0.01211,-0.012473
3089,-0.001113,0.005964,0.005607
3090,-0.001113,0.005964,0.005607
3091,0.017426,0.005964,-0.030552
3092,-0.001113,0.024037,0.005607
3093,0.017426,0.005964,0.041767
3094,-0.001113,0.005964,0.023687
3095,-0.038191,0.005964,0.005607
3096,-0.001113,-0.01211,0.023687
3097,-0.019652,0.005964,0.023687
3098,-0.001113,-0.01211,0.005607
3099,-0.019652,-0.01211,-0.012473
3100,-0.001113,0.005964,0.005607
3101,-0.001113,-0.01211,-0.030552
3102,-0.001113,0.005964,-0.012473
3103,-0.019652,0.005964,0.005607
3104,-0.001113,0.005964,-0.012473
3105,-0.001113,0.005964,-0.012473
3106,-0.019652,0.005964,-0.012473
3107,-0.001113,0.005964,0.023687
3108,-0.001113,0.024037,0.041767
3109,-0.001113,-0.01211,0.005607
3110,-0.001113,0.005964,0.005607
3111,-0.001113,0.005964,0.023687
3112,-0.001113,0.005964,0.005607
3113,0.017426,-0.01211,0.023687
3114,-0.001113,0.005964,0.023687
3115,-0.001113,0.005964,0.005607
3116,-0.001113,0.005964,-0.012473
3117,-0.001113,0.005964,0.023687
3118,-0.001113,0.005964,0.005607
3119,-0.019652,0.024037,-0.012473
3120,-0.019652,0.005964,0.005607
3121,-0.001113,0.005964,0.005607
3122,-0.001113,0.005964,-0.030552
3123,-0.019652,0.005964,-0.012473
3124,0.017426,0.005964,0.023687
3125,-0.019652,0.005964,0.023687
3126,-0.001113,0.005964,0.005607
3127,-0.001113,0.024037,0.023687
3128,-0.019652,-0.01211,0.023687
3129,-0.019652,0.005964,0.005607
3130,-0.001113,-0.01211,-0.012473
3131,-0.019652,-0.01211,0.005607
3132,0.035965,0.005964,0.005607
3133,-0.019652,0.005964,0.005607
3134,-0.019652,0.024037,-0.030552
3135,-0.001113,0.005964,-0.012473
3136,-0.001113,0.024037,-0.012473
3137,-0.038191,-0.01211,-0.012473
3138,-0.019652,0.005964,-0.012473
3139,-0.001113,0.005964,-0.012473
3140,-0.019652,0.024037,-0.012473
3141,-0.019652,0.005964,0.023687
3142,-0.019652,0.024037,0.023687
3143,-0.001113,0.005964,0.023687
3144,-0.001113,0.04211,0.005607
3145,-0.019652,-0.01211,0.005607
3146,-0.001113,-0.030183,0.023687
3147,-0.001113,-0.01211,0.005607
3148,-0.001113,-0.01211,0.023687
3149,-0.001113,0.005964,0.005607
3150,-0.001113,0.005964,-0.012473
3151,0.017426,0.005964,-0.030552
3152,-0.001113,0.024037,0.005607
3153,-0.001113,0.005964,0.005607
3154,0.017426,0.005964,-0.030552
3155,-0.019652,0.005964,0.023687
3156,0.017426,-0.01211,0.023687
3157,-0.001113,0.005964,0.077927
3158,-0.001113,0.005964,-0.012473
3159,-0.001113,0.005964,0.023687
3160,-0.019652,0.024037,0.041767
3161,-0.001113,0.005964,0.005607
3162,-0.019652,-0.01211,0.023687
3163,0.035965,0.005964,0.023687
3164,0.017426,0.005964,0.005607
3165,-0.001113,0.024037,0.005607
3166,0.017426,0.005964,0.005607
3167,-0.001113,0.024037,0.005607
3168,0.017426,0.005964,-0.012473
3169,0.017426,0.005964,0.005607
3170,0.017426,0.005964,-0.012473
3171,-0.001113,0.005964,-0.012473
3172,-0.019652,-0.030183,0.005607
3173,-0.001113,0.005964,0.023687
3174,-0.038191,0.024037,0.005607
3175,-0.001113,-0.01211,-0.012473
3176,-0.001113,-0.01211,0.005607
3177,-0.001113,0.005964,0.023687
3178,-0.001113,0.005964,0.005607
3179,-0.001113,-0.01211,0.023687
3180,-0.001113,-0.01211,0.023687
3181,-0.001113,0.005964,0.005607
3182,-0.001113,0.005964,0.005607
3183,-0.001113,0.005964,0.023687
3184,-0.019652,-0.01211,-0.012473
3185,-0.019652,0.005964,0.005607
3186,-0.001113,0.005964,-0.012473
3187,-0.001113,-0.01211,0.005607
3188,-0.001113,0.005964,-0.012473
3189,0.017426,0.024037,-0.012473
3190,-0.019652,0.005964,0.005607
3191,-0.001113,-0.01211,0.041767
3192,-0.001113,-0.030183,0.005607
3193,-0.001113,0.005964,0.005607
3194,-0.001113,0.04211,0.023687
3195,-0.001113,-0.01211,0.005607
3196,-0.001113,0.005964,0.005607
3197,-0.019652,0.005964,0.005607
3198,-0.001113,0.005964,0.005607
3199,-0.001113,-0.030183,-0.012473
3200,-0.001113,0.005964,-0.012473
3201,-0.001113,0.005964,0.005607
3202,0.017426,0.005964,-0.012473
3203,-0.019652,0.024037,-0.030552
3204,-0.001113,0.005964,0.023687
3205,-0.001113,-0.01211,-0.012473
3206,-0.001113,0.005964,-0.012473
3207,-0.001113,0.024037,0.005607
3208,-0.001113,0.024037,0.023687
3209,-0.001113,0.005964,0.023687
3210,-0.001113,0.005964,0.005607
3211,-0.001113,0.024037,0.023687
3212,-0.019652,0.005964,0.005607
3213,-0.019652,0.005964,0.005607
3214,0.017426,0.005964,0.023687
3215,-0.001113,-0.01211,0.023687
3216,-0.001113,0.005964,0.005607
3217,-0.001113,0.005964,-0.030552
3218,0.017426,-0.030183,-0.030552
3219,0.017426,0.005964,-0.012473
3220,-0.019652,0.005964,-0.012473
3221,-0.001113,0.024037,0.005607
3222,-0.001113,0.005964,0.005607
3223,-0.001113,0.005964,-0.030552
3224,-0.001113,0.024037,0.023687
3225,0.017426,0.005964,0.023687
3226,-0.019652,-0.01211,0.023687
3227,-0.019652,-0.01211,0.005607
3228,-0.001113,0.005964,0.023687
3229,-0.001113,0.005964,0.005607
3230,-0.019652,0.005964,0.005607
3231,-0.001113,0.005964,-0.012473
3232,-0.019652,0.005964,0.005607
3233,0.017426,-0.01211,-0.012473
3234,-0.001113,0.005964,-0.012473
3235,-0.001113,0.024037,-0.012473
3236,-0.019652,0.005964,0.005607
3237,-0.001113,0.005964,-0.012473
3238,-0.001113,-0.01211,-0.012473
3239,-0.019652,0.005964,0.005607
3240,-0.001113,0.024037,0.005607
3241,-0.019652,0.005964,-0.012473
3242,-0.001113,0.005964,0.005607
3243,-0.001113,0.005964,0.005607
3244,0.017426,0.005964,0.023687
3245,-0.001113,0.005964,0.005607
3246,0.017426,0.024037,0.005607
3247,-0.001113,0.005964,0.023687
3248,-0.001113,0.024037,0.005607
3249,-0.019652,0.005964,0.041767
3250,-0.001113,0.005964,0.023687
3251,-0.001113,0.005964,0.005607
3252,-0.001113,0.024037,-0.030552
3253,-0.001113,-0.01211,-0.012473
3254,-0.001113,0.005964,0.005607
3255,-0.019652,0.005964,0.005607
3256,-0.019652,0.005964,0.005607
3257,-0.001113,0.005964,0.023687
3258,0.017426,0.005964,-0.030552
3259,-0.019652,0.024037,0.023687
3260,-0.019652,-0.01211,0.005607
3261,-0.001113,0.005964,0.023687
3262,-0.001113,0.005964,0.005607
3263,-0.001113,-0.01211,0.005607
3264,-0.001113,-0.01211,0.005607
3265,-0.019652,0.005964,0.005607
3266,-0.001113,-0.01211,-0.012473
3267,-0.001113,0.024037,0.041767
3268,0.017426,-0.01211,0.005607
3269,-0.001113,0.024037,0.005607
3270,-0.001113,0.005964,-0.012473
3271,-0.001113,0.005964,0.005607
3272,-0.001113,0.024037,-0.012473
3273,-0.001113,0.005964,0.005607
3274,-0.001113,-0.01211,0.005607
3275,-0.001113,0.005964,0.005607
3276,-0.019652,-0.01211,0.005607
3277,-0.001113,0.005964,0.023687
3278,-0.019652,0.005964,0.023687
3279,-0.019652,0.024037,0.005607
3280,-0.001113,0.005964,0.023687
3281,-0.019652,0.005964,0.041767
3282,-0.001113,0.005964,0.005607
3283,-0.001113,-0.01211,-0.012473
3284,0.017426,0.005964,-0.030552
3285,0.017426,-0.01211,0.023687
3286,0.017426,0.005964,-0.012473
3287,-0.001113,0.005964,-0.030552
3288,-0.001113,0.005964,0.005607
3289,-0.001113,-0.01211,-0.012473
3290,-0.001113,-0.01211,0.005607
3291,-0.001113,0.005964,0.023687
3292,-0.001113,0.005964,0.023687
3293,-0.001113,-0.01211,0.005607
3294,-0.019652,0.024037,0.005607
3295,-0.001113,0.024037,0.023687
3296,-0.001113,0.005964,0.005607
3297,-0.019652,-0.01211,-0.012473
3298,-0.038191,0.005964,0.005607
3299,-0.001113,0.005964,0.023687
3300,-0.001113,0.04211,-0.012473
3301,0.017426,0.005964,-0.030552
3302,-0.019652,0.005964,0.005607
3303,-0.019652,0.005964,-0.030552
3304,-0.001113,0.005964,-0.030552
3305,-0.019652,0.005964,0.005607
3306,0.017426,0.005964,-0.012473
3307,-0.001113,0.005964,-0.012473
3308,-0.001113,0.005964,0.005607
3309,-0.001113,-0.01211,0.005607
3310,-0.038191,0.005964,0.023687
3311,-0.019652,0.005964,0.023687
3312,-0.001113,0.005964,0.023687
3313,-0.001113,0.005964,0.005607
3314,-0.019652,0.005964,-0.012473
3315,-0.001113,0.024037,0.023687
3316,-0.001113,0.005964,0.005607
3317,-0.001113,0.005964,-0.012473
3318,-0.019652,0.005964,-0.012473
3319,-0.019652,0.005964,-0.012473
3320,-0.001113,0.005964,-0.012473
3321,0.017426,0.005964,-0.030552
3322,-0.019652,0.005964,0.005607
3323,-0.001113,0.005964,0.005607
3324,-0.019652,0.005964,-0.030552
3325,0.017426,0.005964,0.005607
3326,-0.001113,0.024037,0.005607
3327,-0.019652,-0.01211,0.041767
3328,-0.001113,0.005964,0.005607
3329,-0.019652,0.005964,0.023687
3330,-0.001113,0.005964,0.023687
3331,-0.001113,-0.030183,0.005607
3332,-0.001113,0.024037,0.005607
3333,0.017426,0.005964,0.005607
3334,-0.001113,0.005964,0.005607
3335,-0.001113,0.024037,-0.012473
3336,0.017426,0.005964,-0.030552
3337,-0.001113,0.005964,-0.012473
3338,-0.001113,0.024037,0.005607
3339,0.017426,0.005964,0.005607
3340,-0.001113,0.005964,0.023687
3341,0.017426,0.005964,0.023687
3342,-0.001113,-0.01211,0.005607
3343,-0.019652,-0.01211,0.005607
3344,-0.019652,0.005964,0.023687
3345,-0.001113,0.024037,0.005607
3346,-0.001113,0.005964,0.005607
3347,-0.001113,0.024037,0.023687
3348,-0.019652,0.005964,0.005607
3349,-0.019652,0.005964,-0.012473
3350,-0.001113,0.005964,-0.012473
3351,-0.001113,0.005964,-0.012473
3352,-0.001113,0.005964,-0.012473
3353,-0.001113,0.024037,-0.030552
3354,-0.001113,0.024037,0.005607
3355,0.017426,0.024037,-0.012473
3356,0.017426,0.024037,0.005607
3357,-0.001113,0.005964,0.005607
3358,-0.019652,0.005964,0.023687
3359,0.017426,0.005964,0.005607
3360,-0.019652,0.005964,0.023687
3361,-0.001113,-0.01211,0.005607
3362,-0.019652,0.005964,0.005607
3363,-0.001113,0.024037,-0.030552
3364,-0.019652,0.005964,0.023687
3365,-0.019652,-0.01211,0.005607
3366,-0.019652,0.005964,-0.012473
3367,-0.019652,0.024037,-0.012473
3368,-0.019652,0.005964,0.005607
3369,-0.001113,0.005964,-0.012473
3370,0.017426,0.005964,-0.012473
3371,-0.001113,0.005964,0.005607
3372,0.017426,0.005964,0.023687
3373,-0.001113,-0.01211,-0.012473
3374,0.017426,0.005964,0.005607
3375,-0.019652,0.005964,0.023687
3376,-0.001113,0.005964,0.023687
3377,-0.001113,0.005964,0.005607
3378,-0.001113,0.005964,0.005607
3379,-0.019652,0.005964,0.005607
3380,-0.001113,0.005964,0.005607
3381,-0.019652,0.005964,0.023687
3382,-0.001113,0.005964,0.005607
3383,-0.019652,-0.01211,-0.012473
3384,-0.001113,-0.01211,-0.030552
3385,-0.001113,0.005964,-0.012473
3386,-0.019652,-0.01211,-0.012473
3387,-0.001113,0.005964,-0.012473
3388,-0.001113,-0.01211,-0.012473
3389,-0.001113,0.005964,0.041767
3390,-0.001113,0.024037,-0.048632
3391,-0.001113,0.005964,0.005607
3392,-0.001113,-0.01211,0.023687
3393,-0.001113,0.005964,0.023687
3394,-0.001113,0.024037,0.005607
3395,-0.019652,0.005964,0.005607
3396,-0.001113,0.005964,0.023687
3397,-0.001113,0.005964,-0.012473
3398,-0.001113,0.005964,-0.012473
3399,-0.019652,0.005964,0.005607
3400,-0.001113,0.024037,-0.012473
3401,0.017426,0.005964,-0.030552
3402,-0.001113,0.005964,-0.030552
3403,-0.001113,0.024037,-0.012473
3404,-0.001113,0.024037,-0.012473
3405,-0.019652,0.005964,0.005607
3406,-0.019652,0.005964,0.041767
3407,0.017426,0.005964,0.041767
3408,-0.001113,0.005964,0.023687
3409,-0.001113,0.005964,0.023687
3410,-0.001113,0.024037,0.023687
3411,-0.019652,0.024037,0.005607
3412,-0.001113,0.024037,0.023687
3413,-0.001113,0.005964,0.005607
3414,-0.019652,0.005964,-0.012473
3415,-0.001113,-0.01211,-0.012473
3416,-0.038191,0.005964,-0.030552
3417,0.017426,0.005964,-0.012473
3418,-0.001113,-0.01211,-0.012473
3419,-0.019652,0.005964,-0.030552
3420,-0.001113,0.024037,0.005607
3421,-0.019652,0.024037,-0.012473
3422,-0.019652,0.005964,0.005607
3423,-0.001113,-0.01211,0.005607
3424,-0.001113,0.005964,0.005607
3425,-0.019652,0.024037,0.005607
3426,-0.038191,0.024037,-0.012473
3427,-0.019652,-0.01211,0.023687
3428,0.017426,-0.01211,-0.012473
3429,-0.001113,0.005964,-0.012473
3430,-0.001113,0.005964,0.041767
3431,-0.001113,0.024037,0.023687
3432,-0.019652,0.005964,-0.012473
3433,-0.001113,0.005964,-0.030552
3434,-0.001113,0.005964,-0.012473
3435,-0.038191,0.005964,-0.012473
3436,-0.001113,0.005964,-0.030552
3437,-0.001113,0.024037,0.023687
3438,0.017426,0.024037,0.023687
3439,-0.001113,0.005964,-0.030552
3440,-0.001113,0.005964,0.023687
3441,-0.001113,-0.01211,0.005607
3442,-0.001113,0.005964,0.005607
3443,-0.001113,0.005964,0.005607
3444,-0.019652,-0.01211,0.023687
3445,-0.001113,0.005964,0.005607
3446,-0.019652,0.005964,-0.012473
3447,-0.019652,0.005964,0.041767
3448,0.017426,0.005964,-0.012473
3449,0.017426,0.005964,-0.012473
3450,-0.019652,0.005964,-0.012473
3451,-0.019652,0.005964,0.005607
3452,-0.001113,0.005964,0.005607
3453,0.017426,0.005964,-0.030552
3454,-0.019652,0.005964,-0.012473
3455,-0.001113,0.024037,0.005607
3456,-0.001113,0.005964,-0.030552
3457,-0.001113,0.005964,0.005607
3458,-0.001113,0.005964,0.005607
3459,-0.001113,0.005964,0.041767
3460,-0.001113,0.005964,-0.012473
3461,-0.019652,0.005964,0.005607
3462,-0.001113,0.024037,0.005607
3463,-0.001113,0.005964,0.005607
3464,-0.001113,-0.01211,-0.012473
3465,-0.001113,0.005964,0.005607
3466,-0.001113,0.005964,-0.012473
3467,-0.001113,0.005964,-0.012473
3468,0.017426,0.005964,-0.012473
3469,0.017426,-0.01211,-0.030552
3470,0.017426,-0.01211,-0.012473
3471,-0.001113,-0.01211,0.005607
3472,-0.019652,-0.01211,0.023687
3473,-0.001113,0.024037,0.023687
3474,-0.001113,0.024037,-0.012473
3475,-0.001113,-0.01211,0.023687
3476,-0.019652,-0.01211,0.023687
3477,-0.001113,0.005964,-0.012473
3478,-0.001113,-0.01211,0.023687
3479,-0.019652,0.005964,0.005607
3480,-0.001113,0.005964,0.005607
3481,-0.001113,0.005964,-0.012473
3482,-0.001113,-0.01211,-0.012473
3483,-0.019652,0.005964,0.005607
3484,-0.019652,-0.01211,-0.012473
3485,-0.001113,0.005964,-0.012473
3486,-0.001113,0.024037,0.023687
3487,-0.001113,0.005964,-0.012473
3488,0.017426,0.005964,-0.030552
3489,-0.001113,-0.01211,-0.012473
3490,-0.019652,0.005964,0.023687
3491,-0.019652,0.005964,-0.012473
3492,-0.019652,0.005964,0.005607
3493,0.017426,0.005964,0.023687
3494,0.017426,0.024037,0.005607
3495,-0.001113,0.005964,0.005607
3496,0.017426,0.005964,0.041767
3497,0.017426,0.005964,0.023687
3498,-0.019652,0.005964,-0.012473
3499,-0.019652,-0.01211,-0.012473
3500,-0.019652,0.005964,-0.012473
3501,-0.001113,-0.01211,-0.012473
3502,-0.001113,-0.01211,-0.030552
3503,-0.001113,0.024037,0.005607
3504,-0.001113,0.024037,0.005607
3505,-0.001113,0.005964,-0.030552
3506,-0.001113,-0.01211,0.005607
3507,-0.001113,0.024037,0.005607
3508,-0.001113,-0.01211,0.041767
3509,-0.001113,-0.030183,0.005607
3510,-0.001113,-0.01211,0.005607
3511,-0.019652,0.005964,0.005607
3512,-0.001113,0.005964,0.005607
3513,-0.001113,-0.01211,0.023687
3514,0.017426,-0.01211,0.005607
3515,-0.019652,0.005964,-0.012473
3516,0.017426,0.005964,-0.012473
3517,-0.001113,0.005964,-0.012473
3518,-0.001113,0.005964,-0.012473
3519,-0.001113,0.005964,-0.030552
3520,-0.001113,0.005964,-0.012473
3521,-0.001113,0.005964,0.023687
3522,-0.001113,0.024037,-0.012473
3523,-0.001113,0.024037,0.005607
3524,-0.001113,-0.01211,0.005607
3525,-0.001113,-0.01211,0.023687
3526,-0.001113,0.005964,0.005607
3527,-0.019652,0.024037,0.023687
3528,-0.019652,0.024037,0.023687
3529,-0.019652,0.005964,-0.030552
3530,-0.001113,0.005964,-0.012473
3531,-0.001113,0.005964,0.023687
3532,-0.019652,0.005964,0.005607
3533,-0.001113,-0.01211,-0.012473
3534,-0.001113,0.005964,-0.012473
3535,-0.019652,0.005964,-0.012473
3536,-0.001113,0.005964,0.005607
3537,0.017426,0.024037,-0.012473
3538,0.017426,0.005964,-0.012473
3539,-0.001113,-0.01211,0.005607
3540,0.017426,-0.01211,-0.012473
3541,-0.019652,0.005964,0.023687
3542,-0.001113,0.005964,0.041767
3543,-0.001113,-0.01211,0.023687
3544,-0.001113,0.024037,0.005607
3545,-0.001113,0.005964,0.023687
3546,-0.019652,0.024037,0.005607
3547,0.017426,0.005964,-0.012473
3548,-0.001113,0.005964,-0.030552
3549,-0.001113,-0.01211,-0.012473
3550,-0.001113,0.024037,-0.012473
3551,-0.001113,0.005964,-0.012473
3552,-0.019652,0.005964,-0.012473
3553,0.017426,-0.01211,-0.012473
3554,-0.001113,0.005964,-0.012473
3555,-0.019652,0.005964,0.005607
3556,-0.001113,0.005964,0.005607
3557,-0.001113,0.04211,-0.012473
3558,-0.001113,0.005964,0.023687
3559,-0.001113,0.005964,0.023687
3560,-0.001113,0.024037,0.023687
3561,-0.019652,0.005964,-0.012473
3562,-0.001113,0.005964,0.005607
3563,-0.001113,0.024037,0.023687
3564,-0.038191,0.005964,0.005607
3565,-0.001113,-0.01211,0.005607
3566,-0.001113,0.005964,0.041767
3567,-0.019652,0.005964,0.023687
3568,-0.001113,0.024037,-0.012473
3569,-0.019652,0.005964,-0.030552
3570,-0.019652,0.005964,0.005607
3571,-0.019652,-0.01211,-0.012473
3572,-0.001113,0.005964,-0.012473
3573,0.017426,-0.01211,-0.012473
3574,-0.001113,-0.01211,0.005607
3575,-0.019652,0.005964,-0.012473
3576,-0.001113,-0.01211,0.005607
3577,-0.001113,0.005964,0.023687
3578,-0.001113,0.024037,0.023687
3579,-0.001113,-0.01211,0.023687
3580,-0.001113,-0.01211,0.023687
3581,-0.001113,0.005964,0.005607
3582,-0.019652,-0.01211,-0.012473
3583,-0.019652,0.005964,-0.012473
3584,-0.019652,0.005964,0.005607
3585,-0.019652,0.024037,-0.012473
3586,-0.019652,0.005964,-0.012473
3587,-0.001113,0.005964,0.005607
3588,-0.05673,0.005964,-0.012473
3589,-0.001113,0.005964,-0.030552
3590,-0.001113,0.024037,0.005607
3591,0.017426,0.024037,0.005607
3592,-0.001113,0.024037,0.023687
3593,-0.001113,0.005964,-0.012473
3594,0.017426,0.005964,0.023687
3595,0.017426,0.005964,0.041767
3596,-0.001113,0.005964,0.005607
3597,-0.001113,0.005964,0.005607
3598,-0.019652,-0.01211,0.005607
3599,-0.001113,0.005964,0.005607
3600,-0.019652,-0.01211,-0.012473
3601,-0.001113,0.005964,0.005607
3602,-0.001113,0.024037,-0.012473
3603,0.017426,0.005964,-0.012473
3604,-0.019652,0.024037,-0.012473
3605,-0.001113,0.005964,0.005607
3606,0.017426,0.005964,-0.012473
3607,-0.001113,0.005964,-0.012473
3608,-0.001113,-0.01211,0.005607
3609,-0.038191,0.005964,0.023687
3610,-0.001113,0.005964,0.005607
3611,0.017426,0.005964,0.005607
3612,0.017426,0.024037,0.023687
3613,-0.001113,0.005964,0.023687
3614,-0.019652,0.024037,0.023687
3615,-0.019652,0.005964,0.023687
3616,-0.001113,0.005964,0.005607
3617,-0.019652,0.005964,0.005607
3618,-0.001113,0.005964,-0.012473
3619,-0.001113,0.005964,0.005607
3620,-0.019652,0.005964,0.005607
3621,0.017426,0.005964,-0.012473
3622,-0.001113,0.005964,0.005607
3623,0.035965,0.005964,-0.030552
3624,-0.001113,-0.01211,-0.030552
3625,-0.001113,0.005964,0.005607
3626,-0.001113,0.005964,0.023687
3627,-0.001113,0.005964,0.023687
3628,-0.038191,-0.01211,-0.012473
3629,0.017426,0.005964,0.005607
3630,-0.001113,-0.01211,0.023687
3631,-0.001113,0.005964,0.023687
3632,-0.001113,-0.01211,0.023687
3633,-0.019652,0.024037,0.005607
3634,-0.001113,0.005964,-0.030552
3635,-0.001113,0.005964,-0.030552
3636,-0.019652,0.005964,-0.030552
