# Requested Sampling Rate (Hz):,1000
# Actual Sampling Rate (Hz):,999.207
# Requested Duration (s):,5.0
# Actual Duration (s):,5.047
# REST Calibration:,832.0600347222207,831.6700347222207,832.6898611111126
# MAX Calibration:,886.0000,887.0000,888.0000
# Normalization: MVC-based  (x_norm = (x - REST) / (MAX - REST))
sample_idx,EMG1,EMG2,EMG3
0,-0.001113,0.005964,0.023687
1,-0.001113,0.005964,0.023687
2,-0.001113,0.005964,0.023687
3,0.035965,0.005964,0.005607
4,-0.001113,-0.01211,0.023687
5,-0.001113,0.005964,0.023687
6,-0.019652,0.024037,0.023687
7,-0.001113,0.005964,0.005607
8,0.017426,0.005964,0.005607
9,-0.001113,0.005964,-0.012473
10,-0.001113,0.005964,-0.012473
11,-0.019652,0.024037,-0.030552
12,-0.001113,0.005964,-0.030552
13,-0.019652,0.005964,-0.030552
14,-0.001113,-0.01211,-0.012473
15,-0.001113,0.005964,0.005607
16,-0.001113,0.005964,0.023687
17,-0.019652,-0.01211,-0.012473
18,-0.019652,0.005964,0.005607
19,-0.001113,0.005964,0.005607
20,-0.001113,0.005964,0.005607
21,0.017426,-0.01211,0.005607
22,0.017426,0.024037,0.005607
23,-0.019652,0.005964,-0.012473
24,-0.019652,0.005964,-0.030552
25,0.017426,0.005964,-0.030552
26,-0.001113,0.005964,-0.012473
27,0.017426,-0.01211,-0.012473
28,-0.019652,-0.01211,0.005607
29,-0.001113,-0.030183,0.005607
30,-0.019652,0.005964,0.005607
31,-0.019652,0.024037,0.005607
32,-0.019652,0.024037,0.023687
33,-0.019652,0.005964,0.023687
34,-0.019652,0.005964,0.023687
35,-0.001113,-0.01211,0.041767
36,0.017426,0.04211,0.005607
37,-0.019652,0.005964,0.023687
38,-0.001113,0.005964,0.023687
39,-0.001113,0.005964,0.023687
40,-0.001113,0.005964,0.005607
41,-0.019652,0.005964,-0.012473
42,-0.019652,0.005964,-0.030552
43,-0.001113,-0.01211,-0.012473
44,-0.001113,0.005964,-0.030552
45,-0.001113,0.005964,-0.030552
46,-0.001113,0.005964,-0.012473
47,-0.019652,0.005964,-0.012473
48,-0.001113,-0.01211,0.005607
49,-0.001113,0.005964,0.023687
50,-0.001113,0.024037,0.005607
51,-0.001113,0.024037,-0.012473
52,-0.001113,-0.01211,0.005607
53,0.017426,0.005964,0.005607
54,-0.001113,0.005964,-0.012473
55,0.017426,0.005964,-0.012473
56,-0.001113,0.005964,-0.012473
57,-0.001113,-0.01211,0.005607
58,-0.038191,0.005964,-0.012473
59,0.017426,-0.01211,-0.030552
60,-0.019652,-0.030183,-0.012473
61,-0.001113,0.005964,-0.030552
62,-0.001113,0.005964,0.023687
63,-0.001113,0.005964,0.023687
64,0.017426,0.005964,0.023687
65,-0.001113,0.005964,0.005607
66,-0.001113,0.005964,0.005607
67,-0.001113,0.024037,0.005607
68,-0.001113,0.005964,0.005607
69,-0.001113,0.024037,-0.012473
70,-0.001113,0.024037,-0.012473
71,-0.001113,0.005964,0.023687
72,0.017426,0.005964,-0.012473
73,-0.019652,-0.01211,-0.012473
74,-0.001113,-0.01211,-0.012473
75,-0.001113,0.005964,-0.012473
76,-0.001113,0.005964,-0.012473
77,-0.001113,0.005964,0.005607
78,0.017426,0.024037,0.005607
79,-0.019652,-0.01211,0.005607
80,-0.001113,0.005964,0.023687
81,-0.019652,0.024037,0.005607
82,-0.001113,0.024037,0.023687
83,0.017426,0.024037,0.023687
84,-0.019652,0.024037,0.005607
85,-0.019652,0.005964,0.005607
86,-0.001113,-0.01211,0.005607
87,-0.001113,0.005964,-0.012473
88,0.017426,0.005964,0.005607
89,-0.001113,0.005964,-0.012473
90,-0.001113,0.024037,0.005607
91,-0.019652,0.005964,-0.012473
92,-0.019652,0.005964,-0.030552
93,-0.001113,0.005964,-0.030552
94,-0.001113,-0.01211,-0.030552
95,-0.001113,-0.01211,0.023687
96,-0.019652,0.005964,0.023687
97,-0.001113,-0.01211,0.005607
98,-0.001113,0.005964,0.005607
99,-0.001113,0.005964,0.005607
100,-0.019652,0.005964,0.005607
101,-0.019652,-0.01211,-0.012473
102,-0.001113,0.005964,-0.012473
103,-0.001113,-0.01211,0.005607
104,-0.001113,-0.01211,-0.030552
105,-0.019652,0.005964,-0.012473
106,-0.001113,0.005964,-0.012473
107,0.017426,0.005964,0.005607
108,-0.001113,0.005964,0.005607
109,-0.019652,0.005964,0.005607
110,-0.001113,-0.01211,0.023687
111,-0.019652,0.024037,0.023687
112,-0.001113,-0.01211,0.005607
113,-0.001113,0.005964,0.023687
114,-0.001113,0.005964,0.041767
115,-0.001113,0.005964,0.023687
116,-0.001113,0.024037,-0.012473
117,-0.001113,0.005964,0.005607
118,-0.001113,-0.01211,-0.012473
119,-0.019652,0.005964,-0.012473
120,-0.001113,0.024037,0.005607
121,0.017426,-0.01211,-0.012473
122,0.017426,0.005964,-0.030552
123,-0.019652,0.005964,-0.030552
124,-0.001113,0.005964,-0.012473
125,-0.001113,0.024037,0.005607
126,-0.001113,0.005964,0.005607
127,-0.001113,-0.01211,0.005607
128,-0.001113,-0.01211,-0.012473
129,-0.019652,0.005964,0.005607
130,-0.001113,-0.01211,-0.012473
131,-0.001113,0.005964,-0.012473
132,-0.001113,0.005964,-0.012473
133,-0.001113,-0.01211,-0.012473
134,-0.001113,0.005964,0.005607
135,-0.001113,-0.01211,-0.012473
136,0.017426,-0.01211,-0.012473
137,-0.019652,-0.01211,0.023687
138,0.017426,0.024037,0.005607
139,0.017426,0.005964,0.023687
140,-0.001113,0.024037,0.041767
141,-0.001113,0.005964,0.005607
142,-0.001113,0.005964,0.005607
143,0.017426,0.024037,0.005607
144,-0.001113,0.005964,0.023687
145,-0.019652,0.005964,0.023687
146,-0.001113,0.005964,0.023687
147,-0.001113,0.005964,0.005607
148,-0.001113,0.005964,0.005607
149,-0.001113,0.005964,0.005607
150,-0.001113,0.005964,-0.012473
151,0.017426,0.005964,-0.012473
152,-0.001113,0.005964,0.005607
153,-0.001113,-0.01211,-0.012473
154,-0.001113,0.005964,-0.012473
155,-0.001113,0.005964,-0.030552
156,-0.001113,0.005964,0.005607
157,-0.001113,0.024037,0.005607
158,-0.001113,0.024037,0.005607
159,-0.001113,-0.01211,0.005607
160,-0.019652,0.005964,0.005607
161,-0.019652,0.024037,-0.012473
162,-0.001113,0.005964,-0.012473
163,-0.019652,0.005964,-0.030552
164,-0.001113,0.005964,-0.030552
165,-0.001113,0.005964,-0.030552
166,-0.001113,0.005964,-0.030552
167,-0.001113,-0.01211,-0.012473
168,-0.001113,0.024037,0.005607
169,-0.001113,0.005964,0.023687
170,-0.038191,-0.01211,0.005607
171,0.017426,0.024037,0.023687
172,0.017426,0.005964,0.005607
173,-0.001113,0.005964,0.041767
174,-0.001113,0.005964,0.041767
175,-0.019652,0.024037,0.041767
176,-0.019652,0.024037,0.005607
177,-0.001113,0.005964,0.005607
178,0.017426,0.005964,0.005607
179,0.017426,0.005964,-0.012473
180,0.035965,0.005964,0.005607
181,-0.001113,0.005964,0.005607
182,-0.001113,0.005964,-0.012473
183,-0.019652,0.005964,-0.030552
184,-0.001113,0.005964,-0.012473
185,-0.001113,-0.01211,-0.030552
186,-0.001113,-0.01211,-0.012473
187,-0.019652,-0.01211,0.005607
188,-0.001113,0.005964,0.023687
189,-0.001113,0.005964,0.023687
190,-0.001113,-0.01211,-0.012473
191,-0.001113,0.005964,0.005607
192,-0.001113,-0.01211,0.005607
193,-0.001113,0.005964,0.005607
194,-0.019652,0.005964,-0.012473
195,-0.001113,0.005964,-0.030552
196,-0.001113,0.005964,-0.012473
197,-0.001113,0.005964,-0.030552
198,0.017426,-0.01211,-0.012473
199,-0.001113,0.005964,-0.012473
200,-0.001113,0.024037,-0.012473
201,-0.001113,0.005964,0.023687
202,-0.001113,0.024037,0.023687
203,-0.001113,-0.030183,0.023687
204,-0.019652,0.005964,0.023687
205,-0.001113,0.024037,0.041767
206,-0.001113,0.005964,0.059847
207,-0.001113,0.005964,0.023687
208,0.035965,-0.01211,0.005607
209,-0.001113,-0.01211,-0.012473
210,-0.001113,-0.01211,0.005607
211,-0.001113,-0.01211,0.005607
212,-0.001113,0.005964,-0.012473
213,-0.001113,0.005964,-0.030552
214,-0.001113,0.005964,-0.012473
215,-0.019652,0.005964,-0.012473
216,-0.019652,0.005964,-0.012473
217,-0.038191,0.005964,-0.030552
218,-0.001113,0.005964,0.005607
219,-0.019652,0.005964,0.005607
220,0.017426,0.024037,-0.012473
221,-0.001113,0.005964,0.005607
222,-0.001113,0.005964,0.005607
223,-0.001113,0.005964,0.023687
224,-0.001113,0.024037,0.023687
225,-0.019652,0.005964,0.023687
226,-0.001113,-0.01211,0.023687
227,-0.001113,-0.01211,0.005607
228,-0.001113,0.005964,-0.030552
229,0.017426,0.005964,-0.030552
230,-0.019652,0.024037,0.005607
231,-0.001113,-0.01211,-0.012473
232,-0.001113,-0.01211,0.005607
233,-0.038191,0.024037,0.023687
234,-0.019652,-0.01211,0.005607
235,0.017426,0.005964,0.005607
236,-0.001113,-0.01211,0.023687
237,-0.001113,0.005964,0.023687
238,-0.001113,0.024037,0.041767
239,0.035965,0.024037,0.023687
240,-0.001113,0.005964,0.023687
241,-0.001113,0.005964,0.023687
242,-0.001113,0.005964,0.005607
243,-0.001113,0.005964,0.005607
244,0.017426,-0.01211,-0.012473
245,-0.001113,-0.01211,-0.012473
246,-0.001113,0.005964,-0.012473
247,-0.001113,0.005964,-0.030552
248,-0.001113,0.005964,-0.030552
249,-0.019652,0.005964,-0.012473
250,0.017426,0.005964,-0.012473
251,-0.001113,-0.01211,0.005607
252,-0.001113,0.005964,0.005607
253,-0.038191,0.005964,0.023687
254,0.017426,-0.01211,0.005607
255,-0.019652,0.005964,0.023687
256,-0.001113,0.005964,0.023687
257,-0.001113,0.024037,0.023687
258,-0.019652,0.005964,0.041767
259,-0.001113,-0.01211,0.023687
260,-0.019652,0.005964,0.005607
261,-0.001113,0.005964,-0.012473
262,-0.038191,-0.01211,0.005607
263,-0.001113,0.005964,0.005607
264,-0.001113,-0.01211,0.005607
265,-0.001113,0.096331,0.005607
266,-0.019652,0.005964,0.005607
267,-0.001113,0.005964,0.005607
268,0.017426,-0.01211,0.041767
269,-0.019652,0.005964,0.041767
270,-0.001113,0.005964,0.041767
271,0.017426,0.024037,0.023687
272,0.017426,-0.01211,0.023687
273,-0.001113,0.005964,0.005607
274,-0.001113,-0.01211,0.005607
275,0.017426,0.005964,0.005607
276,-0.001113,-0.01211,-0.012473
277,-0.019652,-0.030183,-0.030552
278,-0.019652,0.005964,-0.030552
279,-0.001113,0.005964,-0.030552
280,-0.001113,0.005964,-0.012473
281,-0.001113,0.005964,0.005607
282,-0.001113,0.024037,0.005607
283,-0.001113,0.005964,0.005607
284,-0.001113,0.005964,0.023687
285,-0.001113,0.005964,0.023687
286,0.017426,0.005964,0.023687
287,-0.001113,0.005964,0.041767
288,-0.001113,0.024037,0.041767
289,-0.001113,-0.01211,0.005607
290,-0.019652,-0.01211,0.005607
291,-0.038191,0.005964,0.005607
292,-0.001113,-0.01211,0.005607
293,-0.001113,0.005964,-0.012473
294,-0.001113,-0.01211,-0.012473
295,-0.001113,0.005964,-0.012473
296,-0.019652,0.005964,0.041767
297,-0.001113,0.005964,0.023687
298,-0.001113,0.005964,0.005607
299,0.017426,0.005964,0.023687
300,-0.001113,0.005964,0.023687
301,-0.001113,-0.01211,0.023687
302,-0.001113,0.005964,0.023687
303,-0.019652,0.005964,0.023687
304,-0.001113,-0.01211,0.005607
305,-0.001113,-0.01211,-0.012473
306,0.017426,0.005964,-0.012473
307,-0.001113,-0.01211,-0.012473
308,-0.001113,0.024037,0.005607
309,0.017426,0.005964,0.005607
310,-0.019652,0.005964,-0.012473
311,-0.019652,0.024037,-0.030552
312,-0.001113,-0.01211,-0.012473
313,0.017426,0.005964,0.005607
314,-0.001113,0.005964,0.023687
315,-0.001113,-0.01211,0.023687
316,-0.001113,0.005964,-0.012473
317,-0.019652,0.005964,0.005607
318,-0.001113,0.005964,0.041767
319,-0.001113,0.005964,0.059847
320,-0.001113,0.005964,0.023687
321,-0.019652,-0.01211,0.005607
322,0.017426,0.005964,0.005607
323,-0.019652,0.024037,0.005607
324,0.017426,0.024037,0.005607
325,-0.001113,0.005964,0.005607
326,-0.001113,0.005964,0.005607
327,-0.019652,0.005964,-0.030552
328,-0.019652,-0.01211,0.005607
329,-0.001113,0.005964,0.023687
330,-0.001113,0.005964,0.023687
331,-0.001113,0.024037,0.005607
332,0.017426,0.005964,0.005607
333,0.017426,0.005964,0.005607
334,-0.019652,0.005964,0.023687
335,-0.001113,0.024037,0.005607
336,-0.001113,-0.01211,-0.012473
337,-0.019652,0.005964,0.005607
338,-0.001113,0.005964,0.023687
339,-0.001113,0.005964,0.005607
340,-0.001113,0.005964,0.005607
341,-0.001113,0.024037,-0.012473
342,-0.019652,0.005964,-0.012473
343,-0.001113,0.005964,-0.012473
344,-0.001113,0.024037,-0.012473
345,-0.001113,-0.01211,-0.012473
346,-0.019652,0.005964,-0.012473
347,-0.001113,0.005964,0.005607
348,-0.038191,0.005964,0.005607
349,-0.001113,0.005964,0.023687
350,-0.019652,0.024037,0.041767
351,-0.001113,0.005964,0.023687
352,-0.001113,0.005964,0.023687
353,-0.001113,0.024037,0.023687
354,-0.001113,0.005964,0.005607
355,-0.019652,0.005964,0.005607
356,0.017426,0.024037,-0.012473
357,0.017426,0.005964,0.005607
358,-0.001113,-0.01211,-0.012473
359,-0.019652,0.024037,-0.012473
360,-0.001113,0.024037,-0.012473
361,-0.001113,-0.01211,-0.012473
362,-0.038191,0.005964,0.041767
363,-0.001113,0.005964,0.023687
364,-0.001113,0.005964,0.005607
365,0.017426,0.005964,-0.012473
366,-0.019652,0.005964,-0.012473
367,-0.001113,0.005964,-0.012473
368,-0.001113,0.005964,0.005607
369,-0.001113,0.005964,-0.012473
370,-0.001113,0.005964,0.005607
371,0.017426,0.024037,-0.012473
372,0.017426,0.024037,-0.012473
373,-0.001113,0.005964,-0.012473
374,-0.019652,-0.01211,-0.012473
375,-0.001113,0.005964,0.005607
376,-0.001113,0.005964,0.005607
377,-0.001113,0.005964,0.005607
378,-0.019652,0.005964,0.023687
379,-0.001113,-0.01211,0.023687
380,-0.019652,0.005964,0.005607
381,-0.001113,-0.01211,0.023687
382,-0.001113,-0.01211,0.023687
383,-0.019652,0.005964,0.005607
384,-0.001113,0.005964,0.005607
385,-0.001113,0.005964,0.005607
386,-0.001113,0.005964,0.005607
387,-0.019652,-0.01211,-0.012473
388,-0.019652,0.005964,0.005607
389,-0.019652,0.005964,0.023687
390,0.017426,0.005964,-0.012473
391,-0.001113,0.024037,-0.012473
392,0.017426,0.024037,-0.012473
393,-0.001113,0.005964,-0.030552
394,-0.001113,-0.01211,-0.012473
395,-0.019652,0.005964,0.005607
396,-0.001113,0.005964,0.005607
397,0.017426,-0.01211,0.005607
398,-0.001113,-0.01211,-0.012473
399,-0.001113,-0.01211,0.005607
400,0.017426,0.005964,-0.012473
401,-0.001113,0.024037,0.005607
402,-0.001113,0.005964,-0.012473
403,-0.001113,0.005964,-0.012473
404,-0.038191,-0.01211,-0.030552
405,-0.001113,-0.01211,0.005607
406,-0.019652,0.024037,0.023687
407,0.017426,0.005964,0.005607
408,-0.001113,0.005964,0.005607
409,-0.019652,-0.01211,0.005607
410,-0.001113,0.024037,0.005607
411,-0.001113,-0.01211,0.023687
412,-0.001113,0.005964,0.023687
413,-0.019652,-0.01211,0.023687
414,-0.001113,0.024037,0.023687
415,-0.019652,0.005964,0.023687
416,-0.001113,0.024037,0.005607
417,-0.038191,-0.01211,0.023687
418,-0.001113,0.005964,0.023687
419,0.017426,0.005964,0.005607
420,-0.001113,0.005964,0.005607
421,-0.019652,0.024037,-0.012473
422,0.017426,0.005964,-0.012473
423,-0.001113,0.005964,-0.030552
424,-0.001113,-0.01211,-0.012473
425,-0.001113,0.005964,0.005607
426,-0.001113,0.005964,-0.012473
427,-0.001113,-0.01211,0.005607
428,-0.019652,0.005964,0.005607
429,-0.019652,0.005964,0.005607
430,-0.001113,-0.01211,-0.012473
431,-0.001113,0.005964,-0.030552
432,-0.001113,-0.01211,0.005607
433,-0.019652,-0.01211,-0.012473
434,-0.001113,-0.01211,-0.012473
435,-0.001113,0.024037,-0.012473
436,-0.019652,0.024037,0.005607
437,-0.001113,0.024037,-0.012473
438,0.017426,0.005964,0.005607
439,-0.001113,-0.01211,0.005607
440,-0.019652,0.024037,0.005607
441,-0.001113,-0.01211,0.005607
442,0.017426,0.005964,0.023687
443,-0.001113,0.005964,0.023687
444,-0.001113,0.005964,0.023687
445,-0.001113,0.024037,0.023687
446,-0.001113,-0.01211,0.023687
447,-0.019652,0.024037,0.005607
448,0.035965,0.005964,0.005607
449,-0.001113,0.005964,0.005607
450,-0.001113,0.005964,0.005607
451,-0.019652,0.005964,-0.012473
452,-0.001113,0.04211,-0.030552
453,-0.019652,0.005964,-0.012473
454,-0.001113,0.005964,0.005607
455,-0.019652,0.024037,-0.030552
456,-0.038191,0.005964,-0.012473
457,-0.019652,-0.030183,0.005607
458,0.017426,0.024037,0.023687
459,-0.001113,0.024037,0.005607
460,-0.001113,-0.01211,0.005607
461,0.017426,-0.01211,-0.012473
462,0.017426,0.024037,0.005607
463,-0.001113,-0.030183,-0.012473
464,-0.001113,0.005964,-0.012473
465,0.017426,0.005964,-0.030552
466,-0.001113,0.005964,-0.012473
467,0.017426,0.005964,-0.012473
468,-0.001113,-0.01211,-0.012473
469,0.017426,0.005964,-0.012473
470,-0.001113,0.005964,0.005607
471,-0.001113,0.005964,0.023687
472,-0.019652,0.005964,0.023687
473,0.017426,-0.01211,0.005607
474,0.017426,0.024037,0.023687
475,-0.001113,0.005964,0.023687
476,-0.038191,-0.01211,0.005607
477,-0.019652,0.005964,0.023687
478,-0.038191,-0.030183,0.023687
479,-0.019652,0.005964,-0.012473
480,-0.001113,0.005964,-0.012473
481,0.017426,-0.01211,0.005607
482,-0.019652,0.005964,0.005607
483,-0.001113,0.005964,-0.012473
484,-0.001113,-0.01211,-0.012473
485,-0.001113,0.005964,-0.012473
486,0.017426,0.024037,-0.030552
487,-0.001113,0.005964,-0.030552
488,-0.001113,0.005964,-0.012473
489,-0.019652,-0.01211,0.005607
490,-0.001113,-0.01211,-0.012473
491,-0.001113,-0.01211,0.005607
492,-0.019652,0.005964,0.023687
493,-0.019652,0.005964,0.005607
494,-0.001113,0.024037,0.023687
495,-0.019652,-0.01211,0.005607
496,0.017426,0.005964,-0.012473
497,-0.001113,0.005964,-0.012473
498,-0.001113,-0.01211,-0.012473
499,-0.001113,0.005964,-0.012473
500,-0.019652,0.005964,0.005607
501,-0.001113,-0.01211,-0.012473
502,-0.019652,0.005964,0.005607
503,-0.019652,0.005964,0.005607
504,-0.001113,0.005964,0.005607
505,-0.019652,0.005964,0.005607
506,-0.001113,0.005964,0.023687
507,-0.019652,0.005964,0.005607
508,-0.019652,0.005964,0.023687
509,0.017426,-0.01211,0.023687
510,0.017426,0.005964,0.005607
511,-0.019652,0.005964,0.005607
512,-0.019652,0.005964,0.005607
513,-0.001113,0.005964,0.005607
514,-0.001113,0.005964,0.005607
515,-0.019652,0.005964,-0.012473
516,-0.019652,0.024037,0.005607
517,-0.001113,0.005964,-0.012473
518,-0.019652,0.005964,-0.012473
519,-0.001113,-0.01211,-0.030552
520,-0.019652,0.005964,0.005607
521,0.035965,0.005964,0.023687
522,-0.001113,0.005964,-0.012473
523,-0.019652,0.005964,0.023687
524,0.017426,0.005964,0.005607
525,-0.019652,-0.030183,0.005607
526,-0.001113,0.024037,0.023687
527,-0.001113,0.005964,0.023687
528,-0.001113,0.005964,-0.012473
529,-0.001113,-0.01211,-0.030552
530,-0.001113,0.005964,-0.030552
531,-0.001113,-0.01211,-0.030552
532,-0.001113,0.005964,-0.012473
533,-0.001113,0.005964,0.005607
534,-0.001113,0.024037,-0.012473
535,-0.019652,0.005964,0.005607
536,-0.001113,0.005964,0.023687
537,-0.019652,0.005964,0.023687
538,0.017426,0.024037,0.041767
539,-0.001113,0.024037,0.041767
540,-0.001113,0.005964,0.023687
541,-0.001113,0.005964,0.023687
542,-0.001113,0.005964,0.005607
543,-0.019652,0.005964,0.005607
544,-0.019652,-0.01211,0.005607
545,0.017426,-0.01211,-0.012473
546,-0.019652,0.024037,-0.012473
547,-0.001113,0.005964,-0.012473
548,-0.001113,0.005964,0.005607
549,-0.001113,0.005964,-0.012473
550,-0.001113,-0.01211,-0.012473
551,-0.001113,0.005964,0.005607
552,-0.001113,0.005964,-0.030552
553,-0.019652,0.005964,0.005607
554,-0.019652,0.024037,0.005607
555,-0.019652,-0.01211,0.005607
556,0.054504,0.005964,0.023687
557,-0.019652,0.005964,0.005607
558,-0.001113,0.024037,0.005607
559,-0.001113,0.005964,0.041767
560,0.017426,0.005964,0.023687
561,-0.019652,-0.01211,-0.030552
562,-0.001113,0.005964,-0.030552
563,-0.001113,0.005964,-0.012473
564,0.017426,0.024037,-0.012473
565,-0.001113,-0.01211,0.005607
566,-0.001113,0.005964,0.005607
567,0.017426,0.005964,0.005607
568,-0.001113,0.005964,0.005607
569,-0.001113,0.005964,0.005607
570,-0.001113,0.005964,-0.012473
571,0.017426,0.024037,0.023687
572,-0.001113,0.005964,0.023687
573,-0.019652,-0.030183,0.005607
574,-0.001113,-0.01211,0.023687
575,-0.001113,0.005964,0.023687
576,-0.001113,0.005964,0.005607
577,-0.001113,-0.01211,0.005607
578,-0.001113,-0.01211,-0.012473
579,-0.001113,0.005964,-0.012473
580,-0.038191,0.005964,0.005607
581,-0.001113,-0.01211,0.005607
582,-0.001113,0.005964,-0.012473
583,0.017426,0.005964,-0.030552
584,-0.001113,-0.01211,-0.030552
585,-0.019652,0.005964,-0.012473
586,-0.001113,0.005964,0.005607
587,-0.019652,0.005964,0.023687
588,0.017426,0.024037,0.005607
589,-0.001113,0.005964,0.023687
590,-0.019652,0.005964,0.023687
591,0.017426,0.005964,0.041767
592,-0.001113,0.005964,0.023687
593,-0.019652,0.005964,0.041767
594,-0.019652,-0.01211,0.005607
595,-0.019652,0.024037,-0.030552
596,-0.019652,-0.01211,-0.030552
597,-0.038191,-0.01211,-0.012473
598,-0.019652,0.005964,-0.012473
599,-0.019652,0.005964,-0.012473
600,0.017426,0.005964,-0.012473
601,-0.001113,0.005964,-0.012473
602,-0.019652,-0.01211,0.023687
603,-0.001113,0.005964,0.023687
604,-0.001113,0.005964,0.041767
605,-0.019652,-0.01211,0.023687
606,-0.001113,-0.01211,0.023687
607,-0.001113,0.005964,0.041767
608,-0.001113,0.005964,0.059847
609,-0.001113,0.024037,0.041767
610,-0.019652,0.005964,0.023687
611,-0.001113,0.005964,-0.012473
612,-0.019652,-0.01211,-0.012473
613,0.017426,0.005964,-0.012473
614,-0.001113,-0.01211,-0.066712
615,-0.001113,0.005964,-0.048632
616,-0.001113,0.005964,-0.048632
617,-0.001113,0.005964,-0.012473
618,-0.001113,-0.01211,-0.030552
619,0.017426,-0.01211,-0.030552
620,-0.019652,-0.01211,-0.030552
621,-0.001113,0.005964,-0.012473
622,-0.001113,0.024037,0.005607
623,-0.038191,0.005964,0.005607
624,-0.019652,-0.01211,0.023687
625,0.017426,0.005964,0.041767
626,-0.001113,0.024037,0.023687
627,-0.019652,0.005964,-0.030552
628,0.035965,0.005964,-0.030552
629,-0.001113,0.024037,-0.030552
630,-0.001113,0.005964,-0.030552
631,-0.019652,0.005964,-0.012473
632,0.017426,0.005964,-0.012473
633,-0.019652,-0.01211,-0.012473
634,-0.019652,-0.01211,-0.012473
635,-0.001113,0.005964,-0.012473
636,-0.001113,0.005964,0.041767
637,-0.001113,0.005964,0.077927
638,-0.001113,-0.01211,0.077927
639,-0.001113,-0.01211,0.059847
640,-0.019652,0.005964,0.041767
641,-0.001113,0.005964,0.041767
642,-0.001113,0.024037,0.005607
643,-0.001113,0.024037,-0.012473
644,-0.019652,0.005964,-0.012473
645,-0.001113,-0.01211,-0.030552
646,-0.001113,0.005964,0.005607
647,-0.001113,0.024037,0.041767
648,-0.019652,0.005964,0.041767
649,-0.001113,-0.01211,0.005607
650,-0.001113,0.024037,0.023687
651,0.035965,0.024037,0.041767
652,-0.001113,0.005964,0.041767
653,-0.019652,0.005964,0.041767
654,-0.001113,0.024037,0.023687
655,0.017426,0.005964,0.059847
656,-0.038191,0.005964,0.059847
657,-0.001113,-0.01211,0.041767
658,-0.019652,-0.01211,0.023687
659,-0.001113,0.005964,0.005607
660,0.017426,0.024037,-0.012473
661,-0.019652,0.005964,-0.012473
662,-0.019652,0.005964,-0.030552
663,-0.019652,-0.01211,0.005607
664,-0.019652,-0.030183,0.023687
665,-0.019652,-0.01211,0.005607
666,-0.019652,0.024037,0.005607
667,-0.019652,0.005964,0.023687
668,-0.038191,0.005964,0.023687
669,-0.05673,-0.01211,0.005607
670,-0.019652,-0.01211,0.005607
671,0.017426,-0.01211,0.005607
672,0.073044,0.005964,0.023687
673,0.054504,0.024037,0.023687
674,0.017426,0.005964,0.005607
675,0.035965,0.005964,-0.012473
676,0.017426,0.005964,-0.048632
677,-0.001113,0.005964,-0.066712
678,-0.038191,-0.01211,-0.066712
679,-0.001113,0.005964,-0.048632
680,-0.001113,-0.01211,-0.066712
681,-0.001113,-0.01211,-0.048632
682,-0.001113,0.005964,0.023687
683,-0.001113,0.024037,0.059847
684,-0.001113,0.005964,0.023687
685,0.017426,0.024037,0.041767
686,-0.001113,0.005964,0.041767
687,0.017426,-0.01211,0.059847
688,-0.001113,0.005964,0.041767
689,-0.001113,0.024037,0.005607
690,0.017426,-0.01211,0.005607
691,-0.001113,0.024037,0.041767
692,-0.001113,0.024037,0.005607
693,-0.019652,0.024037,-0.012473
694,-0.001113,-0.01211,-0.030552
695,0.017426,-0.030183,-0.030552
696,-0.001113,-0.030183,-0.012473
697,-0.019652,-0.048257,-0.030552
698,-0.038191,-0.030183,-0.030552
699,-0.038191,-0.030183,-0.066712
700,-0.019652,-0.030183,-0.048632
701,-0.038191,-0.01211,0.005607
702,-0.001113,-0.01211,0.077927
703,0.017426,0.060184,0.150246
704,0.054504,0.078257,0.222566
705,0.035965,0.078257,0.186406
706,0.017426,0.060184,0.132166
707,-0.001113,0.060184,0.059847
708,0.017426,0.024037,0.005607
709,0.035965,0.005964,-0.030552
710,-0.001113,-0.030183,-0.084792
711,-0.019652,-0.048257,-0.084792
712,-0.038191,-0.030183,-0.066712
713,-0.038191,-0.01211,-0.048632
714,-0.019652,-0.01211,-0.066712
715,-0.001113,-0.01211,-0.066712
716,-0.038191,-0.01211,-0.066712
717,-0.001113,-0.030183,-0.066712
718,-0.038191,-0.01211,-0.030552
719,-0.019652,0.005964,0.005607
720,-0.001113,0.024037,0.041767
721,-0.001113,0.024037,0.041767
722,-0.001113,0.005964,-0.012473
723,-0.001113,0.005964,0.023687
724,-0.019652,-0.01211,0.023687
725,-0.001113,0.005964,-0.012473
726,-0.001113,-0.01211,0.005607
727,-0.001113,0.005964,0.023687
728,-0.001113,0.005964,0.041767
729,-0.019652,0.005964,0.059847
730,-0.001113,0.024037,0.059847
731,0.017426,0.005964,0.059847
732,0.035965,0.024037,0.041767
733,-0.001113,0.005964,0.023687
734,-0.001113,0.005964,0.005607
735,-0.019652,0.005964,0.005607
736,-0.019652,0.024037,-0.048632
737,-0.019652,0.005964,-0.048632
738,-0.019652,0.005964,-0.030552
739,-0.019652,-0.01211,-0.120952
740,-0.001113,-0.01211,-0.084792
741,-0.019652,-0.030183,-0.012473
742,-0.019652,-0.01211,0.096007
743,-0.001113,0.024037,0.096007
744,0.035965,0.04211,0.077927
745,0.035965,0.005964,0.077927
746,0.017426,0.005964,0.077927
747,-0.019652,0.024037,0.059847
748,-0.019652,0.005964,0.041767
749,-0.001113,-0.01211,0.041767
750,-0.038191,0.005964,0.005607
751,-0.019652,0.024037,0.005607
752,-0.038191,0.005964,0.005607
753,-0.05673,-0.030183,-0.030552
754,-0.038191,-0.030183,-0.048632
755,0.017426,0.005964,-0.048632
756,0.073044,0.005964,-0.066712
757,0.073044,0.005964,-0.066712
758,0.017426,-0.01211,-0.102872
759,0.017426,-0.030183,-0.120952
760,-0.019652,-0.048257,-0.048632
761,-0.001113,0.005964,0.023687
762,-0.001113,0.024037,0.114086
763,0.017426,0.005964,0.204486
764,-0.001113,0.024037,0.132166
765,0.017426,0.04211,0.114086
766,-0.001113,0.04211,0.077927
767,-0.001113,0.024037,0.041767
768,-0.001113,0.005964,-0.048632
769,-0.019652,0.005964,-0.084792
770,-0.038191,0.005964,-0.030552
771,-0.001113,0.024037,0.005607
772,0.017426,0.04211,0.023687
773,0.017426,0.024037,0.005607
774,0.017426,0.024037,0.005607
775,-0.001113,-0.01211,-0.030552
776,-0.019652,-0.01211,-0.048632
777,-0.001113,-0.01211,-0.012473
778,-0.001113,-0.01211,-0.012473
779,-0.001113,-0.01211,0.005607
780,-0.001113,-0.01211,0.023687
781,-0.001113,0.005964,0.059847
782,0.017426,0.024037,0.059847
783,0.017426,0.005964,0.041767
784,-0.001113,0.024037,0.005607
785,-0.001113,-0.030183,-0.048632
786,-0.001113,-0.030183,-0.048632
787,0.017426,-0.030183,-0.048632
788,-0.001113,-0.01211,-0.066712
789,0.017426,-0.01211,-0.030552
790,-0.001113,0.005964,-0.048632
791,-0.001113,-0.01211,-0.012473
792,0.017426,-0.01211,-0.048632
793,-0.001113,0.005964,0.005607
794,-0.001113,-0.01211,0.041767
795,-0.001113,0.024037,0.114086
796,0.017426,0.024037,0.114086
797,-0.001113,0.024037,0.023687
798,-0.001113,0.005964,-0.012473
799,-0.001113,0.024037,0.005607
800,-0.001113,0.024037,0.023687
801,0.017426,0.024037,0.041767
802,0.017426,0.024037,-0.012473
803,-0.001113,-0.01211,-0.048632
804,0.017426,0.005964,0.059847
805,0.017426,0.078257,0.168326
806,-0.001113,0.060184,0.150246
807,-0.001113,0.005964,0.077927
808,-0.019652,0.005964,0.059847
809,-0.001113,-0.01211,0.059847
810,-0.001113,-0.01211,-0.012473
811,0.017426,-0.01211,0.023687
812,0.035965,0.005964,0.096007
813,0.035965,0.060184,0.059847
814,0.035965,0.024037,0.023687
815,-0.019652,-0.01211,-0.120952
816,-0.019652,-0.030183,-0.102872
817,-0.019652,-0.01211,-0.066712
818,0.017426,-0.030183,-0.048632
819,-0.001113,0.005964,-0.048632
820,-0.001113,-0.01211,-0.066712
821,0.017426,-0.030183,-0.084792
822,-0.001113,-0.030183,-0.084792
823,0.017426,0.005964,-0.030552
824,0.017426,0.005964,0.114086
825,0.017426,0.04211,0.168326
826,-0.001113,0.024037,0.114086
827,-0.001113,-0.01211,-0.012473
828,-0.019652,-0.030183,-0.084792
829,-0.019652,-0.01211,-0.175191
830,0.017426,0.005964,-0.175191
831,0.017426,-0.030183,-0.157112
832,0.017426,-0.01211,-0.120952
833,0.017426,-0.030183,-0.066712
834,0.017426,-0.01211,0.096007
835,-0.019652,-0.01211,0.150246
836,0.017426,0.024037,0.204486
837,0.017426,0.060184,0.186406
838,0.035965,0.04211,0.114086
839,-0.001113,-0.01211,-0.084792
840,0.017426,-0.048257,-0.157112
841,-0.019652,-0.030183,-0.157112
842,-0.019652,-0.01211,-0.012473
843,-0.001113,-0.030183,-0.012473
844,-0.001113,-0.01211,0.041767
845,0.035965,0.04211,0.096007
846,0.017426,0.04211,0.077927
847,0.035965,0.04211,0.077927
848,0.035965,0.04211,0.168326
849,0.017426,0.04211,0.168326
850,0.017426,0.04211,0.168326
851,0.054504,0.024037,0.186406
852,0.017426,0.005964,0.077927
853,-0.019652,-0.030183,-0.084792
854,-0.001113,-0.048257,-0.084792
855,-0.001113,0.005964,0.005607
856,0.017426,0.005964,-0.012473
857,0.017426,-0.01211,-0.120952
858,-0.001113,-0.01211,-0.048632
859,-0.001113,0.005964,0.059847
860,-0.001113,-0.01211,-0.012473
861,-0.001113,-0.030183,-0.012473
862,-0.001113,-0.030183,-0.048632
863,0.017426,-0.030183,-0.048632
864,-0.001113,-0.048257,-0.193271
865,-0.001113,-0.01211,-0.157112
866,0.017426,-0.01211,-0.102872
867,-0.001113,-0.030183,-0.030552
868,-0.019652,-0.01211,0.005607
869,-0.001113,-0.01211,0.114086
870,-0.019652,-0.01211,0.114086
871,-0.019652,0.005964,0.204486
872,0.035965,0.04211,0.186406
873,0.035965,0.04211,-0.048632
874,-0.001113,-0.01211,-0.193271
875,-0.019652,-0.048257,-0.175191
876,-0.001113,-0.030183,-0.048632
877,-0.038191,-0.048257,-0.084792
878,0.035965,-0.048257,-0.012473
879,-0.001113,-0.030183,-0.139032
880,0.035965,0.005964,-0.048632
881,-0.019652,0.024037,0.114086
882,0.054504,0.024037,0.132166
883,-0.001113,0.04211,0.204486
884,0.035965,0.04211,0.222566
885,0.054504,0.078257,0.186406
886,0.017426,0.024037,0.041767
887,0.017426,-0.01211,0.023687
888,-0.001113,-0.030183,-0.012473
889,0.017426,-0.030183,-0.084792
890,-0.001113,-0.030183,-0.120952
891,0.035965,0.005964,-0.066712
892,0.017426,0.005964,-0.030552
893,-0.001113,-0.01211,-0.030552
894,-0.038191,-0.048257,0.041767
895,-0.019652,-0.048257,-0.066712
896,-0.001113,-0.030183,-0.211351
897,-0.001113,-0.06633,-0.31983
898,-0.001113,-0.030183,-0.102872
899,-0.038191,-0.01211,-0.084792
900,-0.001113,-0.030183,-0.012473
901,-0.001113,0.024037,0.150246
902,-0.001113,0.005964,0.150246
903,0.017426,0.078257,0.096007
904,0.035965,0.096331,0.041767
905,0.017426,0.04211,-0.048632
906,0.017426,-0.01211,-0.048632
907,-0.001113,-0.030183,0.150246
908,-0.001113,0.005964,0.258725
909,0.035965,0.04211,0.240646
910,0.091583,0.096331,0.457604
911,0.073044,0.114404,0.258725
912,0.035965,0.005964,-0.102872
913,-0.019652,-0.048257,-0.39215
914,-0.019652,-0.06633,-0.33791
915,-0.038191,-0.048257,-0.139032
916,-0.05673,-0.030183,0.005607
917,-0.019652,0.005964,-0.084792
918,-0.001113,-0.030183,-0.048632
919,-0.019652,-0.030183,0.204486
920,0.017426,0.005964,0.312965
921,0.035965,0.060184,0.294885
922,0.017426,0.060184,0.132166
923,0.073044,0.096331,0.114086
924,-0.001113,0.078257,0.023687
925,-0.05673,-0.048257,-0.175191
926,-0.05673,-0.12055,-0.31983
927,-0.05673,-0.138624,-0.554869
928,-0.001113,-0.06633,-0.464469
929,-0.001113,0.005964,-0.175191
930,0.017426,0.005964,-0.229431
931,-0.001113,-0.048257,-0.193271
932,-0.019652,-0.01211,0.457604
933,0.017426,0.078257,0.746882
934,0.054504,0.078257,0.584163
935,-0.001113,0.078257,0.421444
936,0.017426,0.060184,0.041767
937,0.035965,0.024037,-0.193271
938,-0.038191,-0.06633,-0.33791
939,0.017426,-0.084403,-0.33791
940,0.017426,-0.01211,0.059847
941,0.073044,0.096331,0.349125
942,-0.001113,0.04211,0.168326
943,-0.001113,0.005964,0.077927
944,-0.05673,-0.06633,-0.35599
945,-0.07527,-0.102477,-0.37407
946,-0.038191,-0.102477,-0.39215
947,-0.038191,-0.048257,-0.211351
948,-0.001113,0.078257,0.421444
949,0.017426,0.132477,0.584163
950,0.017426,0.096331,0.439524
951,0.017426,0.060184,0.258725
952,-0.001113,0.04211,0.041767
953,-0.019652,0.005964,-0.139032
954,-0.019652,-0.048257,-0.518709
955,-0.019652,-0.102477,-0.699508
956,-0.019652,-0.06633,-0.572948
957,-0.001113,-0.048257,-0.35599
958,-0.093809,-0.06633,0.294885
959,-0.038191,0.005964,0.764962
960,-0.019652,0.078257,0.602243
961,-0.001113,0.096331,0.475684
962,0.017426,0.078257,0.240646
963,0.017426,0.060184,0.096007
964,-0.038191,-0.01211,0.096007
965,-0.019652,-0.01211,-0.030552
966,-0.001113,-0.01211,-0.030552
967,-0.001113,0.024037,0.041767
968,0.017426,0.024037,-0.066712
969,0.035965,0.005964,0.041767
970,0.073044,0.078257,0.312965
971,0.054504,0.078257,0.222566
972,-0.038191,-0.01211,-0.229431
973,-0.038191,-0.030183,-0.211351
974,-0.019652,-0.030183,-0.33791
975,-0.07527,-0.102477,-0.717587
976,-0.038191,-0.12055,-0.41023
977,-0.07527,-0.12055,-0.211351
978,-0.05673,-0.102477,-0.229431
979,-0.019652,-0.01211,0.023687
980,-0.019652,-0.01211,0.059847
981,-0.019652,-0.01211,0.222566
982,-0.001113,0.005964,0.168326
983,-0.019652,0.060184,0.168326
984,0.054504,0.114404,0.349125
985,0.1472,0.186697,0.529923
986,0.091583,0.114404,0.367205
987,-0.019652,0.005964,0.005607
988,-0.05673,-0.030183,-0.139032
989,-0.019652,-0.030183,-0.193271
990,0.017426,-0.01211,-0.120952
991,-0.038191,-0.048257,-0.102872
992,-0.038191,-0.048257,-0.012473
993,-0.019652,0.005964,-0.066712
994,0.054504,0.04211,0.096007
995,0.035965,0.005964,-0.084792
996,0.054504,0.024037,-0.120952
997,-0.001113,-0.01211,-0.066712
998,-0.038191,-0.030183,-0.012473
999,-0.019652,0.005964,0.023687
1000,-0.019652,0.078257,0.276805
1001,-0.019652,0.005964,0.132166
1002,-0.001113,-0.01211,-0.120952
1003,-0.038191,-0.102477,-0.37407
1004,-0.05673,-0.048257,-0.283671
1005,-0.019652,-0.01211,0.077927
1006,-0.001113,-0.01211,-0.084792
1007,-0.038191,-0.102477,-0.33791
1008,-0.05673,-0.102477,-0.229431
1009,-0.019652,0.005964,0.077927
1010,0.073044,0.168624,0.692642
1011,0.035965,0.150551,0.548003
1012,0.035965,0.096331,0.385284
1013,0.017426,0.060184,0.439524
1014,0.017426,0.096331,0.312965
1015,0.017426,0.096331,-0.157112
1016,-0.001113,-0.01211,-0.42831
1017,-0.038191,-0.06633,-0.554869
1018,-0.093809,-0.12055,-0.482549
1019,-0.05673,-0.102477,-0.283671
1020,-0.05673,-0.102477,-0.084792
1021,0.017426,0.005964,0.005607
1022,0.054504,0.04211,0.041767
1023,0.017426,0.04211,0.114086
1024,-0.001113,0.005964,0.023687
1025,-0.019652,0.024037,0.114086
1026,-0.019652,0.078257,0.240646
1027,-0.019652,0.024037,0.096007
1028,-0.05673,0.005964,0.150246
1029,-0.038191,-0.01211,0.041767
1030,-0.019652,-0.048257,-0.120952
1031,0.073044,0.078257,0.023687
1032,0.035965,0.04211,-0.030552
1033,-0.019652,-0.048257,-0.37407
1034,-0.05673,-0.06633,-0.193271
1035,-0.038191,-0.030183,0.168326
1036,0.017426,0.024037,0.240646
1037,-0.001113,0.005964,0.077927
1038,-0.001113,-0.048257,0.023687
1039,-0.05673,-0.048257,-0.120952
1040,-0.038191,-0.048257,-0.265591
1041,-0.038191,-0.030183,-0.120952
1042,0.017426,0.024037,0.132166
1043,0.017426,0.04211,-0.120952
1044,-0.001113,-0.048257,-0.33791
1045,-0.07527,-0.102477,-0.37407
1046,-0.05673,-0.01211,0.367205
1047,0.054504,0.114404,0.764962
1048,0.054504,0.096331,0.457604
1049,0.054504,0.132477,0.331045
1050,0.091583,0.132477,0.349125
1051,0.073044,0.096331,0.258725
1052,0.035965,0.060184,0.077927
1053,-0.019652,-0.01211,-0.120952
1054,-0.07527,-0.12055,-0.464469
1055,-0.093809,-0.12055,-0.446389
1056,-0.05673,-0.06633,-0.084792
1057,-0.112348,-0.048257,0.204486
1058,-0.05673,-0.048257,-0.012473
1059,-0.019652,0.005964,-0.048632
1060,-0.001113,-0.01211,-0.120952
1061,-0.019652,-0.01211,0.041767
1062,-0.019652,0.005964,0.150246
1063,-0.001113,0.04211,0.077927
1064,-0.019652,-0.01211,-0.066712
1065,0.017426,-0.030183,-0.30175
1066,0.017426,-0.01211,-0.31983
1067,0.017426,-0.01211,-0.33791
1068,-0.05673,-0.084403,-0.446389
1069,-0.07527,-0.06633,-0.066712
1070,-0.001113,0.060184,0.168326
1071,0.035965,0.096331,0.096007
1072,0.091583,0.096331,0.312965
1073,0.017426,0.078257,0.331045
1074,-0.05673,-0.030183,-0.048632
1075,-0.05673,-0.084403,-0.283671
1076,-0.112348,-0.102477,0.077927
1077,-0.038191,0.005964,0.385284
1078,-0.001113,0.04211,0.168326
1079,-0.019652,-0.06633,-0.175191
1080,-0.019652,-0.084403,-0.37407
1081,-0.019652,-0.030183,-0.175191
1082,-0.019652,-0.01211,0.096007
1083,-0.019652,0.04211,0.059847
1084,0.073044,0.114404,0.150246
1085,0.035965,0.096331,0.150246
1086,0.035965,0.005964,0.005607
1087,-0.038191,0.005964,0.023687
1088,-0.001113,0.078257,0.385284
1089,0.035965,0.078257,0.403364
1090,0.017426,0.060184,0.096007
1091,-0.038191,-0.030183,-0.33791
1092,-0.001113,-0.048257,-0.554869
1093,0.017426,-0.06633,-0.42831
1094,-0.038191,-0.030183,0.276805
1095,-0.038191,0.005964,0.403364
1096,-0.038191,-0.01211,0.204486
1097,-0.001113,-0.01211,0.096007
1098,-0.019652,0.005964,0.041767
1099,-0.001113,0.005964,-0.012473
1100,0.017426,0.005964,-0.229431
1101,-0.001113,-0.06633,-0.41023
1102,-0.038191,-0.048257,0.023687
1103,-0.038191,-0.048257,0.367205
1104,-0.019652,0.04211,0.349125
1105,0.035965,0.04211,-0.066712
1106,-0.001113,0.024037,-0.35599
1107,-0.038191,-0.048257,-0.30175
1108,-0.019652,-0.048257,0.077927
1109,-0.019652,0.024037,0.186406
1110,0.017426,0.060184,0.132166
1111,-0.001113,0.04211,0.023687
1112,-0.001113,0.024037,-0.175191
1113,0.035965,0.04211,0.023687
1114,0.035965,0.04211,0.005607
1115,-0.019652,0.024037,0.331045
1116,-0.038191,-0.030183,0.240646
1117,-0.038191,-0.01211,-0.030552
1118,0.035965,0.024037,0.150246
1119,0.017426,0.005964,0.059847
1120,-0.038191,-0.030183,-0.120952
1121,-0.038191,-0.048257,-0.229431
1122,0.017426,0.024037,0.005607
1123,-0.001113,0.005964,0.023687
1124,-0.019652,-0.048257,-0.030552
1125,-0.001113,-0.01211,-0.102872
1126,-0.038191,-0.030183,-0.084792
1127,-0.05673,-0.030183,-0.048632
1128,-0.001113,-0.01211,-0.175191
1129,-0.001113,0.024037,-0.102872
1130,-0.038191,0.005964,0.077927
1131,0.017426,-0.01211,0.023687
1132,-0.019652,-0.01211,-0.048632
1133,0.017426,-0.01211,-0.283671
1134,-0.001113,-0.048257,-0.193271
1135,-0.038191,-0.06633,0.041767
1136,0.017426,0.078257,0.457604
1137,-0.001113,0.04211,0.276805
1138,-0.038191,-0.030183,-0.211351
1139,-0.038191,-0.102477,-0.518709
1140,-0.019652,0.005964,-0.012473
1141,-0.019652,-0.01211,0.077927
1142,-0.038191,-0.030183,-0.084792
1143,-0.07527,-0.084403,-0.33791
1144,-0.019652,-0.030183,-0.048632
1145,0.017426,0.060184,0.331045
1146,-0.001113,0.04211,0.367205
1147,0.035965,0.078257,0.312965
1148,0.035965,0.132477,0.385284
1149,0.017426,0.096331,0.331045
1150,-0.001113,0.04211,0.258725
1151,-0.038191,-0.01211,0.096007
1152,-0.038191,-0.01211,-0.048632
1153,-0.019652,0.024037,-0.193271
1154,-0.001113,0.024037,-0.139032
1155,-0.038191,-0.030183,-0.175191
1156,-0.05673,-0.102477,-0.31983
1157,0.017426,0.005964,0.114086
1158,0.110122,0.060184,0.331045
1159,0.035965,0.005964,0.023687
1160,-0.07527,-0.102477,-0.37407
1161,-0.05673,-0.084403,-0.500629
1162,0.017426,-0.01211,-0.157112
1163,0.017426,0.024037,0.059847
1164,0.017426,-0.030183,0.059847
1165,-0.093809,-0.084403,-0.265591
1166,-0.05673,-0.102477,-0.464469
1167,-0.019652,-0.030183,-0.30175
1168,0.017426,0.024037,0.276805
1169,0.017426,0.078257,0.421444
1170,0.091583,0.078257,0.403364
1171,0.035965,0.078257,0.132166
1172,-0.001113,0.060184,-0.066712
1173,0.035965,0.096331,0.132166
1174,0.035965,0.078257,0.349125
1175,-0.019652,0.04211,0.312965
1176,-0.019652,0.005964,0.240646
1177,0.017426,0.005964,0.005607
1178,0.035965,0.005964,-0.157112
1179,-0.019652,-0.048257,-0.30175
1180,-0.038191,-0.030183,-0.247511
1181,-0.038191,-0.048257,-0.084792
1182,-0.05673,-0.06633,-0.012473
1183,-0.019652,-0.030183,0.168326
1184,0.017426,0.005964,0.240646
1185,0.035965,0.078257,0.222566
1186,0.054504,0.060184,-0.048632
1187,0.035965,0.078257,0.059847
1188,-0.038191,-0.01211,0.132166
1189,-0.05673,-0.030183,-0.048632
1190,-0.019652,-0.048257,-0.084792
1191,-0.001113,-0.030183,-0.102872
1192,-0.001113,-0.048257,-0.247511
1193,-0.038191,-0.084403,-0.39215
1194,-0.05673,-0.084403,-0.30175
1195,-0.001113,0.005964,0.258725
1196,0.073044,0.132477,0.638403
1197,0.054504,0.078257,0.331045
1198,-0.038191,0.024037,0.059847
1199,-0.038191,-0.084403,-0.175191
1200,-0.05673,-0.084403,-0.211351
1201,-0.038191,-0.048257,-0.229431
1202,-0.001113,-0.030183,-0.283671
1203,0.017426,0.005964,-0.084792
1204,-0.001113,0.005964,-0.139032
1205,-0.019652,0.005964,-0.084792
1206,0.054504,0.114404,0.331045
1207,0.054504,0.078257,0.493764
1208,0.017426,0.04211,0.457604
1209,-0.038191,0.005964,-0.012473
1210,-0.038191,-0.048257,-0.265591
1211,-0.05673,-0.06633,-0.247511
1212,-0.038191,-0.01211,-0.175191
1213,-0.019652,-0.030183,-0.175191
1214,-0.019652,-0.048257,-0.139032
1215,-0.001113,-0.01211,-0.102872
1216,-0.001113,-0.01211,-0.048632
1217,0.035965,0.060184,-0.084792
1218,0.035965,0.078257,-0.012473
1219,0.054504,0.04211,0.041767
1220,-0.019652,-0.048257,-0.139032
1221,-0.019652,-0.030183,0.150246
1222,-0.019652,0.04211,0.367205
1223,0.017426,0.024037,0.276805
1224,0.054504,0.078257,0.294885
1225,0.073044,0.114404,0.222566
1226,0.035965,0.078257,0.041767
1227,0.017426,0.005964,0.005607
1228,-0.05673,-0.06633,-0.120952
1229,-0.07527,-0.06633,-0.084792
1230,-0.07527,-0.030183,-0.012473
1231,-0.038191,-0.06633,-0.048632
1232,-0.05673,-0.06633,-0.175191
1233,-0.001113,-0.048257,-0.30175
1234,-0.001113,0.024037,-0.247511
1235,-0.038191,-0.01211,-0.030552
1236,0.017426,0.005964,0.132166
1237,0.073044,0.060184,0.168326
1238,-0.001113,0.024037,0.041767
1239,-0.001113,-0.030183,-0.066712
1240,-0.05673,-0.030183,0.023687
1241,-0.001113,0.005964,0.077927
1242,0.054504,0.060184,-0.048632
1243,0.017426,-0.030183,-0.30175
1244,-0.05673,-0.048257,0.186406
1245,-0.05673,0.005964,0.403364
1246,-0.019652,0.005964,0.240646
1247,-0.001113,0.04211,0.150246
1248,-0.05673,0.005964,-0.102872
1249,-0.038191,-0.030183,-0.247511
1250,-0.019652,0.005964,-0.102872
1251,0.017426,0.005964,0.077927
1252,-0.001113,-0.01211,-0.120952
1253,0.017426,-0.01211,-0.120952
1254,-0.019652,-0.048257,-0.229431
1255,-0.019652,-0.030183,-0.066712
1256,0.035965,0.005964,0.059847
1257,0.054504,0.060184,0.222566
1258,0.035965,0.060184,0.186406
1259,0.035965,0.078257,0.096007
1260,-0.001113,0.005964,-0.247511
1261,-0.07527,-0.084403,-0.39215
1262,-0.05673,-0.01211,0.096007
1263,0.035965,0.096331,0.566083
1264,0.054504,0.132477,0.566083
1265,0.091583,0.132477,0.421444
1266,0.035965,0.005964,-0.157112
1267,-0.019652,-0.102477,-0.247511
1268,0.017426,0.005964,-0.030552
1269,0.073044,0.096331,0.114086
1270,-0.05673,-0.048257,-0.139032
1271,-0.130887,-0.156697,-0.39215
1272,-0.05673,-0.06633,-0.157112
1273,0.017426,0.005964,-0.175191
1274,-0.019652,0.005964,-0.030552
1275,-0.019652,0.024037,0.005607
1276,-0.05673,0.005964,0.096007
1277,-0.019652,-0.01211,0.023687
1278,0.017426,0.005964,0.041767
1279,-0.001113,0.005964,0.168326
1280,-0.001113,-0.01211,-0.030552
1281,-0.019652,-0.030183,-0.066712
1282,-0.019652,-0.030183,-0.048632
1283,-0.001113,-0.030183,-0.120952
1284,0.035965,-0.01211,-0.102872
1285,0.017426,0.005964,-0.012473
1286,0.054504,0.060184,0.475684
1287,0.035965,0.078257,0.367205
1288,0.035965,0.078257,0.222566
1289,-0.001113,0.060184,0.096007
1290,-0.038191,-0.06633,-0.31983
1291,-0.093809,-0.102477,-0.663348
1292,-0.07527,-0.102477,-0.518709
1293,-0.05673,-0.030183,-0.102872
1294,0.017426,0.005964,0.204486
1295,-0.001113,0.024037,0.385284
1296,-0.019652,0.04211,0.258725
1297,0.054504,0.096331,0.077927
1298,0.054504,0.078257,0.023687
1299,0.054504,0.024037,-0.193271
1300,0.017426,0.005964,-0.048632
1301,-0.038191,-0.048257,-0.048632
1302,-0.130887,-0.12055,-0.464469
1303,-0.093809,-0.06633,0.114086
1304,-0.038191,0.024037,0.312965
1305,0.017426,0.060184,0.132166
1306,0.054504,0.078257,0.059847
1307,0.054504,0.04211,0.041767
1308,0.017426,0.078257,0.222566
1309,0.073044,0.078257,0.168326
1310,-0.001113,0.04211,0.150246
1311,0.017426,0.005964,0.023687
1312,-0.001113,0.005964,0.041767
1313,-0.001113,-0.048257,-0.120952
1314,-0.019652,-0.084403,-0.193271
1315,-0.038191,-0.06633,-0.31983
1316,-0.019652,-0.048257,-0.030552
1317,-0.019652,-0.01211,0.204486
1318,0.017426,0.024037,0.186406
1319,0.073044,0.096331,0.150246
1320,0.128661,0.186697,0.258725
1321,0.091583,0.132477,0.204486
1322,-0.05673,-0.048257,-0.120952
1323,-0.130887,-0.156697,-0.35599
1324,-0.07527,-0.102477,-0.37407
1325,-0.019652,-0.084403,-0.247511
1326,-0.019652,-0.030183,-0.157112
1327,-0.019652,0.005964,-0.066712
1328,-0.019652,-0.01211,-0.139032
1329,-0.019652,-0.030183,-0.175191
1330,-0.001113,-0.01211,0.023687
1331,-0.001113,-0.01211,0.005607
1332,-0.019652,-0.030183,-0.030552
1333,-0.001113,0.04211,0.258725
1334,0.017426,0.060184,0.240646
1335,0.054504,0.078257,0.168326
1336,0.073044,0.114404,0.204486
1337,0.073044,0.096331,0.258725
1338,0.035965,0.005964,-0.084792
1339,-0.019652,-0.102477,-0.35599
1340,-0.093809,-0.084403,-0.41023
1341,-0.05673,-0.084403,-0.139032
1342,-0.019652,-0.030183,0.132166
1343,-0.001113,0.005964,0.204486
1344,0.017426,0.060184,0.096007
1345,0.017426,0.060184,0.023687
1346,-0.019652,0.04211,0.168326
1347,-0.001113,-0.01211,0.132166
1348,-0.038191,-0.06633,0.005607
1349,-0.019652,-0.01211,-0.102872
1350,0.017426,0.005964,-0.102872
1351,-0.019652,0.005964,-0.066712
1352,-0.019652,0.04211,0.059847
1353,0.017426,0.060184,0.204486
1354,0.035965,0.04211,0.150246
1355,-0.019652,-0.030183,-0.102872
1356,-0.019652,-0.030183,-0.102872
1357,0.035965,-0.01211,0.059847
1358,0.035965,0.005964,0.204486
1359,0.035965,0.060184,0.114086
1360,0.017426,0.024037,-0.120952
1361,-0.038191,-0.048257,-0.229431
1362,-0.038191,-0.048257,-0.102872
1363,-0.038191,-0.030183,0.041767
1364,-0.038191,0.005964,0.077927
1365,-0.001113,0.005964,0.041767
1366,-0.001113,0.024037,0.005607
1367,0.017426,0.04211,0.041767
1368,-0.001113,0.024037,0.041767
1369,0.017426,0.005964,0.023687
1370,-0.038191,-0.01211,-0.120952
1371,-0.001113,-0.030183,-0.084792
1372,-0.038191,-0.030183,-0.048632
1373,-0.001113,-0.01211,0.005607
1374,0.017426,0.005964,0.005607
1375,-0.001113,0.005964,-0.084792
1376,-0.038191,-0.030183,-0.102872
1377,-0.038191,-0.048257,-0.066712
1378,-0.001113,0.024037,0.240646
1379,0.035965,0.060184,0.276805
1380,0.017426,0.04211,0.168326
1381,0.017426,0.04211,0.023687
1382,-0.038191,-0.030183,-0.193271
1383,-0.05673,-0.084403,-0.42831
1384,-0.019652,-0.048257,-0.229431
1385,-0.019652,0.005964,0.041767
1386,-0.001113,0.04211,0.186406
1387,0.017426,0.060184,0.222566
1388,-0.001113,0.024037,0.096007
1389,0.017426,0.005964,0.041767
1390,0.017426,0.005964,0.023687
1391,0.091583,0.005964,0.096007
1392,-0.019652,-0.01211,-0.030552
1393,-0.038191,-0.030183,-0.084792
1394,0.017426,-0.01211,-0.120952
1395,0.017426,0.024037,0.005607
1396,-0.001113,0.024037,0.041767
1397,-0.019652,-0.030183,-0.012473
1398,-0.038191,-0.01211,-0.030552
1399,-0.038191,-0.030183,-0.193271
1400,-0.019652,-0.01211,-0.211351
1401,-0.019652,-0.048257,-0.139032
1402,0.035965,0.024037,0.168326
1403,0.017426,0.04211,0.276805
1404,-0.001113,0.005964,0.168326
1405,-0.038191,-0.048257,-0.102872
1406,-0.038191,-0.01211,-0.102872
1407,-0.019652,-0.048257,-0.139032
1408,-0.019652,0.024037,-0.012473
1409,0.091583,0.04211,0.204486
1410,-0.001113,0.04211,0.114086
1411,0.017426,0.04211,0.114086
1412,-0.001113,0.005964,0.023687
1413,-0.001113,0.024037,0.132166
1414,0.035965,0.04211,0.059847
1415,0.017426,0.005964,-0.030552
1416,0.017426,0.024037,0.005607
1417,0.017426,0.024037,0.168326
1418,0.017426,0.024037,0.132166
1419,-0.001113,-0.01211,-0.102872
1420,-0.038191,-0.06633,-0.229431
1421,-0.038191,-0.048257,-0.265591
1422,-0.019652,-0.030183,-0.139032
1423,-0.019652,-0.048257,-0.066712
1424,-0.001113,0.005964,0.096007
1425,-0.001113,0.04211,0.041767
1426,0.017426,0.060184,0.096007
1427,-0.019652,0.005964,0.023687
1428,-0.001113,0.005964,0.005607
1429,-0.001113,0.024037,0.041767
1430,-0.038191,0.005964,0.023687
1431,-0.001113,-0.01211,-0.084792
1432,-0.001113,-0.030183,-0.084792
1433,-0.038191,-0.01211,-0.030552
1434,-0.001113,-0.01211,-0.012473
1435,-0.019652,-0.01211,0.023687
1436,-0.019652,0.005964,0.041767
1437,-0.019652,-0.01211,0.041767
1438,-0.001113,-0.01211,-0.012473
1439,0.017426,0.024037,-0.012473
1440,-0.019652,-0.01211,0.041767
1441,-0.038191,-0.01211,0.041767
1442,-0.001113,0.005964,-0.030552
1443,-0.001113,-0.01211,-0.012473
1444,-0.019652,0.005964,-0.048632
1445,-0.001113,-0.01211,-0.048632
1446,-0.001113,0.024037,0.005607
1447,-0.019652,0.005964,-0.048632
1448,-0.019652,-0.01211,-0.048632
1449,-0.001113,-0.01211,-0.048632
1450,-0.019652,0.024037,0.005607
1451,0.017426,0.04211,0.150246
1452,0.017426,0.024037,0.077927
1453,0.017426,0.005964,0.041767
1454,-0.001113,-0.01211,-0.012473
1455,-0.019652,-0.030183,-0.048632
1456,0.017426,0.005964,-0.030552
1457,0.017426,-0.01211,0.059847
1458,-0.001113,0.005964,0.059847
1459,-0.001113,0.04211,0.186406
1460,0.035965,0.024037,0.114086
1461,0.017426,0.024037,0.023687
1462,-0.019652,0.005964,-0.030552
1463,-0.019652,-0.01211,-0.084792
1464,-0.001113,-0.01211,-0.084792
1465,-0.019652,-0.01211,-0.048632
1466,-0.001113,-0.01211,-0.012473
1467,-0.001113,0.005964,0.005607
1468,-0.001113,0.005964,0.023687
1469,0.017426,0.005964,0.059847
1470,-0.001113,0.005964,0.005607
1471,-0.019652,-0.01211,-0.030552
1472,0.017426,0.005964,-0.030552
1473,-0.001113,0.005964,0.041767
1474,-0.001113,0.005964,0.005607
1475,-0.001113,0.005964,0.041767
1476,-0.019652,0.005964,0.023687
1477,-0.019652,0.005964,-0.030552
1478,-0.019652,-0.01211,-0.030552
1479,0.017426,-0.01211,-0.030552
1480,-0.001113,0.005964,-0.012473
1481,0.017426,-0.01211,-0.012473
1482,-0.001113,-0.01211,-0.048632
1483,-0.001113,0.005964,0.005607
1484,-0.019652,0.005964,-0.030552
1485,-0.001113,0.005964,-0.030552
1486,0.017426,0.005964,-0.012473
1487,-0.038191,-0.01211,0.041767
1488,-0.019652,-0.01211,0.041767
1489,-0.001113,0.005964,0.059847
1490,0.017426,0.024037,0.059847
1491,0.017426,0.005964,0.077927
1492,-0.001113,0.024037,0.096007
1493,-0.001113,0.024037,0.059847
1494,-0.001113,0.005964,0.005607
1495,0.017426,0.005964,0.005607
1496,0.017426,0.024037,-0.012473
1497,0.017426,0.024037,0.005607
1498,-0.001113,0.005964,0.023687
1499,0.017426,0.005964,0.023687
1500,-0.001113,-0.01211,0.041767
1501,-0.001113,0.005964,0.023687
1502,-0.001113,0.005964,0.041767
1503,-0.001113,0.005964,0.005607
1504,-0.001113,0.005964,0.023687
1505,-0.001113,0.005964,0.023687
1506,-0.001113,0.005964,0.005607
1507,-0.001113,0.005964,-0.030552
1508,-0.019652,-0.01211,-0.030552
1509,0.017426,0.005964,-0.012473
1510,-0.001113,-0.01211,-0.030552
1511,0.017426,0.005964,-0.012473
1512,0.017426,0.005964,-0.012473
1513,-0.001113,0.005964,0.005607
1514,-0.001113,0.005964,0.023687
1515,0.017426,0.005964,0.005607
1516,-0.001113,0.005964,0.023687
1517,-0.001113,0.005964,0.005607
1518,0.017426,-0.01211,0.005607
1519,0.017426,0.005964,0.005607
1520,0.035965,0.005964,0.023687
1521,0.017426,0.024037,0.041767
1522,0.017426,0.024037,0.059847
1523,0.017426,0.024037,0.041767
1524,-0.019652,0.005964,-0.012473
1525,-0.001113,-0.01211,0.005607
1526,0.017426,-0.030183,0.005607
1527,0.017426,0.04211,0.005607
1528,-0.001113,0.005964,0.023687
1529,-0.001113,0.005964,0.023687
1530,-0.019652,0.024037,0.023687
1531,-0.019652,0.005964,0.023687
1532,-0.038191,0.005964,0.023687
1533,-0.019652,0.005964,0.023687
1534,-0.019652,0.024037,0.005607
1535,-0.019652,0.005964,0.005607
1536,-0.019652,0.024037,0.023687
1537,-0.019652,0.024037,0.023687
1538,-0.019652,0.024037,0.023687
1539,-0.001113,0.005964,0.005607
1540,-0.001113,0.005964,-0.012473
1541,0.017426,0.005964,-0.012473
1542,-0.001113,0.005964,-0.012473
1543,-0.001113,0.005964,-0.048632
1544,-0.001113,0.024037,-0.030552
1545,-0.019652,0.005964,-0.030552
1546,-0.001113,0.005964,-0.012473
1547,-0.019652,-0.01211,0.023687
1548,-0.001113,0.005964,0.023687
1549,-0.001113,-0.01211,0.005607
1550,-0.001113,0.005964,0.005607
1551,-0.001113,0.005964,0.023687
1552,-0.001113,-0.01211,0.041767
1553,0.017426,0.005964,0.023687
1554,-0.001113,0.005964,-0.012473
1555,-0.001113,0.024037,0.005607
1556,0.017426,0.005964,0.005607
1557,-0.001113,0.005964,0.059847
1558,-0.001113,0.005964,0.041767
1559,-0.019652,0.005964,0.023687
1560,-0.001113,-0.01211,0.023687
1561,0.017426,0.024037,0.005607
1562,-0.019652,0.024037,0.005607
1563,-0.001113,-0.01211,0.023687
1564,-0.001113,-0.01211,0.041767
1565,0.017426,-0.01211,0.005607
1566,-0.001113,0.005964,0.005607
1567,0.017426,0.005964,0.005607
1568,-0.001113,0.005964,0.023687
1569,-0.038191,0.005964,0.005607
1570,-0.019652,0.005964,-0.012473
1571,-0.001113,0.005964,0.005607
1572,-0.019652,0.005964,-0.012473
1573,-0.001113,0.005964,-0.012473
1574,-0.001113,0.005964,-0.012473
1575,-0.001113,-0.01211,-0.048632
1576,-0.001113,-0.01211,-0.012473
1577,-0.019652,0.005964,-0.012473
1578,-0.001113,0.005964,0.005607
1579,-0.001113,0.005964,0.005607
1580,0.017426,0.005964,0.023687
1581,-0.001113,0.024037,0.023687
1582,-0.001113,0.005964,0.023687
1583,-0.001113,0.024037,0.023687
1584,-0.001113,0.005964,0.023687
1585,-0.019652,0.005964,0.005607
1586,0.017426,0.005964,0.023687
1587,-0.001113,-0.030183,0.023687
1588,0.017426,0.005964,-0.012473
1589,-0.038191,0.005964,-0.012473
1590,-0.019652,0.005964,-0.012473
1591,-0.019652,0.005964,-0.030552
1592,-0.001113,-0.01211,-0.030552
1593,-0.001113,0.005964,0.005607
1594,-0.019652,0.005964,0.023687
1595,-0.001113,0.024037,0.023687
1596,-0.001113,0.005964,0.023687
1597,-0.001113,0.024037,0.023687
1598,-0.001113,0.005964,0.005607
1599,-0.001113,-0.01211,0.005607
1600,-0.019652,0.024037,-0.012473
1601,-0.001113,0.005964,0.005607
1602,-0.019652,0.005964,-0.012473
1603,-0.019652,0.005964,-0.030552
1604,-0.019652,0.005964,-0.012473
1605,-0.019652,0.024037,-0.030552
1606,-0.019652,0.005964,-0.030552
1607,-0.019652,0.024037,-0.030552
1608,0.017426,0.005964,0.005607
1609,-0.001113,0.005964,0.005607
1610,-0.019652,0.005964,0.005607
1611,-0.019652,0.005964,0.005607
1612,-0.05673,0.005964,0.023687
1613,-0.019652,0.005964,0.005607
1614,0.017426,0.024037,0.023687
1615,0.035965,0.005964,0.023687
1616,0.017426,0.005964,0.023687
1617,0.017426,0.005964,0.023687
1618,-0.001113,0.005964,0.023687
1619,-0.001113,0.04211,0.023687
1620,-0.001113,0.005964,0.005607
1621,-0.001113,0.005964,-0.012473
1622,-0.001113,0.005964,-0.012473
1623,0.017426,0.005964,-0.012473
1624,0.035965,0.024037,-0.012473
1625,0.035965,0.024037,-0.012473
1626,0.035965,0.005964,0.041767
1627,0.035965,0.024037,0.059847
1628,-0.001113,0.005964,0.005607
1629,-0.038191,-0.01211,-0.012473
1630,-0.019652,-0.01211,-0.012473
1631,-0.019652,0.005964,0.005607
1632,-0.07527,-0.01211,0.005607
1633,-0.019652,0.005964,-0.012473
1634,-0.001113,0.024037,-0.012473
1635,-0.019652,0.024037,-0.012473
1636,-0.001113,0.024037,-0.012473
1637,-0.001113,0.024037,-0.030552
1638,-0.019652,-0.01211,-0.012473
1639,-0.019652,0.024037,0.005607
1640,-0.019652,0.005964,0.005607
1641,-0.019652,-0.01211,0.005607
1642,-0.038191,0.005964,0.005607
1643,-0.001113,0.005964,0.023687
1644,-0.001113,0.024037,0.023687
1645,-0.019652,0.005964,0.023687
1646,-0.001113,0.005964,0.041767
1647,-0.001113,0.04211,0.041767
1648,-0.001113,0.005964,0.005607
1649,-0.001113,0.005964,-0.012473
1650,-0.001113,0.024037,-0.012473
1651,-0.019652,0.005964,0.005607
1652,-0.001113,0.005964,0.005607
1653,-0.019652,0.024037,0.005607
1654,-0.001113,0.005964,0.005607
1655,-0.001113,0.005964,-0.012473
1656,-0.001113,0.005964,-0.030552
1657,-0.019652,-0.01211,-0.048632
1658,-0.019652,0.024037,-0.030552
1659,-0.001113,0.005964,0.005607
1660,-0.019652,0.005964,0.005607
1661,0.017426,0.024037,-0.012473
1662,-0.019652,0.005964,0.005607
1663,-0.001113,-0.01211,0.005607
1664,-0.019652,0.005964,0.005607
1665,-0.019652,-0.01211,0.005607
1666,-0.019652,0.005964,-0.012473
1667,-0.001113,0.024037,-0.030552
1668,0.017426,0.024037,-0.030552
1669,0.017426,0.005964,0.005607
1670,-0.019652,0.005964,0.005607
1671,-0.001113,0.005964,0.005607
1672,-0.019652,0.005964,-0.012473
1673,-0.001113,0.005964,-0.012473
1674,-0.001113,0.005964,0.005607
1675,-0.001113,0.005964,0.005607
1676,-0.001113,0.005964,0.005607
1677,0.017426,0.005964,0.023687
1678,0.035965,0.005964,0.023687
1679,0.017426,0.005964,0.005607
1680,-0.001113,0.005964,0.005607
1681,-0.001113,0.024037,-0.012473
1682,-0.038191,0.005964,0.005607
1683,-0.001113,-0.01211,-0.012473
1684,-0.038191,-0.01211,0.005607
1685,-0.05673,0.024037,-0.012473
1686,-0.038191,0.024037,-0.030552
1687,-0.001113,0.024037,-0.030552
1688,-0.001113,0.005964,-0.030552
1689,-0.001113,-0.01211,-0.030552
1690,-0.019652,-0.01211,-0.012473
1691,-0.019652,-0.01211,-0.012473
1692,-0.001113,-0.01211,0.005607
1693,0.017426,0.005964,-0.012473
1694,-0.019652,0.024037,0.005607
1695,-0.019652,0.024037,0.005607
1696,-0.019652,0.005964,-0.030552
1697,0.017426,0.005964,-0.012473
1698,-0.019652,0.024037,-0.012473
1699,-0.001113,0.005964,-0.030552
1700,-0.001113,0.005964,-0.012473
1701,-0.001113,0.005964,0.005607
1702,-0.038191,0.024037,0.023687
1703,-0.001113,0.005964,-0.012473
1704,-0.001113,0.024037,0.005607
1705,-0.019652,-0.01211,0.005607
1706,-0.001113,0.005964,0.023687
1707,-0.001113,0.005964,0.005607
1708,-0.001113,0.005964,0.023687
1709,-0.001113,0.024037,0.023687
1710,-0.019652,0.005964,0.005607
1711,-0.038191,-0.01211,0.023687
1712,-0.038191,0.005964,-0.012473
1713,0.017426,0.005964,-0.012473
1714,-0.001113,0.005964,-0.012473
1715,0.017426,0.005964,-0.048632
1716,-0.019652,-0.01211,-0.012473
1717,-0.001113,0.005964,-0.030552
1718,-0.019652,0.005964,-0.012473
1719,-0.038191,0.024037,0.005607
1720,-0.001113,0.005964,0.005607
1721,-0.038191,0.005964,-0.012473
1722,-0.019652,0.005964,0.005607
1723,-0.038191,-0.01211,0.005607
1724,0.017426,0.005964,-0.012473
1725,0.035965,0.005964,-0.012473
1726,0.035965,0.005964,-0.012473
1727,-0.001113,0.005964,0.005607
1728,0.017426,0.005964,-0.012473
1729,-0.001113,-0.01211,-0.012473
1730,-0.001113,0.005964,-0.012473
1731,-0.001113,0.005964,-0.030552
1732,-0.019652,0.005964,-0.030552
1733,0.035965,-0.01211,-0.012473
1734,0.017426,0.024037,0.005607
1735,-0.001113,0.024037,0.005607
1736,-0.001113,0.005964,0.005607
1737,-0.019652,0.005964,0.005607
1738,0.017426,0.005964,0.005607
1739,-0.001113,0.005964,0.023687
1740,-0.019652,-0.01211,0.023687
1741,-0.001113,0.005964,0.023687
1742,-0.019652,0.024037,0.005607
1743,-0.001113,-0.01211,0.005607
1744,-0.019652,0.005964,0.005607
1745,-0.001113,0.005964,0.005607
1746,-0.019652,0.005964,-0.030552
1747,-0.001113,0.005964,-0.012473
1748,-0.019652,0.005964,-0.012473
1749,-0.001113,0.005964,-0.012473
1750,-0.019652,0.005964,-0.030552
1751,-0.019652,0.005964,-0.030552
1752,-0.001113,0.024037,-0.012473
1753,-0.001113,0.005964,0.005607
1754,-0.019652,0.005964,0.005607
1755,-0.019652,-0.01211,0.005607
1756,-0.019652,0.005964,0.005607
1757,-0.019652,0.005964,0.005607
1758,-0.001113,-0.01211,-0.012473
1759,-0.019652,-0.01211,-0.030552
1760,-0.001113,0.04211,-0.012473
1761,-0.001113,0.005964,-0.030552
1762,-0.001113,0.005964,-0.030552
1763,-0.019652,-0.01211,-0.030552
1764,-0.001113,0.005964,-0.012473
1765,-0.001113,0.005964,0.005607
1766,-0.001113,0.024037,0.005607
1767,-0.001113,0.024037,0.023687
1768,-0.019652,0.024037,0.005607
1769,-0.001113,0.005964,0.023687
1770,-0.019652,-0.01211,0.023687
1771,-0.001113,0.005964,0.023687
1772,-0.001113,0.005964,0.005607
1773,-0.019652,-0.01211,0.005607
1774,-0.001113,0.024037,-0.030552
1775,-0.019652,0.005964,-0.012473
1776,-0.001113,0.024037,-0.012473
1777,-0.001113,0.005964,-0.012473
1778,-0.019652,0.005964,-0.012473
1779,-0.001113,0.005964,-0.012473
1780,-0.001113,0.005964,-0.012473
1781,-0.001113,-0.01211,-0.030552
1782,-0.019652,-0.01211,0.005607
1783,-0.038191,0.005964,-0.012473
1784,-0.019652,0.005964,0.005607
1785,-0.038191,0.024037,0.005607
1786,-0.019652,0.005964,-0.012473
1787,-0.001113,0.005964,0.023687
1788,0.035965,0.005964,0.005607
1789,-0.001113,0.005964,0.005607
1790,-0.001113,0.005964,0.005607
1791,-0.001113,0.024037,-0.012473
1792,-0.001113,0.024037,-0.030552
1793,-0.001113,-0.01211,-0.030552
1794,-0.019652,0.005964,-0.012473
1795,-0.001113,0.005964,0.005607
1796,-0.001113,-0.01211,-0.012473
1797,0.017426,-0.01211,-0.012473
1798,0.017426,0.005964,0.005607
1799,0.017426,0.005964,0.023687
1800,-0.019652,0.024037,0.005607
1801,-0.001113,0.005964,0.023687
1802,-0.019652,0.005964,0.041767
1803,-0.001113,-0.01211,0.041767
1804,-0.001113,0.005964,0.023687
1805,-0.001113,0.005964,0.005607
1806,-0.019652,0.005964,0.005607
1807,-0.001113,0.005964,0.005607
1808,-0.001113,-0.01211,0.005607
1809,-0.001113,0.005964,-0.012473
1810,-0.001113,0.005964,-0.030552
1811,-0.019652,-0.01211,-0.030552
1812,-0.019652,0.005964,-0.012473
1813,-0.019652,0.005964,-0.012473
1814,-0.019652,0.005964,-0.012473
1815,0.017426,0.005964,0.005607
1816,-0.019652,-0.01211,0.005607
1817,-0.019652,0.024037,0.005607
1818,-0.001113,-0.030183,0.023687
1819,-0.001113,0.005964,0.023687
1820,-0.019652,0.005964,0.023687
1821,-0.019652,0.005964,0.023687
1822,-0.038191,0.005964,0.005607
1823,-0.001113,0.005964,0.023687
1824,-0.001113,0.005964,0.005607
1825,0.017426,0.005964,-0.030552
1826,-0.019652,-0.030183,-0.012473
1827,-0.019652,0.024037,0.005607
1828,-0.001113,0.005964,0.005607
1829,-0.001113,0.005964,0.023687
1830,-0.001113,0.005964,0.005607
1831,-0.001113,0.005964,0.005607
1832,-0.001113,0.005964,0.005607
1833,0.017426,0.024037,0.023687
1834,-0.001113,0.005964,0.023687
1835,-0.019652,0.005964,0.005607
1836,-0.019652,0.005964,0.005607
1837,-0.001113,-0.01211,0.077927
1838,-0.019652,0.005964,0.005607
1839,-0.019652,0.024037,0.005607
1840,-0.05673,-0.01211,-0.012473
1841,-0.001113,0.024037,-0.012473
1842,-0.001113,0.005964,0.005607
1843,-0.001113,0.005964,-0.030552
1844,-0.019652,0.005964,-0.030552
1845,-0.001113,0.005964,-0.012473
1846,-0.001113,0.005964,0.005607
1847,-0.019652,0.005964,0.005607
1848,-0.001113,-0.01211,0.005607
1849,-0.001113,-0.030183,0.023687
1850,-0.019652,0.005964,0.023687
1851,-0.001113,0.005964,0.023687
1852,-0.019652,0.005964,0.023687
1853,-0.001113,0.005964,0.023687
1854,0.035965,0.005964,0.023687
1855,-0.019652,0.04211,0.005607
1856,-0.001113,0.005964,0.005607
1857,-0.001113,0.005964,-0.012473
1858,-0.038191,-0.01211,-0.012473
1859,-0.019652,0.005964,0.005607
1860,-0.001113,0.005964,0.005607
1861,-0.001113,0.005964,-0.012473
1862,-0.001113,0.005964,0.005607
1863,-0.001113,-0.01211,0.005607
1864,-0.019652,0.005964,0.023687
1865,0.017426,0.005964,0.041767
1866,0.017426,0.005964,0.023687
1867,-0.001113,0.005964,0.023687
1868,-0.001113,-0.01211,0.005607
1869,-0.001113,0.024037,0.005607
1870,-0.019652,-0.01211,0.005607
1871,-0.001113,0.005964,0.005607
1872,0.017426,0.005964,-0.012473
1873,-0.001113,0.024037,-0.012473
1874,-0.019652,-0.01211,-0.030552
1875,-0.001113,0.005964,-0.030552
1876,-0.001113,-0.01211,-0.012473
1877,-0.001113,0.005964,0.005607
1878,-0.001113,-0.01211,0.005607
1879,-0.001113,0.024037,0.023687
1880,-0.019652,-0.01211,-0.012473
1881,-0.019652,-0.01211,0.005607
1882,-0.019652,-0.01211,0.005607
1883,-0.019652,-0.030183,0.005607
1884,-0.019652,-0.01211,0.023687
1885,-0.019652,-0.01211,0.041767
1886,-0.019652,0.005964,0.023687
1887,-0.001113,0.024037,0.023687
1888,-0.019652,0.005964,0.023687
1889,-0.019652,0.005964,0.005607
1890,-0.001113,0.005964,-0.012473
1891,-0.001113,-0.01211,-0.012473
1892,-0.001113,-0.01211,-0.012473
1893,-0.038191,0.005964,0.023687
1894,-0.019652,0.005964,0.023687
1895,-0.001113,0.024037,0.023687
1896,-0.001113,0.024037,0.023687
1897,0.017426,0.024037,0.023687
1898,-0.038191,0.005964,0.023687
1899,-0.001113,0.005964,0.005607
1900,0.017426,0.005964,0.005607
1901,-0.001113,0.005964,0.005607
1902,-0.038191,-0.01211,0.005607
1903,-0.001113,0.005964,-0.012473
1904,-0.001113,0.005964,-0.030552
1905,-0.019652,-0.01211,-0.012473
1906,-0.001113,0.005964,-0.030552
1907,0.017426,0.005964,0.005607
1908,-0.019652,0.005964,-0.012473
1909,-0.001113,0.005964,-0.012473
1910,-0.001113,0.005964,0.023687
1911,-0.019652,0.005964,0.005607
1912,-0.038191,0.005964,0.005607
1913,-0.001113,0.005964,0.005607
1914,-0.019652,0.005964,0.023687
1915,0.017426,-0.01211,0.023687
1916,-0.001113,0.024037,0.041767
1917,-0.019652,-0.01211,0.023687
1918,-0.001113,-0.01211,0.005607
1919,-0.001113,-0.01211,0.005607
1920,-0.001113,0.005964,0.005607
1921,-0.019652,0.005964,-0.012473
1922,-0.019652,0.005964,-0.012473
1923,-0.019652,-0.01211,0.005607
1924,-0.019652,0.005964,0.023687
1925,-0.001113,0.005964,0.023687
1926,-0.001113,0.005964,0.005607
1927,0.035965,0.024037,0.005607
1928,-0.019652,-0.01211,0.005607
1929,0.017426,0.024037,0.041767
1930,0.017426,0.005964,0.023687
1931,-0.001113,0.005964,0.023687
1932,-0.001113,0.005964,0.023687
1933,-0.001113,-0.01211,0.005607
1934,-0.019652,0.005964,0.005607
1935,0.017426,0.005964,-0.012473
1936,-0.019652,0.005964,-0.030552
1937,-0.001113,0.005964,-0.012473
1938,-0.001113,0.005964,-0.012473
1939,0.017426,0.024037,-0.012473
1940,-0.001113,0.005964,0.005607
1941,0.017426,-0.01211,0.005607
1942,-0.019652,-0.01211,0.005607
1943,0.017426,0.005964,-0.012473
1944,-0.019652,0.005964,0.005607
1945,-0.001113,0.04211,-0.012473
1946,-0.019652,0.005964,0.023687
1947,-0.001113,0.005964,0.023687
1948,-0.019652,0.005964,0.041767
1949,-0.019652,-0.01211,0.023687
1950,-0.019652,0.005964,0.077927
1951,0.017426,-0.01211,0.005607
1952,-0.001113,0.005964,0.005607
1953,-0.001113,0.005964,-0.012473
1954,-0.038191,0.005964,-0.012473
1955,-0.001113,0.005964,-0.012473
1956,-0.019652,0.005964,-0.012473
1957,-0.019652,0.005964,0.023687
1958,-0.001113,0.005964,0.041767
1959,-0.019652,0.005964,0.041767
1960,-0.001113,-0.01211,0.023687
1961,-0.001113,0.024037,0.023687
1962,-0.001113,0.024037,0.005607
1963,-0.019652,0.024037,0.023687
1964,-0.001113,0.005964,0.005607
1965,0.017426,-0.01211,-0.012473
1966,-0.019652,-0.01211,-0.012473
1967,-0.019652,-0.01211,-0.012473
1968,-0.001113,0.024037,-0.030552
1969,-0.001113,0.005964,-0.030552
1970,-0.001113,0.005964,-0.030552
1971,-0.019652,-0.01211,-0.012473
1972,-0.019652,-0.01211,-0.012473
1973,0.017426,-0.01211,0.005607
1974,-0.019652,-0.01211,0.005607
1975,0.017426,0.005964,0.005607
1976,-0.001113,0.005964,0.005607
1977,0.017426,0.024037,0.005607
1978,-0.001113,0.005964,0.023687
1979,-0.001113,-0.01211,0.023687
1980,-0.019652,0.005964,0.023687
1981,-0.001113,0.005964,0.023687
1982,-0.038191,0.005964,0.023687
1983,0.017426,0.005964,0.005607
1984,0.017426,0.024037,-0.012473
1985,-0.019652,0.005964,0.005607
1986,-0.019652,0.005964,0.005607
1987,0.017426,0.005964,-0.012473
1988,-0.019652,0.005964,-0.030552
1989,-0.019652,0.005964,-0.048632
1990,-0.001113,0.005964,-0.048632
1991,0.017426,-0.01211,0.023687
1992,0.017426,0.024037,0.005607
1993,-0.019652,0.024037,0.023687
1994,-0.001113,0.005964,0.005607
1995,-0.001113,0.005964,0.005607
1996,-0.001113,0.005964,0.005607
1997,-0.019652,0.005964,-0.012473
1998,-0.001113,-0.01211,0.005607
1999,-0.001113,0.005964,-0.012473
2000,-0.019652,0.005964,-0.012473
2001,-0.001113,-0.01211,-0.012473
2002,-0.019652,0.005964,-0.012473
2003,-0.001113,-0.01211,0.023687
2004,-0.001113,0.005964,0.005607
2005,-0.019652,0.005964,-0.012473
2006,0.017426,0.005964,0.005607
2007,-0.019652,-0.01211,0.023687
2008,-0.001113,0.005964,0.023687
2009,-0.001113,0.005964,0.023687
2010,-0.001113,0.024037,0.005607
2011,-0.001113,-0.01211,0.041767
2012,0.017426,0.005964,0.041767
2013,0.017426,0.005964,0.023687
2014,-0.001113,0.005964,-0.012473
2015,-0.001113,-0.01211,-0.012473
2016,-0.001113,-0.01211,-0.012473
2017,-0.001113,0.005964,-0.030552
2018,-0.001113,0.005964,-0.012473
2019,0.017426,0.005964,-0.012473
2020,-0.001113,0.024037,-0.012473
2021,-0.019652,-0.01211,-0.030552
2022,-0.019652,0.005964,-0.012473
2023,-0.001113,-0.01211,-0.012473
2024,-0.001113,0.005964,0.005607
2025,-0.001113,0.005964,0.005607
2026,-0.001113,0.005964,0.005607
2027,-0.001113,0.005964,-0.012473
2028,-0.001113,-0.01211,-0.012473
2029,-0.019652,0.005964,-0.012473
2030,-0.001113,-0.030183,-0.012473
2031,-0.001113,0.005964,0.005607
2032,0.035965,0.005964,0.005607
2033,-0.001113,-0.01211,-0.012473
2034,-0.001113,0.005964,0.005607
2035,-0.019652,0.005964,0.023687
2036,0.017426,0.005964,0.005607
2037,-0.001113,0.005964,0.023687
2038,-0.019652,0.024037,0.023687
2039,-0.001113,-0.01211,0.023687
2040,-0.001113,0.005964,0.005607
2041,-0.001113,-0.01211,0.005607
2042,-0.001113,-0.01211,0.023687
2043,-0.019652,0.005964,0.005607
2044,-0.001113,0.005964,0.005607
2045,0.017426,0.005964,0.005607
2046,-0.001113,0.005964,0.005607
2047,-0.001113,0.024037,-0.012473
2048,-0.001113,0.005964,-0.012473
2049,-0.019652,0.005964,-0.012473
2050,-0.001113,0.005964,0.005607
2051,0.017426,0.024037,-0.012473
2052,-0.001113,0.005964,-0.012473
2053,-0.001113,0.005964,-0.012473
2054,-0.001113,0.024037,-0.012473
2055,-0.001113,0.005964,0.005607
2056,-0.001113,-0.01211,0.005607
2057,-0.001113,-0.01211,0.005607
2058,-0.019652,0.005964,0.023687
2059,-0.001113,-0.01211,-0.012473
2060,-0.001113,0.005964,-0.012473
2061,-0.001113,-0.01211,-0.030552
2062,0.017426,0.005964,-0.030552
2063,-0.001113,0.005964,-0.030552
2064,-0.001113,0.005964,-0.012473
2065,-0.019652,0.005964,0.005607
2066,-0.001113,0.005964,-0.012473
2067,-0.019652,0.024037,0.005607
2068,-0.019652,0.024037,0.005607
2069,-0.019652,0.005964,0.023687
2070,-0.001113,0.024037,0.023687
2071,0.017426,0.005964,0.023687
2072,0.035965,-0.01211,0.041767
2073,-0.019652,0.005964,0.023687
2074,-0.001113,-0.01211,0.005607
2075,-0.019652,-0.01211,-0.012473
2076,-0.001113,-0.01211,0.005607
2077,-0.001113,0.005964,0.005607
2078,-0.001113,0.005964,-0.012473
2079,-0.001113,0.005964,-0.012473
2080,-0.019652,-0.01211,-0.012473
2081,-0.019652,0.024037,-0.030552
2082,-0.001113,0.005964,-0.030552
2083,-0.019652,0.005964,-0.012473
2084,-0.001113,0.024037,-0.012473
2085,0.017426,0.005964,-0.012473
2086,-0.001113,0.005964,0.005607
2087,0.017426,0.005964,0.005607
2088,-0.019652,0.005964,0.023687
2089,-0.019652,0.005964,0.005607
2090,-0.001113,-0.01211,0.005607
2091,-0.001113,-0.01211,-0.012473
2092,-0.019652,0.005964,-0.012473
2093,-0.019652,0.005964,-0.030552
2094,-0.001113,0.005964,-0.012473
2095,-0.001113,0.024037,-0.030552
2096,-0.001113,0.024037,-0.012473
2097,-0.001113,0.024037,0.005607
2098,-0.019652,-0.01211,0.005607
2099,-0.001113,-0.01211,0.005607
2100,-0.001113,0.024037,0.005607
2101,-0.001113,0.024037,0.005607
2102,-0.001113,0.005964,0.005607
2103,-0.019652,-0.01211,0.023687
2104,-0.001113,0.005964,0.023687
2105,-0.001113,0.005964,0.023687
2106,-0.001113,0.005964,0.041767
2107,-0.001113,0.024037,0.041767
2108,0.017426,0.005964,0.005607
2109,-0.001113,0.005964,-0.012473
2110,0.017426,-0.01211,-0.012473
2111,-0.001113,-0.01211,-0.030552
2112,0.017426,-0.01211,-0.012473
2113,-0.001113,0.005964,0.005607
2114,0.017426,0.005964,-0.012473
2115,-0.001113,0.005964,-0.030552
2116,-0.001113,0.005964,-0.012473
2117,-0.001113,-0.01211,0.005607
2118,-0.019652,0.005964,0.005607
2119,-0.001113,0.005964,-0.012473
2120,0.017426,0.005964,0.005607
2121,0.017426,-0.01211,0.023687
2122,-0.001113,0.005964,0.023687
2123,-0.019652,0.005964,0.023687
2124,-0.038191,0.005964,-0.012473
2125,-0.019652,0.005964,-0.012473
2126,-0.001113,-0.01211,-0.030552
2127,0.017426,0.005964,-0.030552
2128,0.017426,0.005964,-0.012473
2129,-0.001113,-0.01211,0.005607
2130,-0.001113,-0.01211,0.005607
2131,-0.001113,0.005964,-0.012473
2132,-0.001113,0.024037,0.023687
2133,-0.001113,0.005964,0.023687
2134,-0.019652,-0.01211,0.005607
2135,-0.001113,0.005964,0.023687
2136,-0.001113,0.005964,0.023687
2137,-0.001113,0.005964,0.041767
2138,-0.001113,0.005964,0.005607
2139,-0.001113,0.005964,0.023687
2140,-0.001113,0.005964,0.005607
2141,-0.019652,0.005964,0.005607
2142,-0.001113,0.005964,-0.012473
2143,-0.001113,0.005964,-0.030552
2144,-0.019652,0.005964,-0.012473
2145,-0.001113,0.005964,-0.048632
2146,-0.019652,0.005964,-0.012473
2147,-0.001113,0.005964,-0.030552
2148,-0.019652,0.005964,0.005607
2149,-0.001113,0.005964,0.005607
2150,-0.001113,0.005964,0.005607
2151,-0.001113,0.005964,0.005607
2152,-0.019652,-0.01211,0.023687
2153,-0.038191,0.024037,0.005607
2154,-0.001113,0.024037,0.023687
2155,-0.001113,0.005964,0.023687
2156,-0.019652,-0.01211,0.059847
2157,0.035965,0.005964,-0.030552
2158,-0.019652,0.024037,-0.030552
2159,-0.001113,-0.01211,0.005607
2160,0.017426,-0.01211,0.005607
2161,-0.019652,0.005964,0.005607
2162,-0.019652,0.024037,0.005607
2163,0.017426,0.005964,0.005607
2164,0.017426,0.005964,0.005607
2165,-0.019652,0.005964,0.023687
2166,-0.001113,0.005964,0.023687
2167,-0.001113,0.005964,0.023687
2168,-0.001113,0.005964,0.005607
2169,-0.001113,0.005964,0.023687
2170,-0.019652,0.005964,0.005607
2171,-0.019652,0.005964,0.005607
2172,-0.001113,0.024037,-0.012473
2173,-0.019652,0.005964,-0.012473
2174,-0.019652,-0.01211,-0.012473
2175,-0.001113,-0.01211,-0.030552
2176,0.035965,-0.01211,-0.012473
2177,-0.019652,0.005964,-0.030552
2178,-0.038191,-0.01211,-0.030552
2179,-0.001113,0.005964,0.005607
2180,-0.001113,0.005964,0.005607
2181,-0.001113,0.005964,0.005607
2182,-0.001113,0.005964,0.023687
2183,-0.001113,-0.01211,0.023687
2184,0.017426,0.005964,0.023687
2185,-0.001113,0.005964,0.041767
2186,-0.019652,0.005964,0.023687
2187,-0.019652,0.005964,0.023687
2188,-0.001113,0.005964,0.023687
2189,-0.019652,0.005964,0.023687
2190,-0.038191,0.005964,-0.030552
2191,-0.019652,0.024037,0.005607
2192,-0.001113,0.005964,0.005607
2193,-0.001113,0.005964,0.005607
2194,-0.001113,0.005964,0.005607
2195,-0.001113,0.024037,0.023687
2196,-0.001113,0.005964,0.023687
2197,-0.001113,0.005964,0.023687
2198,-0.001113,0.024037,0.041767
2199,-0.001113,0.005964,0.023687
2200,-0.001113,0.005964,0.023687
2201,-0.001113,0.005964,0.023687
2202,0.017426,0.005964,0.023687
2203,-0.019652,-0.01211,0.023687
2204,-0.038191,0.005964,0.005607
2205,-0.038191,0.005964,0.005607
2206,-0.001113,0.005964,-0.030552
2207,-0.001113,0.005964,-0.012473
2208,0.017426,-0.01211,-0.030552
2209,-0.019652,0.005964,-0.030552
2210,-0.019652,-0.01211,-0.012473
2211,-0.019652,0.005964,-0.012473
2212,0.017426,-0.01211,0.005607
2213,0.017426,-0.01211,0.005607
2214,-0.001113,0.005964,0.023687
2215,-0.001113,0.005964,0.005607
2216,0.017426,0.005964,0.005607
2217,-0.019652,-0.01211,0.023687
2218,-0.001113,0.005964,0.041767
2219,-0.019652,-0.01211,0.023687
2220,-0.001113,0.005964,0.005607
2221,-0.001113,-0.01211,0.005607
2222,-0.019652,0.005964,-0.012473
2223,0.017426,0.005964,-0.012473
2224,-0.019652,-0.01211,0.005607
2225,0.017426,0.005964,0.005607
2226,0.017426,0.005964,0.023687
2227,0.017426,0.005964,0.005607
2228,0.017426,-0.01211,0.023687
2229,-0.001113,0.005964,0.023687
2230,-0.019652,-0.01211,0.023687
2231,-0.001113,0.024037,0.041767
2232,-0.019652,0.005964,0.005607
2233,0.017426,-0.01211,-0.012473
2234,-0.001113,-0.01211,0.005607
2235,-0.019652,0.005964,-0.012473
2236,0.017426,0.005964,-0.012473
2237,-0.001113,0.005964,-0.012473
2238,-0.019652,0.024037,0.005607
2239,0.017426,0.024037,0.005607
2240,-0.001113,0.024037,-0.030552
2241,-0.001113,-0.01211,-0.030552
2242,-0.001113,0.005964,0.005607
2243,0.017426,-0.01211,-0.012473
2244,-0.001113,0.005964,0.005607
2245,0.017426,0.005964,0.005607
2246,-0.001113,0.005964,0.005607
2247,-0.001113,-0.01211,0.005607
2248,-0.019652,0.005964,0.005607
2249,-0.001113,0.005964,0.023687
2250,-0.001113,0.024037,0.023687
2251,-0.001113,0.005964,0.005607
2252,-0.001113,0.024037,0.005607
2253,-0.019652,-0.01211,0.005607
2254,-0.001113,0.005964,-0.012473
2255,-0.019652,0.005964,-0.012473
2256,-0.019652,0.005964,0.005607
2257,-0.001113,0.005964,0.005607
2258,-0.019652,0.005964,0.005607
2259,-0.001113,0.005964,0.023687
2260,-0.001113,-0.01211,0.023687
2261,-0.001113,-0.01211,0.023687
2262,-0.001113,0.005964,0.023687
2263,-0.001113,0.005964,0.005607
2264,-0.019652,-0.01211,0.005607
2265,-0.001113,-0.01211,0.005607
2266,-0.001113,0.005964,0.005607
2267,-0.001113,-0.01211,0.005607
2268,0.017426,0.005964,0.005607
2269,-0.001113,0.024037,-0.012473
2270,-0.019652,0.024037,0.023687
2271,-0.001113,0.005964,-0.012473
2272,-0.001113,-0.01211,-0.012473
2273,-0.001113,-0.01211,0.005607
2274,-0.001113,-0.01211,0.005607
2275,-0.001113,0.005964,0.005607
2276,-0.001113,0.005964,0.005607
2277,-0.001113,0.005964,0.023687
2278,-0.019652,-0.01211,0.005607
2279,-0.001113,-0.01211,0.023687
2280,-0.019652,-0.01211,0.041767
2281,-0.019652,-0.01211,0.023687
2282,0.017426,0.005964,0.005607
2283,-0.001113,0.024037,0.023687
2284,0.017426,0.005964,0.005607
2285,-0.001113,0.005964,0.005607
2286,-0.038191,-0.01211,0.005607
2287,-0.019652,-0.01211,0.005607
2288,-0.001113,0.005964,-0.012473
2289,-0.019652,-0.01211,0.005607
2290,-0.001113,-0.048257,0.005607
2291,0.017426,0.005964,0.023687
2292,-0.019652,-0.01211,0.041767
2293,0.017426,0.005964,0.023687
2294,-0.001113,0.024037,0.023687
2295,0.017426,0.005964,-0.012473
2296,-0.001113,0.005964,0.005607
2297,-0.019652,0.005964,0.005607
2298,-0.019652,0.005964,-0.012473
2299,-0.001113,0.005964,-0.012473
2300,-0.019652,-0.01211,-0.012473
2301,-0.001113,0.005964,-0.012473
2302,-0.019652,0.005964,-0.012473
2303,0.017426,0.024037,-0.012473
2304,-0.05673,0.024037,-0.012473
2305,-0.001113,0.005964,-0.012473
2306,-0.001113,0.005964,0.005607
2307,0.017426,-0.01211,0.005607
2308,-0.019652,-0.01211,-0.012473
2309,0.017426,-0.01211,0.005607
2310,-0.001113,0.024037,0.005607
2311,-0.001113,0.024037,0.023687
2312,-0.019652,0.005964,0.023687
2313,-0.001113,0.005964,0.023687
2314,-0.001113,0.005964,0.005607
2315,-0.019652,0.024037,0.005607
2316,-0.019652,0.005964,0.023687
2317,0.017426,0.005964,0.005607
2318,-0.001113,-0.01211,-0.012473
2319,-0.019652,0.005964,0.005607
2320,-0.019652,0.024037,0.005607
2321,-0.001113,0.005964,-0.030552
2322,0.035965,0.005964,0.041767
2323,-0.038191,0.005964,0.041767
2324,-0.001113,0.005964,0.041767
2325,-0.001113,0.024037,0.005607
2326,-0.001113,-0.01211,0.005607
2327,-0.019652,0.005964,0.005607
2328,-0.001113,-0.01211,-0.012473
2329,-0.001113,0.005964,-0.012473
2330,-0.001113,0.005964,-0.012473
2331,-0.001113,0.005964,0.005607
2332,-0.001113,-0.030183,0.005607
2333,-0.001113,0.005964,-0.012473
2334,-0.019652,0.024037,-0.012473
2335,-0.001113,-0.01211,-0.012473
2336,-0.001113,0.005964,-0.012473
2337,-0.001113,0.005964,0.023687
2338,-0.001113,0.024037,0.005607
2339,-0.001113,0.005964,0.005607
2340,-0.038191,0.005964,0.005607
2341,-0.001113,0.005964,0.005607
2342,-0.019652,0.005964,0.023687
2343,-0.001113,-0.01211,0.041767
2344,-0.001113,0.024037,0.005607
2345,-0.001113,0.005964,0.005607
2346,-0.001113,0.005964,0.005607
2347,-0.019652,0.024037,0.005607
2348,-0.019652,0.005964,0.023687
2349,-0.001113,0.005964,0.005607
2350,-0.019652,0.024037,-0.030552
2351,-0.019652,0.005964,0.005607
2352,-0.001113,0.005964,-0.012473
2353,-0.001113,0.005964,-0.030552
2354,0.017426,0.005964,-0.012473
2355,-0.019652,0.005964,0.041767
2356,-0.001113,0.005964,0.023687
2357,-0.019652,0.005964,0.023687
2358,0.017426,0.005964,0.005607
2359,-0.001113,-0.01211,0.005607
2360,-0.001113,-0.01211,-0.012473
2361,-0.019652,0.005964,-0.012473
2362,0.017426,0.005964,-0.012473
2363,-0.019652,0.005964,-0.012473
2364,-0.001113,0.005964,-0.012473
2365,-0.019652,0.005964,-0.030552
2366,-0.001113,0.005964,-0.012473
2367,-0.001113,0.005964,0.005607
2368,0.017426,0.005964,0.005607
2369,0.017426,0.005964,0.005607
2370,-0.001113,0.005964,0.005607
2371,-0.001113,0.024037,0.005607
2372,-0.019652,0.005964,0.005607
2373,-0.019652,0.005964,0.023687
2374,-0.038191,-0.01211,0.023687
2375,-0.019652,0.024037,0.023687
2376,-0.038191,0.005964,0.005607
2377,-0.001113,-0.01211,0.005607
2378,-0.001113,-0.01211,0.005607
2379,-0.001113,0.005964,-0.012473
2380,-0.019652,0.024037,0.005607
2381,-0.001113,0.024037,-0.012473
2382,-0.001113,0.005964,-0.012473
2383,-0.001113,0.005964,-0.012473
2384,-0.001113,0.005964,-0.012473
2385,-0.001113,-0.01211,-0.012473
2386,0.017426,-0.01211,0.005607
2387,-0.001113,-0.01211,0.005607
2388,-0.001113,0.005964,-0.012473
2389,-0.001113,0.005964,0.005607
2390,0.017426,-0.030183,0.005607
2391,-0.001113,0.024037,-0.012473
2392,-0.001113,-0.01211,-0.012473
2393,-0.019652,-0.01211,-0.012473
2394,-0.001113,0.005964,-0.012473
2395,-0.001113,0.005964,-0.030552
2396,-0.038191,0.005964,-0.048632
2397,-0.001113,0.005964,-0.012473
2398,-0.001113,0.005964,0.005607
2399,-0.038191,0.024037,0.005607
2400,-0.001113,-0.01211,0.023687
2401,-0.001113,0.005964,0.023687
2402,-0.038191,0.005964,0.005607
2403,-0.019652,0.024037,0.023687
2404,-0.001113,0.005964,0.023687
2405,-0.001113,0.005964,0.023687
2406,0.017426,-0.01211,0.023687
2407,-0.019652,-0.01211,-0.012473
2408,-0.019652,0.024037,0.005607
2409,-0.001113,0.005964,-0.012473
2410,-0.001113,0.005964,-0.030552
2411,-0.001113,-0.01211,0.005607
2412,-0.019652,0.005964,-0.012473
2413,-0.001113,0.005964,-0.012473
2414,-0.019652,-0.01211,-0.012473
2415,-0.019652,0.005964,-0.030552
2416,-0.001113,0.005964,-0.012473
2417,0.035965,0.024037,0.023687
2418,-0.019652,0.005964,0.023687
2419,0.017426,0.024037,0.005607
2420,-0.001113,0.005964,0.023687
2421,-0.019652,0.005964,0.041767
2422,-0.001113,0.005964,0.005607
2423,0.017426,0.005964,-0.012473
2424,0.017426,0.005964,-0.012473
2425,-0.001113,-0.01211,-0.012473
2426,-0.001113,0.005964,-0.030552
2427,-0.001113,0.024037,0.005607
2428,-0.001113,0.024037,-0.012473
2429,-0.019652,0.005964,0.005607
2430,-0.001113,0.005964,-0.012473
2431,-0.019652,-0.030183,0.023687
2432,-0.001113,0.005964,0.005607
2433,-0.001113,0.005964,0.023687
2434,0.017426,0.005964,0.041767
2435,-0.038191,0.024037,0.023687
2436,-0.001113,-0.01211,0.023687
2437,-0.038191,0.024037,0.023687
2438,-0.038191,0.005964,0.005607
2439,-0.019652,0.005964,0.005607
2440,-0.001113,-0.01211,0.005607
2441,-0.001113,0.005964,-0.012473
2442,-0.001113,-0.01211,-0.012473
2443,-0.019652,0.005964,-0.012473
2444,-0.001113,0.005964,-0.012473
2445,-0.038191,0.005964,-0.012473
2446,-0.019652,0.024037,-0.012473
2447,-0.001113,0.005964,0.005607
2448,-0.019652,0.024037,0.005607
2449,-0.019652,-0.01211,0.005607
2450,-0.001113,-0.01211,0.023687
2451,-0.001113,0.005964,0.005607
2452,-0.001113,0.005964,0.023687
2453,-0.001113,0.024037,0.023687
2454,-0.001113,0.005964,0.023687
2455,-0.001113,0.005964,0.005607
2456,0.017426,0.005964,-0.012473
2457,-0.001113,0.005964,-0.030552
2458,-0.001113,0.005964,-0.012473
2459,-0.019652,0.024037,0.005607
2460,0.017426,0.005964,0.005607
2461,-0.001113,0.005964,0.005607
2462,-0.001113,-0.01211,0.005607
2463,-0.001113,-0.01211,0.023687
2464,-0.019652,0.005964,0.023687
2465,0.017426,0.005964,0.023687
2466,0.017426,0.005964,0.023687
2467,-0.001113,0.005964,0.077927
2468,-0.001113,-0.01211,0.023687
2469,-0.019652,0.005964,0.005607
2470,-0.001113,0.024037,0.041767
2471,-0.019652,0.005964,-0.012473
2472,0.017426,0.005964,0.005607
2473,-0.001113,0.005964,-0.012473
2474,-0.019652,-0.01211,-0.012473
2475,-0.019652,0.024037,-0.012473
2476,-0.001113,0.024037,-0.012473
2477,-0.001113,-0.01211,-0.030552
2478,-0.038191,0.005964,-0.012473
2479,-0.001113,0.024037,0.005607
2480,-0.001113,0.024037,0.005607
2481,-0.019652,0.005964,0.005607
2482,-0.001113,-0.01211,0.023687
2483,-0.001113,0.005964,0.023687
2484,-0.001113,0.005964,0.005607
2485,-0.001113,0.005964,0.041767
2486,-0.001113,0.005964,0.041767
2487,-0.019652,-0.01211,0.023687
2488,-0.001113,-0.01211,-0.012473
2489,-0.001113,-0.01211,-0.012473
2490,-0.001113,0.005964,-0.012473
2491,-0.001113,0.005964,-0.012473
2492,-0.019652,0.005964,-0.012473
2493,0.035965,0.005964,0.005607
2494,-0.019652,-0.01211,0.023687
2495,-0.001113,0.005964,-0.012473
2496,-0.001113,0.005964,0.023687
2497,-0.001113,0.005964,0.023687
2498,-0.019652,-0.01211,0.023687
2499,-0.001113,0.005964,0.005607
2500,-0.001113,0.005964,0.023687
2501,-0.019652,0.005964,0.023687
2502,-0.019652,0.005964,0.023687
2503,-0.019652,0.005964,0.005607
2504,-0.001113,-0.01211,0.005607
2505,-0.019652,0.005964,0.005607
2506,-0.001113,0.024037,-0.012473
2507,-0.001113,-0.01211,-0.030552
2508,0.017426,-0.01211,-0.012473
2509,-0.001113,0.005964,0.005607
2510,-0.001113,0.005964,-0.012473
2511,-0.019652,0.005964,0.005607
2512,-0.001113,-0.01211,0.023687
2513,-0.001113,-0.01211,0.023687
2514,0.017426,-0.01211,0.023687
2515,-0.001113,0.005964,0.023687
2516,0.035965,0.024037,0.005607
2517,-0.05673,0.005964,0.005607
2518,-0.038191,0.005964,0.023687
2519,-0.019652,0.024037,0.023687
2520,-0.019652,0.005964,0.023687
2521,-0.001113,0.024037,0.023687
2522,-0.001113,0.005964,0.005607
2523,-0.001113,0.024037,-0.012473
2524,-0.001113,0.005964,0.005607
2525,0.017426,0.005964,0.023687
2526,-0.019652,0.005964,0.023687
2527,-0.001113,-0.01211,0.005607
2528,-0.001113,-0.01211,0.041767
2529,0.017426,0.005964,0.041767
2530,-0.001113,0.005964,0.023687
2531,-0.001113,0.005964,0.023687
2532,-0.001113,0.024037,0.005607
2533,-0.001113,0.005964,-0.012473
2534,-0.019652,0.005964,-0.012473
2535,-0.001113,0.005964,-0.012473
2536,-0.001113,0.024037,-0.012473
2537,-0.019652,0.005964,0.005607
2538,-0.001113,0.005964,-0.012473
2539,-0.001113,0.005964,-0.030552
2540,-0.001113,0.024037,-0.012473
2541,-0.001113,0.005964,0.005607
2542,-0.001113,0.005964,0.023687
2543,-0.001113,-0.01211,0.005607
2544,-0.001113,-0.01211,0.023687
2545,-0.001113,-0.01211,0.005607
2546,-0.001113,0.024037,0.023687
2547,-0.001113,0.005964,0.023687
2548,-0.019652,0.005964,0.023687
2549,-0.038191,0.024037,0.023687
2550,-0.019652,0.005964,0.005607
2551,-0.019652,-0.01211,0.005607
2552,-0.019652,-0.01211,0.005607
2553,-0.001113,-0.01211,-0.012473
2554,-0.001113,0.005964,0.005607
2555,-0.001113,0.024037,0.023687
2556,-0.001113,0.005964,0.005607
2557,-0.001113,0.005964,0.005607
2558,-0.001113,-0.01211,0.005607
2559,-0.019652,0.005964,0.023687
2560,-0.001113,0.005964,0.023687
2561,0.017426,0.005964,0.023687
2562,-0.019652,0.005964,0.005607
2563,-0.001113,0.005964,0.005607
2564,-0.001113,0.024037,0.005607
2565,-0.001113,-0.01211,0.005607
2566,0.017426,0.005964,-0.012473
2567,-0.019652,0.005964,-0.012473
2568,0.017426,0.005964,-0.012473
2569,-0.038191,-0.01211,-0.012473
2570,0.017426,0.04211,-0.012473
2571,-0.019652,0.005964,0.005607
2572,-0.001113,0.005964,0.005607
2573,-0.001113,-0.01211,0.005607
2574,-0.019652,0.005964,0.023687
2575,-0.019652,-0.01211,0.005607
2576,-0.001113,0.005964,0.005607
2577,0.017426,0.005964,0.023687
2578,-0.001113,-0.01211,0.023687
2579,-0.019652,0.024037,0.005607
2580,-0.001113,0.005964,0.023687
2581,-0.019652,0.005964,0.023687
2582,-0.001113,0.005964,0.005607
2583,-0.001113,0.005964,0.005607
2584,-0.001113,0.005964,-0.012473
2585,0.017426,0.005964,0.005607
2586,-0.001113,0.005964,0.005607
2587,-0.001113,0.005964,0.023687
2588,-0.001113,0.024037,0.023687
2589,-0.001113,0.005964,0.023687
2590,-0.001113,0.005964,0.023687
2591,-0.001113,-0.01211,0.023687
2592,-0.001113,-0.01211,0.005607
2593,-0.019652,-0.01211,0.005607
2594,0.017426,0.005964,-0.012473
2595,-0.001113,0.005964,-0.012473
2596,-0.001113,0.005964,-0.012473
2597,0.017426,0.005964,-0.012473
2598,0.017426,0.005964,-0.030552
2599,-0.001113,-0.01211,0.005607
2600,-0.019652,-0.01211,-0.030552
2601,-0.001113,0.005964,-0.012473
2602,-0.001113,0.005964,0.005607
2603,-0.001113,-0.01211,0.005607
2604,-0.019652,0.005964,0.005607
2605,-0.001113,0.024037,0.005607
2606,-0.001113,0.024037,0.005607
2607,-0.001113,0.005964,0.005607
2608,-0.001113,-0.01211,0.023687
2609,-0.001113,-0.01211,0.041767
2610,-0.001113,0.005964,0.023687
2611,-0.001113,-0.01211,0.005607
2612,-0.001113,-0.01211,0.005607
2613,-0.001113,0.024037,0.005607
2614,0.017426,0.024037,0.005607
2615,0.017426,0.005964,-0.012473
2616,-0.001113,0.005964,-0.012473
2617,-0.001113,0.024037,-0.012473
2618,-0.001113,0.005964,-0.012473
2619,-0.001113,0.024037,-0.048632
2620,-0.001113,0.005964,0.005607
2621,-0.001113,0.005964,0.005607
2622,0.017426,-0.01211,0.005607
2623,-0.001113,-0.01211,-0.012473
2624,-0.019652,-0.01211,-0.012473
2625,-0.001113,0.024037,0.005607
2626,-0.001113,-0.01211,-0.030552
2627,-0.001113,0.005964,0.005607
2628,-0.001113,0.005964,-0.012473
2629,-0.019652,0.024037,-0.012473
2630,-0.001113,-0.01211,-0.012473
2631,-0.001113,0.024037,0.005607
2632,0.017426,0.005964,0.023687
2633,-0.001113,0.005964,-0.012473
2634,-0.019652,-0.01211,0.023687
2635,-0.001113,0.005964,0.023687
2636,-0.001113,0.005964,0.041767
2637,-0.019652,0.024037,0.005607
2638,-0.001113,-0.01211,0.023687
2639,-0.001113,0.005964,0.005607
2640,0.017426,-0.01211,0.005607
2641,-0.001113,0.005964,-0.012473
2642,-0.001113,-0.01211,-0.012473
2643,-0.001113,-0.01211,0.005607
2644,-0.001113,-0.01211,0.005607
2645,-0.038191,0.024037,-0.012473
2646,-0.001113,0.024037,-0.012473
2647,-0.001113,0.005964,-0.012473
2648,-0.001113,0.005964,-0.030552
2649,-0.001113,0.005964,-0.030552
2650,-0.001113,-0.01211,-0.030552
2651,-0.019652,-0.01211,-0.012473
2652,-0.019652,0.005964,0.023687
2653,0.017426,0.005964,0.005607
2654,-0.001113,0.024037,-0.012473
2655,-0.038191,0.024037,0.005607
2656,-0.019652,-0.01211,-0.012473
2657,-0.019652,0.005964,-0.012473
2658,-0.001113,0.005964,-0.012473
2659,-0.019652,0.005964,-0.012473
2660,-0.038191,0.005964,-0.012473
2661,-0.019652,0.005964,-0.012473
2662,0.017426,0.005964,-0.012473
2663,-0.001113,0.024037,0.005607
2664,-0.001113,0.005964,0.005607
2665,0.017426,0.024037,0.005607
2666,-0.019652,-0.030183,0.005607
2667,-0.001113,0.024037,0.023687
2668,-0.001113,0.005964,0.041767
2669,0.017426,0.005964,0.041767
2670,-0.019652,0.005964,0.023687
2671,-0.019652,0.005964,0.023687
2672,-0.001113,0.005964,0.005607
2673,-0.001113,-0.01211,0.005607
2674,0.017426,-0.01211,0.005607
2675,-0.019652,0.024037,0.005607
2676,-0.001113,0.005964,0.005607
2677,-0.001113,-0.01211,-0.012473
2678,0.017426,0.005964,-0.012473
2679,-0.001113,0.024037,0.005607
2680,-0.001113,-0.01211,-0.030552
2681,-0.001113,0.04211,-0.030552
2682,-0.001113,0.005964,-0.012473
2683,-0.019652,0.005964,0.005607
2684,-0.001113,0.005964,-0.012473
2685,-0.001113,0.024037,0.005607
2686,0.017426,0.005964,0.023687
2687,-0.001113,-0.030183,0.023687
2688,-0.019652,-0.01211,-0.030552
2689,-0.001113,0.005964,-0.030552
2690,-0.001113,0.005964,-0.012473
2691,-0.001113,0.005964,-0.012473
2692,-0.001113,0.005964,-0.030552
2693,-0.019652,0.005964,-0.012473
2694,-0.019652,0.005964,-0.012473
2695,-0.019652,-0.01211,-0.012473
2696,-0.019652,0.024037,0.005607
2697,-0.001113,0.024037,0.023687
2698,-0.019652,-0.01211,0.005607
2699,-0.001113,0.005964,0.023687
2700,-0.038191,0.005964,0.023687
2701,0.017426,-0.01211,0.041767
2702,-0.001113,-0.01211,0.023687
2703,-0.001113,0.005964,0.005607
2704,-0.001113,0.04211,0.023687
2705,-0.019652,0.005964,0.023687
2706,-0.001113,0.005964,-0.012473
2707,-0.001113,0.005964,-0.012473
2708,-0.001113,0.005964,-0.012473
2709,-0.001113,-0.01211,-0.030552
2710,-0.019652,0.005964,-0.012473
2711,-0.001113,0.005964,-0.030552
2712,-0.019652,0.005964,-0.030552
2713,-0.019652,0.005964,-0.030552
2714,-0.001113,0.024037,0.023687
2715,-0.001113,-0.01211,0.005607
2716,-0.001113,0.024037,0.023687
2717,-0.001113,-0.01211,0.005607
2718,-0.019652,0.005964,0.005607
2719,-0.001113,0.024037,0.023687
2720,0.017426,0.024037,0.023687
2721,-0.001113,0.005964,-0.030552
2722,-0.019652,0.005964,-0.012473
2723,0.017426,0.005964,-0.012473
2724,-0.019652,0.024037,-0.012473
2725,-0.001113,-0.01211,0.005607
2726,-0.001113,0.005964,-0.012473
2727,-0.019652,-0.01211,-0.012473
2728,-0.019652,0.005964,0.005607
2729,-0.019652,0.005964,0.005607
2730,-0.001113,0.005964,0.005607
2731,-0.001113,-0.01211,0.005607
2732,-0.001113,0.024037,0.023687
2733,0.017426,0.005964,0.023687
2734,-0.001113,0.005964,0.023687
2735,0.017426,0.024037,0.023687
2736,-0.019652,0.005964,0.041767
2737,-0.001113,0.005964,0.005607
2738,-0.019652,0.005964,0.005607
2739,-0.019652,0.005964,-0.030552
2740,-0.001113,0.005964,-0.012473
2741,-0.001113,0.005964,-0.012473
2742,0.017426,0.005964,0.005607
2743,-0.001113,-0.01211,-0.012473
2744,-0.019652,-0.01211,-0.012473
2745,-0.001113,-0.01211,-0.012473
2746,0.017426,-0.01211,-0.012473
2747,-0.001113,-0.01211,-0.012473
2748,-0.019652,-0.01211,0.005607
2749,-0.019652,0.005964,0.023687
2750,0.017426,0.005964,0.041767
2751,-0.001113,0.005964,0.005607
2752,0.017426,0.005964,0.041767
2753,-0.001113,0.024037,0.059847
2754,0.017426,0.04211,0.041767
2755,0.017426,0.005964,-0.030552
2756,-0.001113,0.024037,-0.030552
2757,0.017426,0.005964,-0.012473
2758,-0.001113,-0.01211,0.005607
2759,-0.038191,-0.01211,-0.012473
2760,0.035965,0.005964,0.005607
2761,-0.001113,0.04211,0.023687
2762,0.017426,0.005964,0.005607
2763,0.017426,-0.01211,0.023687
2764,-0.038191,-0.01211,0.023687
2765,-0.001113,0.005964,0.023687
2766,-0.038191,0.005964,0.023687
2767,-0.001113,-0.01211,0.023687
2768,0.017426,0.005964,0.005607
2769,-0.001113,0.005964,0.005607
2770,-0.001113,0.005964,-0.012473
2771,-0.001113,-0.01211,-0.012473
2772,-0.019652,-0.01211,-0.012473
2773,-0.001113,-0.01211,-0.030552
2774,-0.001113,0.005964,-0.012473
2775,-0.001113,0.005964,-0.012473
2776,-0.038191,0.005964,-0.030552
2777,-0.019652,0.024037,-0.030552
2778,-0.001113,0.005964,0.005607
2779,-0.019652,-0.01211,0.005607
2780,-0.001113,0.005964,-0.012473
2781,-0.019652,0.005964,0.005607
2782,-0.019652,-0.01211,0.023687
2783,0.017426,0.005964,0.023687
2784,-0.001113,0.005964,0.023687
2785,-0.019652,0.005964,0.041767
2786,0.017426,0.005964,0.041767
2787,-0.001113,0.005964,0.023687
2788,-0.001113,0.005964,-0.012473
2789,-0.019652,0.005964,-0.030552
2790,-0.019652,0.005964,0.005607
2791,-0.019652,0.024037,0.005607
2792,0.017426,0.005964,0.005607
2793,-0.001113,0.005964,0.005607
2794,-0.001113,0.024037,0.023687
2795,-0.001113,0.005964,0.023687
2796,-0.001113,0.005964,0.023687
2797,0.017426,0.005964,0.023687
2798,-0.019652,-0.01211,0.023687
2799,-0.001113,0.024037,0.023687
2800,-0.019652,0.024037,0.005607
2801,-0.019652,0.005964,0.005607
2802,-0.001113,0.005964,0.023687
2803,0.017426,0.005964,0.005607
2804,-0.001113,0.005964,0.005607
2805,-0.019652,0.005964,-0.030552
2806,-0.001113,0.005964,-0.012473
2807,-0.001113,-0.01211,-0.012473
2808,-0.001113,0.024037,-0.030552
2809,-0.019652,0.005964,-0.012473
2810,-0.019652,0.005964,-0.012473
2811,0.017426,-0.01211,0.005607
2812,-0.019652,0.005964,0.005607
2813,-0.001113,0.024037,0.005607
2814,0.017426,0.005964,0.023687
2815,-0.019652,0.005964,0.041767
2816,0.017426,0.005964,0.005607
2817,-0.001113,0.005964,0.041767
2818,0.017426,0.024037,0.005607
2819,-0.001113,0.005964,0.023687
2820,-0.019652,-0.01211,0.023687
2821,-0.001113,0.005964,-0.030552
2822,-0.001113,0.005964,-0.012473
2823,-0.001113,0.005964,0.005607
2824,-0.001113,-0.01211,0.005607
2825,-0.001113,0.024037,0.041767
2826,0.035965,0.04211,0.041767
2827,-0.001113,0.005964,0.023687
2828,-0.019652,0.024037,0.023687
2829,-0.001113,0.005964,0.005607
2830,-0.019652,-0.01211,0.023687
2831,-0.001113,0.005964,0.005607
2832,-0.019652,-0.01211,0.005607
2833,-0.019652,0.005964,-0.012473
2834,-0.001113,0.005964,0.005607
2835,0.017426,0.024037,0.005607
2836,0.017426,0.005964,-0.012473
2837,0.017426,0.005964,-0.012473
2838,-0.019652,0.005964,-0.012473
2839,-0.001113,0.005964,-0.030552
2840,-0.001113,0.005964,-0.012473
2841,-0.001113,-0.01211,-0.012473
2842,0.017426,0.005964,-0.012473
2843,-0.019652,0.005964,0.005607
2844,-0.019652,0.005964,-0.012473
2845,-0.001113,-0.01211,0.005607
2846,-0.001113,0.005964,0.005607
2847,-0.001113,0.005964,0.005607
2848,-0.001113,0.005964,0.041767
2849,0.017426,0.024037,0.005607
2850,-0.019652,0.005964,0.041767
2851,-0.001113,-0.01211,0.041767
2852,0.017426,0.005964,0.041767
2853,-0.001113,0.005964,0.023687
2854,-0.001113,0.024037,-0.012473
2855,-0.001113,0.005964,-0.012473
2856,-0.001113,0.005964,-0.012473
2857,-0.019652,-0.01211,-0.012473
2858,-0.001113,0.005964,-0.012473
2859,-0.019652,0.005964,0.023687
2860,-0.001113,0.005964,0.023687
2861,-0.019652,0.005964,0.023687
2862,-0.019652,0.005964,0.023687
2863,0.035965,0.005964,0.023687
2864,-0.001113,0.024037,0.041767
2865,-0.019652,0.024037,0.023687
2866,-0.019652,0.005964,0.005607
2867,-0.019652,0.005964,0.005607
2868,-0.001113,-0.01211,0.005607
2869,-0.019652,-0.01211,-0.012473
2870,-0.019652,-0.01211,-0.012473
2871,-0.001113,0.005964,-0.012473
2872,-0.019652,-0.01211,-0.030552
2873,-0.001113,-0.01211,-0.030552
2874,0.017426,0.005964,-0.030552
2875,-0.001113,0.005964,-0.030552
2876,-0.001113,0.005964,-0.012473
2877,-0.001113,0.005964,-0.012473
2878,-0.019652,0.005964,-0.012473
2879,-0.001113,0.024037,0.005607
2880,-0.019652,0.005964,0.023687
2881,-0.001113,0.005964,0.023687
2882,-0.001113,0.005964,0.041767
2883,0.017426,0.024037,0.041767
2884,-0.001113,0.024037,0.023687
2885,0.017426,0.005964,0.041767
2886,-0.001113,0.005964,0.023687
2887,-0.001113,0.024037,-0.012473
2888,-0.001113,0.024037,-0.012473
2889,-0.001113,0.024037,-0.012473
2890,-0.019652,-0.01211,-0.030552
2891,-0.019652,-0.01211,-0.030552
2892,0.035965,-0.01211,0.005607
2893,-0.001113,0.005964,0.023687
2894,-0.001113,-0.01211,0.005607
2895,-0.019652,0.005964,0.023687
2896,0.017426,-0.01211,0.023687
2897,-0.001113,0.005964,0.023687
2898,-0.019652,-0.030183,0.023687
2899,0.017426,0.005964,0.005607
2900,-0.001113,0.005964,0.005607
2901,-0.001113,0.005964,0.023687
2902,-0.001113,0.005964,0.005607
2903,-0.001113,0.024037,0.023687
2904,-0.001113,0.024037,-0.012473
2905,-0.001113,0.005964,-0.012473
2906,-0.001113,0.005964,-0.030552
2907,-0.001113,0.005964,-0.012473
2908,-0.019652,0.005964,-0.012473
2909,-0.001113,0.005964,-0.012473
2910,-0.019652,-0.048257,-0.012473
2911,-0.001113,-0.01211,0.005607
2912,-0.019652,0.005964,0.005607
2913,-0.019652,0.005964,0.023687
2914,-0.019652,0.005964,0.005607
2915,-0.001113,0.005964,0.023687
2916,-0.001113,0.005964,0.023687
2917,-0.001113,0.005964,0.023687
2918,-0.001113,0.005964,0.023687
2919,-0.001113,0.005964,0.023687
2920,0.017426,0.024037,-0.030552
2921,-0.001113,0.005964,-0.030552
2922,-0.001113,-0.01211,-0.012473
2923,-0.019652,0.005964,0.005607
2924,-0.001113,0.005964,0.005607
2925,-0.019652,0.024037,-0.012473
2926,-0.001113,-0.01211,0.023687
2927,-0.001113,0.005964,0.023687
2928,0.017426,0.024037,0.023687
2929,-0.001113,0.005964,0.023687
2930,-0.001113,0.005964,0.005607
2931,-0.001113,0.024037,0.023687
2932,-0.001113,0.024037,0.023687
2933,-0.019652,0.005964,0.005607
2934,0.017426,0.005964,0.005607
2935,-0.019652,0.005964,0.005607
2936,-0.001113,0.005964,0.005607
2937,-0.001113,0.005964,-0.012473
2938,-0.001113,0.005964,-0.012473
2939,-0.001113,0.005964,-0.012473
2940,-0.019652,0.005964,0.005607
2941,-0.001113,0.005964,-0.012473
2942,-0.001113,0.024037,0.005607
2943,-0.001113,0.005964,-0.012473
2944,-0.001113,0.005964,-0.012473
2945,-0.001113,-0.01211,-0.012473
2946,-0.001113,0.005964,0.005607
2947,0.017426,0.005964,0.023687
2948,-0.001113,0.005964,0.005607
2949,-0.001113,0.024037,0.041767
2950,-0.001113,0.005964,0.041767
2951,0.017426,0.005964,0.023687
2952,-0.019652,0.005964,0.023687
2953,-0.019652,0.005964,-0.030552
2954,0.017426,0.024037,-0.030552
2955,-0.001113,-0.01211,-0.012473
2956,0.017426,0.005964,0.005607
2957,-0.019652,-0.01211,0.005607
2958,-0.001113,-0.01211,0.005607
2959,0.017426,-0.01211,0.005607
2960,-0.001113,0.005964,0.023687
2961,-0.019652,0.024037,0.041767
2962,-0.019652,0.005964,0.023687
2963,-0.001113,0.005964,0.023687
2964,-0.001113,-0.01211,0.023687
2965,-0.019652,-0.01211,0.005607
2966,0.017426,0.005964,0.005607
2967,-0.001113,0.005964,0.023687
2968,-0.001113,0.005964,0.005607
2969,-0.001113,0.005964,0.005607
2970,-0.001113,-0.01211,-0.012473
2971,0.017426,0.005964,-0.012473
2972,-0.019652,0.005964,-0.012473
2973,-0.019652,0.005964,-0.012473
2974,-0.001113,0.005964,-0.012473
2975,-0.001113,-0.01211,-0.012473
2976,-0.001113,0.005964,0.005607
2977,-0.019652,-0.01211,0.005607
2978,-0.001113,0.005964,0.023687
2979,0.017426,0.005964,0.023687
2980,-0.019652,0.005964,0.041767
2981,-0.001113,0.005964,0.023687
2982,-0.001113,0.005964,0.023687
2983,-0.001113,0.005964,0.023687
2984,-0.019652,0.005964,0.041767
2985,0.017426,0.005964,0.005607
2986,-0.001113,0.005964,-0.030552
2987,-0.001113,-0.01211,-0.012473
2988,0.017426,0.005964,-0.012473
2989,-0.001113,-0.01211,-0.012473
2990,-0.001113,-0.01211,0.005607
2991,-0.019652,-0.01211,0.023687
2992,-0.001113,-0.01211,-0.012473
2993,-0.001113,0.005964,0.023687
2994,-0.001113,0.005964,0.023687
2995,-0.019652,-0.01211,0.023687
2996,-0.001113,0.005964,0.023687
2997,-0.019652,0.005964,0.005607
2998,-0.001113,-0.01211,0.005607
2999,-0.001113,0.005964,0.005607
3000,-0.001113,0.005964,-0.012473
3001,0.017426,0.005964,0.005607
3002,-0.001113,0.005964,0.005607
3003,-0.001113,0.005964,0.023687
3004,-0.001113,0.005964,-0.030552
3005,-0.019652,0.005964,-0.012473
3006,-0.001113,0.005964,-0.030552
3007,-0.001113,0.024037,-0.030552
3008,-0.001113,-0.01211,0.005607
3009,-0.001113,0.005964,-0.012473
3010,-0.001113,0.024037,0.005607
3011,-0.001113,0.024037,0.005607
3012,-0.001113,0.024037,0.005607
3013,-0.001113,0.005964,0.023687
3014,-0.019652,0.024037,0.023687
3015,-0.001113,0.005964,0.023687
3016,-0.001113,-0.01211,0.041767
3017,-0.001113,0.005964,0.041767
3018,-0.001113,0.005964,0.023687
3019,0.017426,0.005964,-0.012473
3020,-0.038191,0.024037,-0.012473
3021,-0.019652,0.005964,0.023687
3022,-0.001113,0.005964,0.005607
3023,-0.019652,0.005964,0.023687
3024,0.017426,0.005964,0.005607
3025,-0.019652,0.005964,0.005607
3026,0.017426,-0.01211,0.005607
3027,-0.019652,0.024037,0.005607
3028,0.017426,-0.01211,0.023687
3029,-0.001113,0.005964,0.023687
3030,-0.019652,-0.01211,0.005607
3031,-0.019652,0.024037,0.005607
3032,-0.001113,0.005964,0.005607
3033,-0.019652,-0.01211,0.005607
3034,0.017426,0.005964,0.005607
3035,-0.019652,0.005964,0.005607
3036,-0.001113,0.005964,-0.012473
3037,-0.001113,0.024037,-0.012473
3038,-0.001113,0.024037,-0.030552
3039,-0.001113,0.005964,-0.030552
3040,-0.001113,0.005964,0.005607
3041,-0.001113,0.005964,0.005607
3042,-0.001113,0.005964,-0.012473
3043,0.017426,0.005964,0.005607
3044,0.091583,0.005964,0.005607
3045,0.017426,0.005964,0.005607
3046,-0.019652,0.005964,0.023687
3047,-0.001113,0.024037,0.023687
3048,-0.001113,0.005964,0.041767
3049,0.017426,0.024037,0.041767
3050,-0.001113,0.005964,0.023687
3051,-0.001113,0.005964,0.023687
3052,-0.001113,0.005964,0.005607
3053,-0.019652,0.024037,0.005607
3054,-0.001113,0.005964,0.005607
3055,-0.001113,-0.01211,-0.012473
3056,-0.019652,-0.01211,0.005607
3057,-0.019652,-0.01211,-0.012473
3058,-0.001113,0.005964,0.023687
3059,-0.019652,0.005964,0.023687
3060,-0.001113,0.005964,0.005607
3061,-0.019652,0.005964,0.023687
3062,-0.001113,0.024037,0.023687
3063,-0.001113,-0.030183,0.023687
3064,-0.001113,-0.01211,0.005607
3065,-0.019652,0.005964,0.005607
3066,-0.001113,0.005964,0.023687
3067,-0.001113,-0.01211,0.023687
3068,-0.001113,0.005964,-0.012473
3069,-0.001113,0.005964,0.005607
3070,-0.019652,0.024037,-0.012473
3071,-0.001113,-0.01211,-0.012473
3072,-0.019652,0.005964,-0.030552
3073,-0.001113,-0.01211,-0.030552
3074,0.035965,0.005964,-0.012473
3075,-0.001113,0.005964,0.005607
3076,-0.001113,0.005964,0.005607
3077,-0.001113,-0.01211,0.023687
3078,-0.001113,0.005964,0.023687
3079,-0.019652,0.005964,0.023687
3080,-0.019652,0.024037,0.023687
3081,-0.019652,0.005964,0.023687
3082,-0.001113,0.005964,0.041767
3083,-0.001113,0.005964,0.023687
3084,-0.019652,-0.01211,-0.012473
3085,-0.001113,-0.01211,0.005607
3086,-0.001113,0.005964,-0.012473
3087,-0.001113,-0.01211,-0.012473
3088,-0.001113,0.005964,-0.012473
3089,-0.001113,-0.01211,0.005607
3090,0.017426,0.005964,0.023687
3091,-0.001113,0.024037,0.023687
3092,-0.001113,0.005964,0.041767
3093,-0.038191,-0.01211,0.023687
3094,0.017426,0.005964,0.041767
3095,-0.001113,0.005964,0.041767
3096,-0.001113,0.005964,0.005607
3097,-0.001113,0.005964,0.023687
3098,-0.001113,0.005964,0.005607
3099,0.017426,0.005964,0.023687
3100,-0.001113,-0.01211,0.005607
3101,-0.001113,-0.01211,-0.030552
3102,-0.001113,-0.01211,-0.030552
3103,-0.019652,0.005964,-0.030552
3104,-0.001113,0.005964,-0.030552
3105,-0.001113,0.005964,-0.030552
3106,-0.019652,-0.01211,-0.012473
3107,-0.001113,-0.01211,0.005607
3108,-0.019652,0.005964,0.005607
3109,-0.001113,0.005964,-0.012473
3110,-0.019652,0.005964,0.005607
3111,-0.001113,-0.01211,0.005607
3112,-0.019652,-0.01211,0.023687
3113,0.017426,0.024037,0.023687
3114,-0.001113,0.005964,0.023687
3115,0.017426,0.005964,0.041767
3116,0.017426,0.005964,0.041767
3117,0.017426,0.005964,0.023687
3118,-0.001113,0.005964,0.023687
3119,-0.019652,0.005964,-0.012473
3120,-0.019652,0.005964,-0.012473
3121,0.017426,0.005964,0.005607
3122,-0.001113,0.005964,0.005607
3123,-0.019652,0.005964,0.005607
3124,-0.001113,-0.01211,0.005607
3125,-0.001113,0.024037,0.023687
3126,0.017426,0.024037,0.005607
3127,-0.001113,0.024037,0.005607
3128,-0.001113,0.024037,0.041767
3129,-0.001113,0.005964,0.041767
3130,0.017426,0.005964,0.005607
3131,-0.019652,0.005964,0.005607
3132,-0.001113,-0.01211,0.005607
3133,-0.001113,0.005964,0.005607
3134,-0.019652,-0.030183,-0.012473
3135,-0.019652,0.005964,-0.012473
3136,-0.001113,-0.01211,-0.030552
3137,-0.019652,0.005964,-0.030552
3138,-0.001113,0.005964,-0.012473
3139,-0.001113,-0.01211,-0.012473
3140,-0.001113,0.005964,-0.030552
3141,-0.001113,0.005964,-0.012473
3142,-0.001113,-0.01211,0.005607
3143,-0.019652,0.005964,0.023687
3144,-0.019652,-0.01211,0.023687
3145,-0.001113,0.005964,0.023687
3146,0.017426,0.005964,0.023687
3147,0.017426,0.024037,0.023687
3148,-0.001113,-0.01211,0.023687
3149,-0.001113,0.005964,0.005607
3150,-0.001113,0.005964,0.023687
3151,-0.001113,-0.01211,0.005607
3152,-0.019652,0.024037,0.005607
3153,-0.001113,0.005964,0.005607
3154,-0.001113,0.005964,0.005607
3155,-0.001113,-0.01211,0.023687
3156,-0.001113,0.005964,0.023687
3157,-0.019652,0.005964,0.023687
3158,-0.001113,0.024037,0.023687
3159,-0.019652,-0.01211,0.023687
3160,-0.019652,0.024037,0.023687
3161,-0.019652,0.024037,0.005607
3162,-0.019652,0.005964,0.005607
3163,-0.001113,0.024037,0.005607
3164,-0.001113,-0.01211,-0.012473
3165,-0.019652,0.005964,0.005607
3166,-0.001113,0.005964,-0.012473
3167,-0.001113,0.005964,-0.012473
3168,-0.001113,0.005964,0.005607
3169,-0.001113,0.005964,-0.012473
3170,-0.001113,-0.01211,-0.012473
3171,0.017426,-0.01211,-0.012473
3172,-0.019652,0.005964,-0.012473
3173,-0.019652,-0.01211,0.005607
3174,-0.001113,0.005964,-0.012473
3175,-0.001113,-0.01211,0.023687
3176,-0.019652,0.024037,0.005607
3177,-0.001113,-0.01211,0.023687
3178,-0.019652,-0.01211,0.005607
3179,-0.019652,0.005964,0.023687
3180,-0.001113,-0.01211,0.023687
3181,0.017426,0.005964,0.041767
3182,-0.001113,0.005964,0.023687
3183,-0.001113,0.005964,0.005607
3184,-0.001113,0.005964,0.023687
3185,0.017426,0.024037,0.005607
3186,-0.019652,0.005964,-0.012473
3187,-0.019652,0.024037,0.023687
3188,-0.038191,0.005964,0.005607
3189,0.017426,-0.01211,0.023687
3190,0.017426,0.005964,0.023687
3191,-0.001113,0.005964,0.023687
3192,-0.001113,0.005964,0.023687
3193,-0.001113,0.024037,0.023687
3194,-0.001113,0.005964,0.023687
3195,-0.001113,0.005964,0.005607
3196,-0.019652,0.005964,0.005607
3197,0.017426,0.024037,0.005607
3198,-0.001113,-0.030183,0.005607
3199,-0.001113,0.005964,0.005607
3200,-0.001113,0.024037,0.005607
3201,-0.001113,0.005964,-0.012473
3202,0.017426,0.005964,-0.012473
3203,0.035965,0.005964,-0.030552
3204,0.017426,0.005964,-0.012473
3205,-0.001113,0.005964,-0.012473
3206,-0.001113,0.005964,0.005607
3207,-0.001113,0.005964,0.005607
3208,-0.001113,0.024037,-0.012473
3209,-0.019652,-0.01211,0.005607
3210,-0.001113,0.005964,0.005607
3211,-0.001113,0.005964,0.023687
3212,-0.038191,0.005964,0.023687
3213,0.017426,0.005964,0.023687
3214,-0.001113,0.005964,0.023687
3215,-0.001113,0.005964,0.023687
3216,-0.019652,0.005964,0.023687
3217,0.017426,0.005964,0.023687
3218,-0.019652,0.005964,0.005607
3219,0.017426,0.005964,0.005607
3220,-0.001113,0.024037,-0.012473
3221,-0.001113,0.005964,0.005607
3222,-0.001113,0.005964,0.023687
3223,-0.001113,0.005964,0.023687
3224,-0.001113,-0.01211,0.023687
3225,0.017426,0.005964,0.023687
3226,-0.001113,0.024037,0.023687
3227,0.017426,0.005964,0.005607
3228,-0.019652,0.005964,0.005607
3229,-0.019652,-0.01211,0.005607
3230,-0.019652,-0.01211,0.023687
3231,-0.001113,0.005964,0.005607
3232,-0.019652,0.005964,-0.012473
3233,-0.001113,0.005964,-0.012473
3234,0.017426,0.005964,0.005607
3235,-0.001113,0.005964,-0.012473
3236,0.017426,0.024037,-0.012473
3237,-0.019652,-0.01211,-0.012473
3238,-0.001113,0.005964,-0.030552
3239,-0.001113,0.005964,-0.030552
3240,-0.001113,-0.01211,-0.012473
3241,-0.001113,0.005964,0.005607
3242,-0.001113,0.005964,0.005607
3243,-0.001113,0.005964,0.005607
3244,0.017426,-0.01211,0.023687
3245,-0.001113,0.005964,-0.012473
3246,0.017426,0.005964,-0.012473
3247,-0.001113,0.005964,0.023687
3248,-0.019652,0.005964,0.023687
3249,-0.001113,0.005964,0.041767
3250,-0.019652,0.005964,0.041767
3251,-0.001113,0.005964,-0.030552
3252,-0.001113,-0.01211,0.005607
3253,-0.001113,0.005964,-0.012473
3254,-0.038191,0.005964,-0.012473
3255,-0.001113,-0.01211,-0.012473
3256,-0.019652,-0.01211,-0.012473
3257,-0.001113,-0.01211,0.023687
3258,-0.001113,0.005964,0.041767
3259,0.017426,0.024037,0.023687
3260,-0.001113,-0.030183,0.005607
3261,-0.019652,0.005964,0.041767
3262,-0.001113,0.024037,0.023687
3263,0.017426,-0.01211,0.023687
3264,-0.001113,0.024037,0.023687
3265,-0.001113,0.024037,0.005607
3266,-0.019652,0.024037,0.023687
3267,-0.019652,-0.01211,0.005607
3268,-0.019652,0.005964,-0.012473
3269,-0.001113,0.005964,-0.030552
3270,-0.019652,0.005964,-0.012473
3271,-0.001113,0.005964,-0.030552
3272,-0.019652,0.005964,-0.030552
3273,-0.001113,0.005964,-0.030552
3274,-0.019652,0.024037,-0.030552
3275,-0.001113,0.005964,-0.012473
3276,-0.019652,0.005964,0.005607
3277,0.017426,-0.01211,0.005607
3278,-0.019652,0.005964,0.005607
3279,0.017426,0.005964,0.023687
3280,-0.001113,0.005964,0.023687
3281,0.017426,-0.01211,-0.012473
3282,-0.001113,0.005964,0.023687
3283,-0.001113,0.005964,0.041767
3284,0.017426,0.024037,-0.030552
3285,-0.019652,0.005964,-0.012473
3286,-0.019652,0.024037,-0.012473
3287,-0.019652,0.005964,-0.012473
3288,-0.001113,0.005964,0.005607
3289,-0.001113,0.005964,0.005607
3290,0.017426,0.005964,0.005607
3291,-0.001113,-0.01211,0.005607
3292,-0.001113,0.005964,0.005607
3293,-0.019652,-0.01211,0.005607
3294,-0.001113,0.005964,0.023687
3295,-0.001113,0.005964,0.005607
3296,-0.001113,0.005964,0.041767
3297,0.035965,0.005964,0.023687
3298,-0.001113,-0.01211,0.023687
3299,0.017426,-0.01211,0.023687
3300,-0.019652,-0.01211,0.023687
3301,-0.001113,0.005964,0.023687
3302,-0.019652,0.005964,-0.012473
3303,-0.001113,-0.01211,0.005607
3304,-0.001113,0.005964,-0.012473
3305,-0.001113,0.005964,-0.012473
3306,-0.001113,0.005964,-0.030552
3307,-0.001113,0.005964,-0.048632
3308,-0.001113,0.005964,-0.030552
3309,-0.001113,0.005964,-0.012473
3310,0.017426,0.005964,0.005607
3311,-0.019652,0.005964,0.005607
3312,-0.019652,-0.01211,0.005607
3313,-0.001113,0.005964,0.023687
3314,-0.001113,0.005964,0.023687
3315,-0.001113,0.005964,0.041767
3316,-0.019652,0.005964,0.041767
3317,-0.019652,0.005964,-0.030552
3318,-0.001113,0.005964,-0.012473
3319,-0.001113,0.024037,-0.012473
3320,-0.001113,0.005964,-0.012473
3321,-0.001113,-0.01211,0.005607
3322,-0.001113,0.005964,0.005607
3323,-0.019652,-0.01211,0.005607
3324,-0.001113,0.005964,0.005607
3325,-0.001113,0.005964,0.005607
3326,-0.001113,0.005964,0.023687
3327,-0.001113,0.005964,0.023687
3328,0.017426,0.024037,0.041767
3329,-0.001113,0.005964,0.023687
3330,-0.001113,0.005964,0.005607
3331,-0.019652,0.005964,0.005607
3332,0.035965,0.005964,0.005607
3333,-0.019652,0.005964,-0.012473
3334,-0.001113,0.005964,-0.012473
3335,-0.001113,0.005964,-0.012473
3336,-0.001113,-0.01211,-0.012473
3337,-0.001113,0.024037,0.005607
3338,-0.001113,0.005964,-0.012473
3339,-0.001113,-0.01211,-0.030552
3340,-0.001113,0.005964,-0.012473
3341,-0.001113,-0.01211,0.005607
3342,-0.001113,-0.01211,0.005607
3343,-0.001113,0.005964,0.005607
3344,-0.001113,0.005964,0.005607
3345,-0.001113,-0.01211,0.041767
3346,-0.001113,0.024037,0.023687
3347,-0.001113,0.024037,0.023687
3348,-0.019652,-0.01211,0.023687
3349,-0.019652,0.005964,0.041767
3350,-0.001113,0.04211,-0.012473
3351,0.017426,0.005964,-0.012473
3352,0.017426,0.024037,-0.012473
3353,-0.001113,0.005964,-0.012473
3354,-0.001113,-0.01211,0.005607
3355,-0.001113,-0.01211,0.023687
3356,0.017426,-0.01211,0.005607
3357,-0.001113,0.005964,0.005607
3358,-0.001113,0.005964,0.041767
3359,-0.001113,0.024037,0.023687
3360,-0.019652,-0.01211,0.023687
3361,0.017426,0.005964,0.023687
3362,-0.001113,0.024037,0.023687
3363,-0.001113,-0.01211,0.023687
3364,-0.001113,0.005964,0.005607
3365,-0.001113,0.024037,0.005607
3366,-0.019652,-0.01211,-0.012473
3367,-0.001113,0.005964,0.005607
3368,-0.019652,-0.01211,-0.030552
3369,-0.001113,-0.01211,-0.012473
3370,-0.038191,0.005964,-0.012473
3371,-0.001113,0.024037,-0.012473
3372,0.017426,-0.01211,-0.012473
3373,0.017426,0.024037,-0.012473
3374,-0.019652,0.005964,0.005607
3375,-0.001113,0.005964,0.005607
3376,-0.019652,0.005964,0.005607
3377,-0.001113,0.005964,0.023687
3378,-0.001113,0.005964,0.041767
3379,-0.019652,-0.01211,0.041767
3380,-0.001113,0.005964,0.023687
3381,-0.001113,0.005964,0.023687
3382,-0.019652,0.005964,0.023687
3383,-0.001113,0.024037,-0.012473
3384,0.017426,-0.030183,0.005607
3385,-0.001113,-0.01211,-0.012473
3386,-0.001113,0.005964,-0.012473
3387,-0.019652,0.005964,0.005607
3388,-0.001113,0.005964,0.023687
3389,-0.001113,0.024037,0.023687
3390,-0.001113,0.005964,0.005607
3391,0.017426,0.005964,0.041767
3392,0.017426,0.005964,0.023687
3393,-0.038191,0.005964,0.023687
3394,-0.001113,-0.01211,0.023687
3395,-0.019652,-0.01211,0.005607
3396,-0.001113,0.024037,0.005607
3397,-0.001113,0.005964,-0.012473
3398,-0.001113,0.005964,-0.012473
3399,-0.019652,0.005964,-0.012473
3400,-0.019652,-0.01211,-0.012473
3401,-0.001113,0.005964,-0.012473
3402,-0.019652,0.024037,-0.012473
3403,-0.038191,0.005964,-0.012473
3404,-0.019652,0.005964,0.005607
3405,-0.001113,-0.01211,0.005607
3406,-0.019652,-0.01211,0.005607
3407,-0.001113,0.005964,0.005607
3408,-0.001113,0.005964,0.005607
3409,-0.019652,0.005964,0.023687
3410,0.017426,0.005964,0.023687
3411,-0.001113,0.005964,0.041767
3412,-0.019652,0.005964,0.005607
3413,-0.001113,0.005964,0.005607
3414,-0.001113,0.005964,0.005607
3415,-0.001113,0.024037,0.023687
3416,-0.019652,0.005964,0.005607
3417,-0.019652,0.005964,0.005607
3418,-0.001113,0.005964,0.023687
3419,-0.001113,0.005964,0.005607
3420,-0.001113,0.005964,0.023687
3421,-0.001113,-0.01211,0.041767
3422,0.017426,-0.01211,0.023687
3423,-0.038191,0.005964,0.005607
3424,-0.019652,0.005964,0.005607
3425,-0.001113,0.005964,0.005607
3426,0.035965,0.005964,0.005607
3427,-0.001113,-0.01211,-0.012473
3428,-0.001113,0.024037,-0.012473
3429,-0.001113,-0.01211,0.005607
3430,-0.001113,-0.01211,0.005607
3431,-0.019652,-0.01211,-0.030552
3432,-0.019652,0.005964,-0.012473
3433,-0.001113,0.024037,0.005607
3434,0.017426,-0.01211,0.005607
3435,-0.019652,-0.01211,0.005607
3436,-0.001113,-0.030183,0.005607
3437,-0.001113,-0.01211,0.005607
3438,-0.001113,0.005964,0.023687
3439,-0.019652,0.005964,0.023687
3440,-0.019652,0.005964,0.023687
3441,-0.001113,-0.030183,0.023687
3442,-0.038191,0.005964,0.023687
3443,-0.019652,0.005964,0.023687
3444,-0.001113,0.005964,-0.012473
3445,-0.019652,0.005964,0.005607
3446,-0.001113,0.005964,-0.030552
3447,-0.001113,-0.01211,-0.012473
3448,-0.001113,0.005964,0.005607
3449,-0.001113,0.024037,0.023687
3450,-0.019652,-0.01211,0.023687
3451,-0.019652,-0.01211,0.023687
3452,0.017426,0.005964,0.041767
3453,-0.019652,0.005964,0.023687
3454,-0.001113,0.005964,0.005607
3455,-0.019652,0.005964,-0.012473
3456,-0.001113,0.005964,-0.012473
3457,-0.001113,0.005964,-0.012473
3458,-0.019652,0.005964,-0.012473
3459,-0.038191,0.005964,-0.012473
3460,-0.001113,0.005964,-0.012473
3461,-0.019652,0.005964,-0.012473
3462,-0.001113,0.024037,-0.030552
3463,-0.001113,0.005964,-0.030552
3464,-0.001113,0.005964,0.005607
3465,-0.001113,0.005964,0.005607
3466,-0.019652,0.024037,0.023687
3467,-0.019652,-0.01211,0.005607
3468,-0.001113,-0.030183,0.005607
3469,-0.001113,0.005964,0.023687
3470,-0.001113,-0.01211,0.023687
3471,-0.019652,-0.01211,0.023687
3472,-0.019652,0.005964,0.023687
3473,-0.019652,0.005964,0.005607
3474,0.091583,0.005964,0.005607
3475,-0.001113,0.024037,0.005607
3476,-0.001113,0.024037,-0.012473
3477,-0.001113,-0.01211,0.005607
3478,-0.019652,0.024037,0.005607
3479,-0.001113,0.024037,-0.030552
3480,0.091583,0.005964,-0.012473
3481,-0.001113,0.005964,-0.030552
3482,-0.019652,0.005964,0.023687
3483,-0.001113,0.005964,0.041767
3484,-0.001113,0.024037,0.023687
3485,-0.001113,0.005964,0.005607
3486,-0.019652,0.005964,-0.012473
3487,-0.019652,0.005964,-0.012473
3488,-0.019652,0.005964,-0.012473
3489,-0.038191,0.005964,-0.012473
3490,-0.019652,0.005964,-0.012473
3491,-0.001113,0.005964,-0.012473
3492,0.017426,0.024037,-0.030552
3493,0.035965,-0.01211,-0.012473
3494,-0.019652,-0.01211,0.005607
3495,-0.019652,0.005964,-0.012473
3496,0.017426,0.005964,0.023687
3497,-0.019652,0.005964,-0.012473
3498,-0.001113,0.024037,0.023687
3499,-0.019652,0.024037,0.023687
3500,0.017426,0.005964,0.023687
3501,-0.019652,0.005964,0.041767
3502,-0.019652,0.005964,0.005607
3503,-0.019652,-0.01211,0.023687
3504,0.017426,0.024037,0.023687
3505,-0.001113,-0.01211,0.005607
3506,0.017426,0.005964,0.005607
3507,-0.019652,-0.030183,0.005607
3508,0.017426,0.024037,-0.012473
3509,-0.019652,0.024037,-0.012473
3510,0.017426,0.005964,-0.030552
3511,-0.001113,0.005964,-0.030552
3512,-0.001113,0.005964,-0.030552
3513,0.017426,0.024037,-0.012473
3514,-0.001113,0.005964,-0.012473
3515,-0.001113,0.005964,0.023687
3516,-0.019652,0.024037,0.023687
3517,-0.019652,0.005964,0.005607
3518,-0.001113,0.005964,-0.012473
3519,0.017426,0.005964,-0.012473
3520,-0.019652,-0.01211,0.005607
3521,0.017426,-0.01211,-0.012473
3522,-0.001113,0.005964,-0.030552
3523,-0.001113,0.005964,-0.030552
3524,0.017426,0.005964,-0.030552
3525,0.017426,0.024037,0.005607
3526,-0.038191,0.005964,0.005607
3527,0.017426,0.005964,0.005607
3528,-0.001113,-0.01211,0.005607
3529,-0.001113,0.005964,0.005607
3530,0.017426,0.024037,0.023687
3531,-0.001113,0.005964,0.023687
3532,-0.001113,0.005964,0.023687
3533,-0.019652,0.005964,0.023687
3534,-0.001113,-0.01211,0.023687
3535,-0.001113,-0.01211,0.005607
3536,-0.001113,-0.030183,-0.012473
3537,-0.001113,0.005964,-0.012473
3538,-0.001113,0.005964,-0.012473
3539,-0.001113,0.005964,-0.012473
3540,-0.019652,0.005964,-0.012473
3541,-0.001113,-0.01211,-0.030552
3542,-0.019652,0.024037,-0.030552
3543,-0.019652,0.005964,-0.030552
3544,0.017426,0.005964,0.005607
3545,-0.019652,-0.01211,0.005607
3546,0.017426,-0.01211,-0.012473
3547,-0.019652,0.005964,0.005607
3548,-0.019652,0.005964,0.005607
3549,-0.001113,-0.01211,-0.012473
3550,-0.019652,0.005964,0.005607
3551,-0.019652,0.005964,0.005607
3552,0.017426,0.005964,-0.012473
3553,-0.019652,0.005964,-0.012473
3554,-0.001113,-0.01211,-0.030552
3555,-0.001113,-0.01211,-0.030552
3556,0.017426,0.005964,-0.012473
3557,-0.001113,0.005964,0.005607
3558,-0.019652,0.005964,0.005607
3559,-0.001113,0.005964,0.005607
3560,-0.019652,0.005964,0.005607
3561,0.017426,0.005964,0.023687
3562,-0.001113,0.005964,0.023687
3563,-0.019652,0.005964,0.023687
3564,-0.001113,0.005964,0.023687
3565,-0.001113,-0.01211,0.041767
3566,-0.001113,0.005964,0.023687
3567,-0.001113,0.005964,0.023687
3568,-0.038191,0.005964,0.005607
3569,-0.001113,0.024037,0.023687
3570,-0.001113,0.024037,0.005607
3571,-0.019652,-0.01211,-0.030552
3572,-0.019652,0.005964,-0.012473
3573,-0.001113,0.005964,-0.048632
3574,-0.038191,0.024037,-0.012473
3575,-0.001113,0.005964,-0.012473
3576,-0.001113,0.005964,-0.012473
3577,-0.001113,-0.01211,-0.012473
3578,-0.001113,0.005964,0.005607
3579,0.017426,0.005964,0.005607
3580,-0.001113,0.005964,0.005607
3581,-0.001113,0.005964,0.005607
3582,-0.001113,0.005964,0.023687
3583,-0.001113,0.005964,-0.012473
3584,-0.001113,0.005964,-0.012473
3585,-0.001113,-0.01211,-0.030552
3586,-0.019652,0.005964,-0.030552
3587,-0.001113,-0.01211,0.005607
3588,-0.019652,0.005964,0.005607
3589,0.035965,0.005964,0.005607
3590,-0.019652,0.005964,0.005607
3591,-0.001113,0.005964,0.023687
3592,0.017426,0.005964,0.023687
3593,-0.001113,-0.01211,0.005607
3594,-0.001113,-0.01211,0.023687
3595,-0.001113,-0.01211,0.041767
3596,-0.001113,0.005964,0.041767
3597,0.017426,0.005964,0.023687
3598,-0.001113,-0.01211,0.023687
3599,-0.001113,0.024037,0.023687
3600,-0.019652,0.005964,0.005607
3601,-0.001113,0.005964,-0.012473
3602,-0.001113,0.024037,-0.012473
3603,-0.001113,-0.01211,-0.012473
3604,-0.019652,0.005964,-0.012473
3605,-0.001113,0.005964,-0.030552
3606,-0.019652,-0.01211,-0.030552
3607,-0.001113,0.005964,-0.012473
3608,-0.001113,0.024037,0.005607
3609,-0.001113,0.005964,0.005607
3610,-0.001113,0.005964,-0.012473
3611,-0.001113,0.005964,0.005607
3612,-0.019652,0.005964,0.005607
3613,-0.001113,-0.01211,0.023687
3614,-0.001113,0.005964,-0.012473
3615,-0.001113,0.005964,-0.012473
3616,-0.019652,0.024037,0.005607
3617,0.017426,0.005964,-0.012473
3618,-0.001113,0.005964,-0.030552
3619,-0.001113,0.005964,0.005607
3620,-0.019652,0.005964,0.005607
3621,-0.001113,0.005964,-0.030552
3622,-0.001113,0.005964,0.005607
3623,-0.019652,-0.01211,0.005607
3624,-0.001113,0.005964,0.005607
3625,-0.001113,0.024037,0.005607
3626,-0.001113,0.005964,0.023687
3627,-0.001113,0.005964,0.005607
3628,-0.001113,0.005964,0.023687
3629,0.017426,-0.01211,0.023687
3630,-0.001113,0.005964,0.023687
3631,0.017426,0.005964,0.005607
3632,-0.019652,0.005964,0.005607
3633,0.017426,0.024037,0.005607
3634,0.017426,0.024037,-0.012473
3635,-0.001113,0.005964,-0.030552
3636,-0.019652,0.005964,-0.030552
