# Requested Sampling Rate (Hz):,1000
# Actual Sampling Rate (Hz):,999.811
# Requested Duration (s):,5.0
# Actual Duration (s):,5.046
# REST Calibration:,832.0600347222207,831.6700347222207,832.6898611111126
# MAX Calibration:,886.0000,887.0000,888.0000
# Normalization: MVC-based  (x_norm = (x - REST) / (MAX - REST))
sample_idx,EMG1,EMG2,EMG3
0,-0.001113,0.024037,0.023687
1,-0.001113,0.005964,0.023687
2,-0.001113,0.024037,-0.030552
3,-0.001113,0.005964,0.005607
4,-0.001113,0.005964,0.005607
5,-0.001113,0.024037,-0.012473
6,-0.001113,0.024037,0.005607
7,-0.001113,-0.01211,0.005607
8,-0.001113,0.005964,0.005607
9,-0.019652,0.005964,-0.012473
10,-0.001113,0.005964,-0.012473
11,-0.038191,0.024037,0.005607
12,-0.038191,-0.01211,-0.012473
13,-0.038191,0.005964,-0.030552
14,-0.05673,0.005964,0.023687
15,-0.019652,0.005964,0.005607
16,0.035965,0.005964,0.005607
17,0.073044,0.024037,-0.030552
18,0.054504,0.024037,0.005607
19,-0.001113,-0.030183,0.005607
20,-0.001113,0.005964,-0.012473
21,-0.019652,0.024037,0.005607
22,-0.001113,0.005964,-0.012473
23,-0.001113,0.04211,-0.012473
24,-0.001113,-0.01211,0.023687
25,-0.001113,0.005964,0.023687
26,-0.001113,0.005964,0.041767
27,0.017426,0.024037,0.023687
28,-0.001113,0.005964,0.023687
29,-0.001113,0.024037,0.041767
30,-0.001113,0.024037,-0.012473
31,-0.001113,0.04211,0.023687
32,0.017426,0.005964,0.005607
33,-0.001113,0.005964,0.005607
34,-0.019652,-0.01211,-0.030552
35,-0.019652,0.005964,-0.030552
36,-0.019652,0.005964,-0.012473
37,-0.001113,0.005964,-0.012473
38,-0.001113,0.005964,-0.012473
39,-0.001113,0.024037,-0.012473
40,-0.019652,0.005964,-0.030552
41,0.017426,-0.01211,-0.012473
42,0.017426,0.005964,0.005607
43,-0.019652,-0.01211,0.005607
44,-0.001113,-0.030183,0.023687
45,-0.001113,0.024037,0.005607
46,-0.001113,0.005964,0.023687
47,-0.038191,0.005964,0.005607
48,-0.001113,0.005964,0.005607
49,-0.001113,0.005964,0.023687
50,0.017426,0.024037,0.005607
51,-0.038191,0.024037,0.005607
52,-0.019652,0.024037,0.005607
53,0.017426,-0.01211,-0.012473
54,-0.019652,0.005964,-0.030552
55,-0.019652,0.005964,-0.012473
56,-0.001113,0.024037,-0.012473
57,-0.001113,0.005964,-0.030552
58,-0.019652,0.005964,-0.012473
59,-0.019652,0.005964,0.023687
60,-0.019652,0.005964,-0.012473
61,-0.001113,0.005964,0.005607
62,-0.001113,-0.01211,0.023687
63,-0.001113,0.024037,0.041767
64,0.017426,0.005964,0.005607
65,0.017426,0.005964,0.023687
66,0.017426,0.024037,0.023687
67,0.017426,0.005964,-0.012473
68,-0.001113,0.005964,-0.012473
69,0.017426,0.005964,0.023687
70,-0.001113,0.005964,-0.012473
71,-0.038191,0.005964,-0.030552
72,-0.001113,0.005964,0.005607
73,-0.001113,0.024037,0.023687
74,-0.038191,0.024037,-0.012473
75,-0.001113,0.005964,0.023687
76,-0.001113,0.005964,0.005607
77,-0.019652,-0.01211,0.023687
78,0.017426,0.005964,-0.012473
79,-0.019652,0.005964,0.005607
80,-0.001113,0.005964,0.023687
81,0.017426,0.005964,-0.012473
82,-0.001113,0.024037,0.005607
83,-0.001113,0.005964,0.005607
84,-0.001113,0.005964,-0.012473
85,-0.019652,0.005964,-0.030552
86,-0.001113,-0.01211,-0.012473
87,-0.001113,0.005964,0.005607
88,-0.001113,0.024037,0.005607
89,-0.001113,0.005964,-0.012473
90,-0.001113,0.005964,0.005607
91,-0.019652,0.005964,0.005607
92,0.017426,0.005964,-0.012473
93,-0.001113,0.024037,0.005607
94,-0.001113,0.005964,0.005607
95,-0.001113,0.005964,0.005607
96,-0.019652,0.005964,0.005607
97,-0.019652,0.005964,0.005607
98,-0.019652,0.005964,0.041767
99,-0.001113,0.005964,0.023687
100,0.017426,0.005964,0.023687
101,-0.001113,0.005964,0.023687
102,-0.001113,0.024037,0.023687
103,0.017426,0.005964,0.005607
104,-0.019652,0.005964,0.005607
105,0.017426,0.024037,0.005607
106,-0.001113,0.005964,-0.012473
107,-0.001113,0.005964,-0.030552
108,-0.001113,0.005964,-0.012473
109,-0.001113,0.005964,-0.030552
110,-0.019652,0.005964,-0.030552
111,-0.001113,0.005964,-0.012473
112,-0.001113,0.005964,0.023687
113,-0.001113,0.005964,-0.012473
114,-0.001113,-0.01211,0.005607
115,-0.019652,0.024037,0.005607
116,0.017426,-0.01211,0.023687
117,-0.001113,0.005964,0.005607
118,-0.001113,0.005964,0.005607
119,-0.001113,0.005964,0.023687
120,-0.001113,0.005964,0.005607
121,-0.001113,0.024037,-0.012473
122,-0.001113,0.005964,0.023687
123,-0.019652,-0.01211,-0.012473
124,-0.001113,0.005964,-0.030552
125,-0.001113,0.005964,-0.030552
126,-0.001113,0.005964,0.005607
127,-0.019652,0.005964,-0.012473
128,0.017426,-0.01211,-0.030552
129,-0.019652,0.005964,0.005607
130,-0.001113,0.005964,0.005607
131,-0.001113,0.005964,-0.030552
132,-0.019652,0.005964,-0.012473
133,0.017426,0.024037,0.023687
134,-0.001113,0.005964,0.041767
135,-0.001113,0.005964,0.023687
136,-0.001113,0.005964,0.005607
137,-0.001113,0.005964,0.023687
138,-0.019652,0.005964,0.005607
139,-0.019652,0.005964,0.005607
140,-0.038191,0.005964,0.005607
141,-0.038191,0.024037,0.023687
142,-0.038191,0.005964,0.005607
143,-0.05673,0.005964,-0.030552
144,-0.05673,-0.030183,-0.012473
145,0.017426,0.005964,-0.030552
146,0.054504,0.005964,-0.030552
147,0.054504,0.005964,-0.012473
148,0.017426,-0.01211,-0.030552
149,0.017426,0.024037,-0.030552
150,-0.001113,0.005964,0.005607
151,-0.019652,0.005964,0.023687
152,-0.019652,0.005964,0.023687
153,-0.001113,0.005964,0.023687
154,-0.001113,0.005964,0.059847
155,0.035965,0.024037,0.041767
156,-0.001113,0.005964,0.005607
157,-0.001113,0.005964,0.005607
158,-0.001113,0.024037,0.005607
159,-0.019652,0.005964,-0.012473
160,-0.019652,-0.01211,-0.030552
161,-0.001113,0.024037,-0.030552
162,0.017426,-0.01211,-0.012473
163,-0.019652,0.005964,-0.030552
164,-0.038191,0.005964,-0.012473
165,-0.001113,0.005964,0.023687
166,-0.019652,0.005964,0.005607
167,-0.001113,0.024037,0.005607
168,-0.001113,0.005964,0.005607
169,-0.001113,0.005964,0.023687
170,-0.001113,0.005964,0.005607
171,-0.019652,0.024037,0.023687
172,-0.001113,0.005964,0.023687
173,-0.001113,0.024037,0.023687
174,0.017426,0.005964,0.005607
175,0.017426,0.024037,0.023687
176,-0.001113,0.005964,0.005607
177,-0.019652,0.005964,0.005607
178,-0.019652,-0.01211,-0.030552
179,-0.001113,0.005964,-0.012473
180,-0.019652,0.005964,-0.030552
181,0.017426,-0.01211,-0.012473
182,-0.019652,0.005964,-0.012473
183,-0.019652,0.005964,0.005607
184,-0.038191,0.024037,-0.030552
185,-0.001113,0.024037,-0.012473
186,-0.019652,0.005964,0.023687
187,-0.001113,0.005964,0.023687
188,-0.019652,0.005964,0.005607
189,-0.001113,0.005964,0.023687
190,-0.001113,0.024037,0.041767
191,-0.001113,0.005964,0.023687
192,0.017426,0.005964,0.023687
193,-0.019652,0.024037,0.041767
194,-0.001113,0.024037,0.023687
195,-0.019652,0.005964,-0.012473
196,-0.001113,-0.01211,-0.030552
197,-0.001113,-0.01211,0.005607
198,-0.001113,0.005964,-0.012473
199,-0.019652,0.005964,-0.030552
200,-0.019652,-0.01211,-0.030552
201,-0.019652,0.024037,-0.030552
202,0.017426,0.005964,-0.012473
203,-0.001113,0.005964,0.023687
204,0.017426,0.005964,0.005607
205,-0.001113,0.024037,0.041767
206,-0.038191,0.005964,0.023687
207,-0.001113,0.005964,0.005607
208,-0.019652,0.005964,0.023687
209,-0.001113,0.005964,0.023687
210,-0.001113,0.005964,0.023687
211,-0.001113,0.005964,0.023687
212,-0.001113,0.005964,0.023687
213,-0.001113,0.024037,0.005607
214,-0.001113,0.005964,0.059847
215,-0.001113,0.005964,0.023687
216,-0.001113,0.005964,0.005607
217,-0.001113,0.024037,0.005607
218,-0.019652,0.005964,0.023687
219,0.017426,0.005964,-0.012473
220,-0.019652,0.005964,-0.012473
221,-0.019652,-0.01211,-0.012473
222,-0.001113,0.005964,0.005607
223,-0.019652,0.005964,-0.030552
224,-0.019652,0.005964,0.005607
225,-0.019652,0.024037,0.005607
226,-0.038191,-0.01211,0.005607
227,-0.019652,-0.01211,0.005607
228,0.017426,-0.01211,0.005607
229,0.054504,0.005964,0.023687
230,0.054504,0.005964,0.023687
231,0.017426,0.005964,0.005607
232,0.017426,0.024037,0.077927
233,-0.001113,0.024037,0.023687
234,0.035965,0.005964,-0.012473
235,-0.001113,0.005964,-0.012473
236,-0.001113,0.005964,0.005607
237,-0.019652,0.005964,-0.012473
238,-0.001113,-0.01211,-0.030552
239,-0.019652,0.024037,-0.012473
240,-0.001113,0.024037,0.023687
241,-0.019652,0.024037,-0.012473
242,-0.001113,0.024037,-0.012473
243,-0.001113,0.005964,0.005607
244,-0.019652,-0.01211,0.023687
245,0.017426,0.005964,0.005607
246,-0.019652,0.005964,0.005607
247,-0.019652,0.005964,0.023687
248,-0.019652,0.024037,0.023687
249,0.017426,0.005964,0.005607
250,-0.001113,0.005964,0.023687
251,0.017426,0.024037,0.023687
252,-0.001113,0.005964,-0.012473
253,-0.001113,-0.01211,-0.030552
254,-0.001113,0.005964,0.005607
255,-0.001113,-0.01211,-0.012473
256,-0.001113,-0.01211,-0.030552
257,-0.001113,0.005964,-0.030552
258,-0.001113,0.005964,0.005607
259,-0.001113,0.024037,-0.012473
260,-0.019652,0.005964,0.005607
261,-0.001113,0.005964,0.023687
262,-0.001113,0.024037,0.041767
263,-0.001113,0.005964,0.005607
264,-0.001113,0.024037,0.023687
265,-0.001113,0.005964,0.023687
266,-0.019652,0.005964,0.023687
267,0.017426,0.024037,0.005607
268,-0.019652,0.005964,0.023687
269,-0.001113,0.005964,0.005607
270,-0.001113,0.024037,0.005607
271,-0.001113,0.024037,-0.030552
272,-0.001113,0.005964,0.005607
273,-0.019652,0.005964,-0.012473
274,-0.001113,0.024037,0.005607
275,-0.001113,0.005964,-0.030552
276,0.017426,-0.01211,0.005607
277,0.017426,0.005964,-0.012473
278,-0.019652,0.005964,-0.030552
279,-0.001113,0.005964,0.005607
280,-0.001113,0.005964,-0.012473
281,-0.019652,0.005964,0.005607
282,-0.019652,-0.01211,0.023687
283,-0.038191,0.024037,0.023687
284,-0.001113,0.024037,0.041767
285,-0.038191,0.04211,0.005607
286,-0.038191,-0.01211,0.023687
287,-0.019652,-0.030183,0.005607
288,0.035965,-0.01211,0.005607
289,0.054504,0.005964,0.005607
290,0.017426,0.005964,0.005607
291,0.017426,0.005964,-0.012473
292,-0.001113,0.096331,-0.030552
293,-0.001113,0.005964,-0.048632
294,-0.001113,0.024037,-0.012473
295,-0.001113,0.005964,0.005607
296,-0.019652,0.005964,-0.030552
297,-0.001113,0.005964,0.005607
298,-0.001113,-0.01211,-0.012473
299,-0.019652,0.005964,-0.012473
300,-0.001113,0.024037,0.005607
301,0.017426,0.005964,0.005607
302,-0.019652,0.005964,0.005607
303,0.017426,0.024037,-0.012473
304,-0.019652,0.005964,0.023687
305,0.017426,0.005964,0.041767
306,-0.019652,0.04211,0.005607
307,-0.001113,0.024037,0.005607
308,-0.038191,0.005964,0.023687
309,-0.001113,0.005964,0.023687
310,-0.019652,0.024037,-0.012473
311,0.017426,-0.01211,0.005607
312,-0.019652,-0.01211,-0.012473
313,-0.001113,0.005964,-0.012473
314,-0.001113,0.005964,-0.012473
315,-0.001113,0.005964,-0.012473
316,-0.001113,0.005964,-0.030552
317,-0.001113,0.005964,-0.030552
318,-0.001113,0.005964,-0.012473
319,-0.001113,0.005964,0.005607
320,0.017426,0.005964,-0.030552
321,-0.001113,-0.01211,-0.012473
322,-0.001113,0.005964,0.005607
323,-0.001113,0.005964,0.041767
324,-0.001113,0.005964,0.005607
325,-0.019652,0.005964,0.023687
326,-0.001113,0.005964,0.041767
327,-0.001113,0.024037,0.041767
328,-0.001113,0.005964,0.005607
329,-0.001113,0.024037,0.041767
330,-0.019652,0.005964,0.005607
331,0.035965,0.005964,-0.012473
332,-0.001113,0.005964,-0.012473
333,-0.019652,0.024037,0.005607
334,-0.001113,0.005964,-0.012473
335,-0.001113,0.024037,-0.012473
336,-0.001113,0.005964,0.005607
337,-0.001113,0.005964,0.005607
338,-0.001113,0.024037,-0.012473
339,-0.001113,0.005964,0.005607
340,-0.001113,0.005964,0.005607
341,-0.001113,0.024037,0.005607
342,0.017426,0.005964,0.005607
343,0.017426,0.005964,0.005607
344,-0.001113,0.024037,0.005607
345,-0.001113,0.005964,-0.012473
346,-0.001113,0.005964,-0.012473
347,-0.001113,0.005964,0.023687
348,-0.001113,0.005964,0.023687
349,-0.001113,-0.01211,0.005607
350,-0.038191,0.005964,-0.012473
351,-0.001113,0.005964,0.023687
352,-0.038191,0.024037,0.005607
353,-0.019652,0.005964,-0.012473
354,-0.001113,-0.01211,-0.012473
355,0.054504,-0.01211,-0.048632
356,0.073044,0.024037,-0.030552
357,0.035965,0.005964,0.005607
358,-0.001113,0.005964,-0.012473
359,-0.019652,0.005964,0.005607
360,-0.038191,0.005964,0.005607
361,-0.05673,-0.01211,0.041767
362,-0.019652,0.005964,0.059847
363,-0.019652,0.024037,0.041767
364,-0.001113,0.005964,0.023687
365,-0.001113,0.04211,0.041767
366,-0.001113,0.005964,0.023687
367,-0.019652,0.024037,0.005607
368,-0.001113,0.005964,0.023687
369,-0.019652,0.005964,0.005607
370,-0.019652,0.005964,0.005607
371,-0.001113,-0.01211,-0.030552
372,-0.001113,0.024037,-0.030552
373,-0.019652,-0.01211,-0.012473
374,-0.001113,0.005964,-0.030552
375,-0.001113,0.005964,-0.012473
376,-0.001113,-0.01211,0.023687
377,-0.001113,0.005964,-0.012473
378,-0.038191,0.005964,0.005607
379,0.017426,0.005964,0.023687
380,-0.001113,0.005964,0.041767
381,-0.001113,0.005964,0.005607
382,-0.038191,0.005964,0.023687
383,-0.001113,0.005964,0.005607
384,-0.001113,0.005964,0.023687
385,-0.001113,0.024037,-0.012473
386,0.017426,-0.01211,0.023687
387,-0.001113,0.024037,0.023687
388,-0.001113,0.024037,0.005607
389,-0.001113,0.005964,-0.012473
390,-0.001113,0.005964,0.005607
391,-0.001113,-0.01211,-0.030552
392,-0.019652,0.005964,-0.030552
393,-0.001113,0.005964,-0.012473
394,-0.019652,0.005964,0.005607
395,-0.001113,0.005964,-0.030552
396,-0.001113,0.005964,0.005607
397,-0.001113,0.024037,0.023687
398,-0.019652,0.024037,0.023687
399,-0.019652,0.005964,0.023687
400,0.017426,0.024037,0.005607
401,-0.001113,0.04211,0.023687
402,-0.001113,0.005964,0.005607
403,-0.038191,0.005964,-0.012473
404,-0.019652,0.005964,0.005607
405,-0.001113,0.005964,0.005607
406,-0.001113,0.005964,-0.012473
407,-0.019652,0.005964,-0.012473
408,-0.001113,0.024037,0.005607
409,-0.001113,0.005964,0.005607
410,0.017426,0.024037,-0.012473
411,0.017426,0.005964,0.005607
412,-0.001113,0.005964,0.005607
413,-0.038191,0.005964,0.005607
414,-0.038191,0.024037,0.023687
415,-0.038191,0.024037,0.005607
416,-0.038191,0.005964,0.005607
417,-0.05673,-0.01211,-0.012473
418,0.017426,0.005964,0.023687
419,0.054504,0.005964,0.041767
420,0.054504,0.024037,0.005607
421,0.035965,0.005964,0.041767
422,-0.001113,0.005964,0.023687
423,-0.001113,0.024037,0.005607
424,-0.038191,-0.01211,-0.012473
425,-0.019652,-0.01211,-0.048632
426,-0.038191,0.024037,-0.030552
427,-0.019652,-0.01211,-0.048632
428,-0.019652,-0.01211,-0.012473
429,-0.019652,0.005964,0.005607
430,-0.019652,0.005964,-0.012473
431,-0.019652,0.024037,-0.012473
432,-0.001113,0.005964,0.005607
433,0.017426,-0.01211,0.005607
434,0.017426,0.024037,-0.012473
435,0.035965,0.060184,0.023687
436,-0.001113,0.024037,0.041767
437,0.017426,0.005964,0.005607
438,-0.019652,0.024037,0.005607
439,-0.001113,0.005964,0.005607
440,0.017426,0.005964,0.005607
441,-0.001113,0.005964,-0.030552
442,-0.001113,0.005964,-0.030552
443,-0.001113,0.024037,-0.012473
444,-0.001113,0.005964,0.005607
445,-0.001113,0.005964,0.005607
446,-0.038191,0.005964,-0.030552
447,-0.001113,0.005964,-0.012473
448,-0.001113,0.005964,-0.012473
449,-0.038191,-0.01211,0.005607
450,-0.019652,0.024037,0.005607
451,-0.001113,0.005964,0.041767
452,-0.001113,0.024037,0.005607
453,-0.001113,0.005964,0.023687
454,0.017426,0.005964,0.023687
455,0.017426,-0.01211,0.023687
456,0.017426,0.005964,0.023687
457,-0.001113,0.005964,0.041767
458,-0.019652,0.005964,0.041767
459,-0.038191,0.005964,0.023687
460,-0.038191,0.005964,-0.012473
461,-0.05673,0.005964,0.005607
462,-0.019652,0.005964,-0.012473
463,-0.019652,0.005964,-0.048632
464,-0.019652,0.005964,-0.012473
465,-0.038191,0.005964,-0.012473
466,-0.019652,0.024037,-0.030552
467,-0.05673,-0.01211,-0.012473
468,-0.019652,-0.01211,0.005607
469,0.035965,0.005964,0.023687
470,0.091583,0.024037,-0.012473
471,0.091583,0.024037,0.005607
472,0.035965,0.024037,0.023687
473,0.017426,0.005964,0.005607
474,-0.019652,0.005964,0.023687
475,-0.019652,-0.01211,0.023687
476,-0.038191,0.005964,-0.012473
477,-0.019652,0.005964,0.005607
478,0.054504,0.005964,0.023687
479,-0.001113,0.005964,0.023687
480,-0.001113,0.005964,-0.012473
481,-0.001113,0.005964,-0.030552
482,-0.019652,0.005964,0.005607
483,-0.019652,0.005964,-0.012473
484,-0.019652,0.024037,0.005607
485,-0.001113,0.005964,0.005607
486,-0.001113,0.005964,0.023687
487,-0.001113,0.005964,-0.012473
488,-0.019652,0.005964,-0.030552
489,-0.019652,0.005964,0.005607
490,-0.019652,-0.01211,0.023687
491,-0.019652,-0.01211,-0.012473
492,-0.001113,0.005964,0.023687
493,-0.019652,0.005964,0.023687
494,-0.038191,-0.01211,-0.012473
495,-0.001113,-0.01211,-0.012473
496,-0.001113,0.005964,0.023687
497,-0.019652,0.005964,0.005607
498,-0.001113,0.024037,0.005607
499,-0.019652,0.005964,0.005607
500,-0.019652,-0.01211,0.005607
501,-0.001113,0.005964,-0.030552
502,-0.001113,-0.01211,-0.048632
503,-0.001113,0.005964,-0.012473
504,-0.001113,0.005964,0.005607
505,-0.001113,0.005964,-0.012473
506,0.017426,0.024037,-0.012473
507,-0.019652,0.005964,-0.030552
508,-0.001113,0.005964,0.005607
509,-0.001113,0.005964,0.005607
510,-0.019652,0.024037,0.023687
511,-0.019652,0.005964,0.023687
512,-0.038191,0.024037,0.023687
513,-0.001113,0.024037,0.023687
514,-0.001113,0.005964,0.041767
515,-0.001113,0.005964,0.023687
516,-0.019652,0.04211,0.005607
517,-0.019652,0.024037,0.005607
518,-0.001113,0.005964,0.005607
519,-0.001113,0.005964,-0.030552
520,-0.001113,-0.01211,-0.012473
521,-0.019652,0.005964,-0.030552
522,-0.001113,0.005964,-0.066712
523,-0.019652,-0.01211,-0.030552
524,-0.019652,0.005964,0.005607
525,-0.019652,0.005964,0.005607
526,-0.038191,0.024037,-0.012473
527,-0.038191,0.005964,0.005607
528,-0.05673,-0.01211,0.023687
529,-0.05673,0.005964,0.005607
530,-0.001113,0.005964,0.023687
531,0.073044,0.005964,0.059847
532,0.054504,0.005964,0.041767
533,0.017426,0.005964,0.005607
534,0.054504,-0.01211,0.005607
535,0.054504,0.024037,0.005607
536,0.017426,0.005964,0.005607
537,0.035965,0.005964,-0.030552
538,0.091583,0.024037,-0.012473
539,0.073044,0.005964,0.005607
540,0.091583,0.04211,-0.030552
541,0.073044,0.024037,0.005607
542,0.054504,0.024037,0.023687
543,0.035965,0.024037,0.023687
544,-0.038191,0.024037,-0.012473
545,-0.093809,-0.01211,0.005607
546,-0.167965,0.005964,0.005607
547,-0.093809,0.005964,-0.012473
548,-0.038191,0.024037,-0.012473
549,-0.019652,0.005964,0.005607
550,-0.038191,0.005964,-0.012473
551,-0.019652,0.024037,-0.048632
552,-0.019652,0.005964,-0.030552
553,-0.019652,-0.01211,0.005607
554,-0.038191,0.005964,0.005607
555,-0.001113,0.005964,-0.012473
556,-0.001113,0.024037,0.005607
557,-0.001113,0.005964,0.023687
558,-0.001113,0.005964,0.005607
559,-0.001113,0.024037,0.023687
560,0.017426,0.024037,0.041767
561,0.017426,0.024037,0.041767
562,-0.001113,0.024037,0.023687
563,-0.019652,-0.01211,0.005607
564,0.017426,-0.01211,0.023687
565,-0.019652,0.005964,0.005607
566,-0.019652,0.024037,0.023687
567,0.054504,0.024037,0.023687
568,0.054504,0.024037,-0.012473
569,-0.001113,0.005964,-0.030552
570,0.017426,0.024037,-0.030552
571,0.035965,0.005964,-0.030552
572,-0.038191,-0.01211,-0.066712
573,-0.019652,-0.01211,-0.030552
574,-0.001113,0.005964,-0.012473
575,-0.001113,0.005964,-0.030552
576,-0.019652,0.024037,-0.012473
577,-0.019652,0.005964,0.005607
578,0.128661,0.024037,0.005607
579,0.1472,0.04211,0.005607
580,0.091583,0.005964,0.005607
581,0.091583,0.005964,0.023687
582,0.1472,0.024037,0.005607
583,0.128661,0.005964,0.005607
584,-0.019652,0.024037,0.023687
585,-0.242122,-0.01211,-0.012473
586,-0.167965,0.005964,-0.012473
587,-0.093809,-0.01211,-0.012473
588,-0.07527,-0.01211,0.023687
589,-0.05673,0.024037,0.005607
590,-0.05673,0.024037,-0.012473
591,-0.019652,0.024037,0.023687
592,-0.019652,0.024037,0.023687
593,-0.038191,0.005964,-0.012473
594,-0.038191,0.005964,0.005607
595,-0.019652,0.024037,0.023687
596,-0.019652,0.005964,0.023687
597,0.017426,0.005964,0.023687
598,-0.019652,0.005964,0.041767
599,-0.001113,0.024037,0.005607
600,-0.001113,-0.01211,-0.012473
601,-0.019652,-0.01211,-0.012473
602,-0.001113,0.005964,0.005607
603,-0.001113,-0.01211,0.005607
604,-0.001113,0.024037,-0.012473
605,0.017426,0.005964,-0.012473
606,-0.001113,0.005964,0.005607
607,-0.019652,0.024037,-0.012473
608,-0.001113,0.024037,0.005607
609,-0.019652,0.005964,0.005607
610,-0.001113,0.024037,-0.030552
611,-0.001113,0.005964,-0.030552
612,0.017426,-0.01211,0.005607
613,0.017426,0.005964,0.023687
614,-0.001113,0.005964,0.005607
615,-0.019652,0.005964,0.023687
616,-0.038191,0.005964,0.023687
617,-0.05673,0.005964,-0.012473
618,-0.07527,0.005964,0.005607
619,-0.093809,0.005964,0.023687
620,-0.093809,-0.01211,0.023687
621,-0.001113,0.005964,0.005607
622,0.073044,0.024037,0.005607
623,0.110122,0.005964,0.005607
624,0.054504,0.024037,-0.030552
625,0.035965,0.005964,-0.030552
626,0.017426,0.005964,0.005607
627,0.035965,0.024037,0.005607
628,0.017426,0.024037,-0.012473
629,0.035965,0.024037,0.005607
630,0.017426,0.024037,0.023687
631,0.017426,0.024037,-0.012473
632,0.017426,0.005964,0.005607
633,0.017426,0.005964,0.023687
634,-0.019652,0.005964,0.023687
635,-0.001113,0.005964,0.005607
636,-0.019652,0.005964,-0.012473
637,0.017426,0.005964,0.005607
638,-0.019652,0.024037,0.005607
639,-0.001113,0.024037,0.005607
640,0.017426,0.005964,-0.012473
641,0.017426,0.024037,0.005607
642,0.017426,0.005964,0.005607
643,0.017426,-0.01211,0.005607
644,-0.001113,0.005964,0.005607
645,-0.019652,0.005964,0.023687
646,-0.001113,0.005964,0.005607
647,-0.001113,0.005964,0.023687
648,0.017426,0.005964,0.023687
649,-0.019652,0.024037,-0.012473
650,-0.001113,0.005964,0.005607
651,0.017426,0.005964,0.023687
652,0.054504,0.024037,0.041767
653,0.054504,0.005964,0.005607
654,0.073044,0.024037,0.005607
655,0.017426,0.005964,-0.012473
656,0.035965,0.024037,0.005607
657,0.017426,0.005964,-0.012473
658,0.017426,0.005964,-0.048632
659,-0.093809,-0.030183,-0.048632
660,-0.130887,-0.030183,-0.048632
661,-0.07527,-0.01211,-0.030552
662,-0.038191,0.024037,0.005607
663,0.035965,0.024037,-0.030552
664,-0.038191,0.005964,-0.012473
665,-0.038191,0.005964,0.005607
666,0.017426,0.04211,0.023687
667,0.035965,0.04211,0.005607
668,0.035965,0.024037,0.023687
669,-0.019652,0.005964,0.041767
670,0.054504,-0.01211,0.005607
671,0.165739,0.005964,0.005607
672,0.128661,-0.01211,0.041767
673,0.091583,0.005964,0.041767
674,0.054504,0.024037,0.005607
675,0.017426,0.024037,0.005607
676,-0.05673,0.005964,0.023687
677,-0.205043,0.005964,0.023687
678,-0.112348,0.024037,-0.012473
679,-0.019652,0.024037,0.005607
680,-0.019652,0.04211,0.005607
681,-0.001113,0.024037,-0.012473
682,-0.07527,0.024037,-0.012473
683,-0.093809,0.005964,-0.012473
684,-0.112348,0.024037,0.005607
685,-0.05673,0.024037,-0.012473
686,0.054504,0.04211,-0.012473
687,0.091583,0.04211,0.041767
688,0.110122,0.024037,0.005607
689,0.091583,0.005964,0.005607
690,0.054504,-0.01211,0.023687
691,-0.07527,-0.030183,-0.012473
692,-0.186504,-0.030183,0.005607
693,-0.019652,-0.01211,0.005607
694,0.017426,0.005964,0.005607
695,-0.038191,-0.01211,-0.012473
696,-0.038191,0.005964,-0.030552
697,-0.05673,0.005964,0.005607
698,-0.112348,-0.030183,-0.030552
699,-0.112348,-0.01211,-0.030552
700,-0.038191,0.005964,-0.012473
701,-0.038191,0.005964,0.005607
702,-0.001113,0.024037,0.023687
703,0.017426,0.024037,0.005607
704,0.054504,0.024037,0.023687
705,0.054504,0.024037,0.023687
706,0.017426,0.024037,0.005607
707,0.054504,0.04211,0.023687
708,0.017426,0.005964,0.023687
709,-0.001113,0.005964,0.005607
710,-0.038191,-0.01211,-0.012473
711,0.054504,0.005964,0.005607
712,0.054504,0.024037,0.005607
713,0.165739,0.060184,-0.012473
714,0.110122,0.04211,-0.030552
715,0.091583,0.024037,-0.012473
716,-0.001113,-0.01211,-0.030552
717,-0.05673,-0.030183,-0.048632
718,-0.05673,-0.01211,0.005607
719,-0.130887,0.005964,0.023687
720,-0.130887,0.005964,-0.012473
721,-0.07527,0.005964,0.005607
722,-0.07527,0.024037,0.023687
723,-0.001113,0.024037,0.041767
724,-0.019652,0.024037,0.005607
725,-0.05673,-0.01211,0.023687
726,-0.019652,0.005964,0.023687
727,-0.001113,0.005964,0.005607
728,-0.019652,0.005964,0.005607
729,-0.019652,0.005964,0.005607
730,-0.001113,0.005964,-0.012473
731,0.017426,0.005964,-0.030552
732,0.035965,0.024037,-0.066712
733,0.017426,0.024037,-0.012473
734,-0.001113,0.005964,-0.030552
735,-0.038191,0.005964,-0.012473
736,-0.001113,0.005964,0.005607
737,-0.019652,0.024037,0.041767
738,-0.019652,0.005964,0.059847
739,-0.019652,0.024037,0.023687
740,-0.001113,0.024037,0.041767
741,-0.001113,0.024037,0.041767
742,-0.001113,0.024037,0.041767
743,-0.001113,0.005964,0.041767
744,-0.038191,0.005964,0.023687
745,0.054504,0.005964,0.023687
746,0.110122,0.024037,0.005607
747,0.091583,0.024037,0.023687
748,0.221357,0.024037,-0.012473
749,0.221357,0.024037,-0.012473
750,0.128661,0.024037,-0.012473
751,-0.019652,0.024037,0.005607
752,-0.130887,-0.01211,-0.030552
753,-0.130887,0.005964,-0.012473
754,-0.130887,0.005964,0.023687
755,0.017426,0.024037,0.005607
756,0.054504,0.005964,-0.012473
757,-0.038191,-0.01211,0.005607
758,-0.130887,-0.048257,0.023687
759,-0.205043,-0.048257,-0.030552
760,-0.186504,-0.048257,0.005607
761,-0.167965,-0.06633,0.005607
762,-0.112348,-0.030183,0.005607
763,0.017426,-0.01211,-0.030552
764,0.128661,0.005964,0.023687
765,0.128661,0.024037,0.005607
766,0.110122,0.04211,0.005607
767,0.035965,0.060184,-0.030552
768,-0.038191,0.096331,0.005607
769,0.110122,0.078257,0.005607
770,0.091583,0.060184,-0.012473
771,0.073044,0.04211,-0.012473
772,0.035965,0.024037,-0.012473
773,-0.019652,-0.01211,-0.030552
774,-0.038191,0.005964,-0.012473
775,-0.001113,0.024037,-0.012473
776,-0.093809,0.024037,0.005607
777,-0.093809,0.024037,-0.012473
778,-0.05673,0.005964,0.041767
779,-0.038191,-0.01211,0.041767
780,-0.07527,-0.030183,0.005607
781,-0.019652,-0.01211,-0.012473
782,0.017426,0.024037,0.005607
783,0.091583,0.04211,0.005607
784,0.035965,0.024037,0.005607
785,0.017426,0.024037,-0.012473
786,-0.019652,0.005964,-0.012473
787,-0.019652,0.005964,-0.030552
788,0.035965,0.005964,-0.030552
789,0.091583,0.005964,-0.030552
790,0.073044,0.005964,-0.048632
791,-0.001113,-0.01211,-0.012473
792,-0.093809,-0.01211,0.005607
793,-0.130887,-0.030183,0.023687
794,-0.167965,-0.06633,0.005607
795,-0.112348,-0.06633,0.005607
796,-0.019652,-0.01211,0.041767
797,-0.05673,-0.01211,0.023687
798,-0.019652,-0.01211,0.005607
799,0.054504,0.005964,0.041767
800,0.073044,0.024037,0.023687
801,0.073044,0.024037,0.005607
802,-0.001113,0.024037,0.005607
803,0.035965,0.04211,0.023687
804,0.239896,0.024037,-0.012473
805,0.258435,0.024037,-0.066712
806,0.184278,0.005964,-0.012473
807,0.184278,0.024037,-0.012473
808,0.035965,0.024037,-0.030552
809,-0.260661,0.005964,-0.012473
810,-0.242122,0.024037,0.023687
811,-0.130887,0.024037,0.005607
812,-0.07527,0.005964,0.023687
813,-0.05673,0.024037,0.023687
814,-0.05673,0.04211,0.023687
815,0.017426,0.04211,0.005607
816,0.017426,0.005964,-0.030552
817,0.017426,0.005964,0.005607
818,-0.001113,0.024037,0.005607
819,-0.093809,0.024037,0.005607
820,-0.001113,0.024037,-0.048632
821,-0.001113,0.005964,0.005607
822,0.017426,-0.01211,-0.030552
823,0.035965,0.005964,-0.048632
824,0.054504,0.005964,0.005607
825,-0.038191,0.024037,0.023687
826,-0.130887,0.024037,-0.012473
827,0.017426,0.024037,0.023687
828,0.017426,0.024037,0.023687
829,-0.05673,0.005964,0.041767
830,-0.07527,-0.01211,0.023687
831,-0.07527,0.005964,0.041767
832,-0.019652,-0.01211,0.023687
833,0.017426,0.04211,0.023687
834,0.017426,0.005964,0.005607
835,-0.07527,-0.030183,0.005607
836,-0.07527,-0.01211,-0.012473
837,-0.05673,-0.030183,-0.012473
838,-0.019652,-0.01211,-0.030552
839,0.073044,0.005964,-0.030552
840,0.017426,0.005964,-0.030552
841,0.054504,0.024037,0.005607
842,0.091583,0.005964,0.005607
843,0.035965,-0.01211,-0.030552
844,-0.019652,-0.01211,-0.012473
845,-0.001113,-0.030183,0.005607
846,-0.07527,-0.048257,0.005607
847,-0.112348,-0.030183,0.023687
848,-0.038191,0.005964,0.005607
849,-0.019652,0.024037,0.023687
850,-0.001113,0.04211,0.005607
851,0.017426,0.005964,0.005607
852,-0.001113,0.04211,0.023687
853,-0.038191,0.024037,0.023687
854,-0.001113,0.04211,0.005607
855,0.035965,0.04211,-0.012473
856,0.239896,0.04211,0.005607
857,0.258435,0.005964,-0.012473
858,0.258435,0.024037,-0.012473
859,0.165739,0.005964,0.005607
860,-0.07527,-0.01211,0.005607
861,-0.260661,-0.01211,-0.012473
862,-0.038191,-0.01211,0.005607
863,-0.05673,-0.048257,0.005607
864,-0.07527,-0.01211,0.023687
865,-0.130887,0.005964,-0.030552
866,-0.07527,0.024037,-0.012473
867,-0.05673,0.024037,0.005607
868,0.035965,0.024037,-0.012473
869,0.091583,0.04211,-0.048632
870,0.091583,0.024037,-0.012473
871,0.054504,0.005964,-0.030552
872,-0.019652,0.005964,-0.030552
873,-0.093809,-0.01211,-0.048632
874,-0.07527,0.005964,0.005607
875,-0.038191,0.024037,-0.012473
876,-0.05673,0.005964,-0.012473
877,-0.019652,0.005964,0.005607
878,-0.019652,0.005964,0.005607
879,0.017426,0.04211,0.005607
880,0.110122,0.060184,0.041767
881,0.276974,0.060184,0.041767
882,0.36967,0.04211,0.059847
883,0.35113,0.04211,0.041767
884,0.239896,0.060184,0.077927
885,0.091583,0.005964,0.077927
886,-0.353356,-0.102477,0.041767
887,-0.520209,-0.084403,0.059847
888,-0.446052,-0.06633,0.059847
889,-0.297739,-0.06633,0.005607
890,-0.167965,-0.048257,-0.012473
891,-0.093809,-0.048257,-0.030552
892,-0.093809,0.024037,-0.030552
893,-0.019652,0.024037,-0.012473
894,0.035965,0.024037,-0.012473
895,0.1472,0.04211,-0.012473
896,0.165739,0.060184,-0.030552
897,0.1472,0.005964,-0.012473
898,0.073044,0.024037,0.005607
899,-0.019652,0.04211,0.023687
900,-0.038191,0.060184,0.041767
901,-0.05673,0.04211,0.023687
902,-0.038191,0.005964,0.041767
903,-0.038191,-0.01211,0.005607
904,-0.038191,0.005964,0.005607
905,-0.093809,0.005964,0.041767
906,0.128661,-0.030183,-0.012473
907,0.239896,0.005964,-0.048632
908,0.332591,0.096331,-0.030552
909,0.276974,0.078257,0.005607
910,0.054504,0.060184,-0.012473
911,-0.260661,0.005964,-0.030552
912,-0.186504,-0.048257,-0.012473
913,-0.205043,-0.102477,0.023687
914,-0.446052,-0.084403,-0.030552
915,-0.316278,-0.06633,-0.030552
916,-0.019652,-0.01211,0.005607
917,0.332591,0.114404,0.023687
918,0.462365,0.096331,-0.012473
919,0.36967,0.060184,-0.012473
920,0.202817,0.060184,0.005607
921,0.017426,0.096331,0.023687
922,-0.205043,0.060184,0.005607
923,-0.186504,0.024037,0.023687
924,-0.186504,0.005964,0.005607
925,-0.130887,0.005964,-0.012473
926,-0.112348,0.005964,-0.012473
927,-0.07527,-0.030183,-0.012473
928,-0.07527,-0.030183,-0.030552
929,0.035965,0.005964,-0.030552
930,0.110122,0.005964,0.023687
931,0.110122,0.005964,0.005607
932,0.073044,0.024037,-0.012473
933,-0.038191,0.024037,-0.012473
934,-0.186504,0.005964,0.005607
935,-0.112348,-0.01211,0.041767
936,-0.05673,0.005964,0.005607
937,-0.038191,0.024037,0.005607
938,-0.001113,0.005964,0.023687
939,-0.019652,0.005964,-0.012473
940,-0.019652,-0.01211,0.023687
941,-0.038191,-0.030183,0.005607
942,-0.001113,0.005964,0.005607
943,-0.038191,-0.01211,0.005607
944,-0.001113,0.005964,-0.012473
945,0.110122,0.005964,0.005607
946,0.184278,0.024037,-0.012473
947,0.239896,0.04211,-0.012473
948,0.165739,0.078257,0.005607
949,0.221357,0.04211,-0.012473
950,0.073044,-0.048257,-0.012473
951,-0.223583,-0.06633,0.005607
952,0.054504,-0.030183,0.023687
953,-0.149426,-0.01211,0.005607
954,-0.334817,0.005964,0.023687
955,-0.167965,0.04211,0.023687
956,-0.130887,-0.01211,-0.012473
957,-0.223583,-0.01211,-0.030552
958,-0.07527,0.024037,0.023687
959,-0.093809,0.005964,-0.012473
960,-0.112348,0.005964,0.005607
961,-0.167965,-0.084403,-0.048632
962,-0.112348,-0.030183,0.041767
963,0.221357,-0.06633,0.005607
964,0.35113,-0.030183,-0.012473
965,0.332591,-0.01211,0.005607
966,0.091583,0.024037,0.005607
967,-0.07527,0.060184,-0.030552
968,-0.019652,0.150551,0.023687
969,0.36967,0.240918,0.041767
970,0.443826,0.150551,0.023687
971,0.35113,0.024037,0.005607
972,0.128661,-0.048257,0.005607
973,-0.205043,-0.138624,0.023687
974,-0.464591,-0.048257,0.041767
975,-0.205043,-0.030183,0.096007
976,-0.093809,-0.138624,0.041767
977,-0.260661,-0.192844,-0.012473
978,-0.167965,-0.06633,-0.012473
979,-0.093809,0.04211,-0.048632
980,0.073044,0.024037,-0.012473
981,0.517983,0.186697,0.005607
982,0.684835,0.222844,-0.012473
983,0.35113,0.132477,0.005607
984,-0.2792,0.078257,-0.030552
985,-0.408974,0.114404,-0.012473
986,-0.297739,0.114404,0.023687
987,0.073044,0.078257,0.041767
988,-0.038191,-0.030183,0.005607
989,0.314052,0.04211,0.005607
990,0.332591,0.132477,0.059847
991,0.443826,0.114404,0.023687
992,0.184278,0.024037,-0.012473
993,-0.205043,-0.01211,0.005607
994,-0.242122,0.060184,-0.012473
995,-0.668522,0.005964,-0.030552
996,-0.2792,0.060184,-0.012473
997,-0.112348,0.060184,-0.012473
998,0.239896,0.024037,0.041767
999,0.443826,-0.030183,0.041767
1000,0.165739,-0.12055,0.023687
1001,-0.130887,-0.247064,-0.030552
1002,-0.538748,-0.247064,-0.102872
1003,-0.390435,-0.138624,-0.048632
1004,-0.297739,-0.030183,-0.012473
1005,-0.05673,0.114404,0.059847
1006,0.035965,0.150551,0.041767
1007,0.073044,0.096331,0.059847
1008,0.035965,0.024037,0.023687
1009,0.017426,0.005964,0.005607
1010,-0.038191,0.024037,0.005607
1011,-0.019652,0.024037,0.041767
1012,-0.112348,-0.048257,0.005607
1013,-0.093809,-0.048257,-0.048632
1014,0.073044,-0.102477,-0.066712
1015,0.239896,0.005964,0.005607
1016,0.592139,0.024037,0.005607
1017,0.406748,-0.01211,-0.030552
1018,0.035965,0.060184,-0.012473
1019,0.110122,0.096331,-0.030552
1020,-0.353356,0.024037,-0.030552
1021,-0.334817,0.005964,0.023687
1022,-0.371896,-0.048257,0.023687
1023,-0.186504,-0.01211,0.041767
1024,-0.167965,0.04211,0.005607
1025,0.017426,0.132477,0.005607
1026,0.091583,0.204771,0.005607
1027,0.184278,0.168624,0.005607
1028,0.295513,0.096331,0.005607
1029,0.295513,0.04211,0.041767
1030,0.017426,0.04211,0.023687
1031,-0.167965,-0.01211,0.023687
1032,-0.07527,-0.030183,-0.012473
1033,0.239896,-0.030183,-0.030552
1034,0.314052,-0.048257,-0.048632
1035,0.128661,-0.048257,-0.030552
1036,-0.2792,-0.102477,-0.012473
1037,-0.390435,-0.138624,0.005607
1038,-0.390435,-0.138624,-0.012473
1039,-0.205043,-0.084403,0.023687
1040,0.035965,0.024037,0.059847
1041,0.258435,-0.01211,0.005607
1042,0.276974,0.04211,0.023687
1043,0.184278,0.005964,0.059847
1044,0.091583,-0.102477,0.023687
1045,0.017426,-0.084403,-0.030552
1046,0.110122,0.024037,0.023687
1047,0.073044,0.132477,0.041767
1048,0.110122,0.060184,0.023687
1049,0.332591,0.04211,0.023687
1050,0.425287,0.024037,0.041767
1051,-0.093809,-0.084403,0.005607
1052,-0.724139,-0.06633,-0.048632
1053,-0.353356,0.024037,-0.030552
1054,0.425287,-0.084403,0.059847
1055,0.276974,-0.265137,-0.012473
1056,0.110122,-0.283211,0.005607
1057,0.054504,-0.22899,0.005607
1058,-0.242122,0.186697,0.023687
1059,-0.353356,0.367431,-0.030552
1060,-0.05673,0.277064,0.023687
1061,0.536522,0.204771,0.059847
1062,1.018539,0.078257,0.023687
1063,0.388209,-0.283211,0.005607
1064,-0.390435,-0.409724,0.023687
1065,-0.983687,-0.102477,0.077927
1066,-0.928069,-0.06633,0.041767
1067,-0.297739,0.114404,-0.030552
1068,0.36967,0.602385,-0.012473
1069,0.77753,0.765046,-0.030552
1070,0.555061,0.512018,-0.030552
1071,-0.019652,0.222844,-0.066712
1072,-0.390435,0.005964,-0.030552
1073,-0.242122,-0.22899,-0.030552
1074,0.017426,-0.283211,0.005607
1075,0.054504,-0.156697,0.041767
1076,0.054504,-0.084403,0.041767
1077,-0.130887,-0.048257,0.023687
1078,0.110122,0.313211,0.059847
1079,0.517983,0.240918,0.041767
1080,-0.05673,-0.030183,-0.012473
1081,-0.798296,-0.210917,-0.030552
1082,-0.242122,-0.192844,0.041767
1083,0.091583,-0.030183,0.005607
1084,-0.167965,0.240918,-0.030552
1085,-0.149426,0.421652,0.041767
1086,-0.520209,0.132477,-0.012473
1087,-0.334817,0.060184,-0.030552
1088,0.110122,-0.084403,-0.030552
1089,0.054504,-0.156697,0.005607
1090,-0.167965,-0.22899,-0.012473
1091,-0.149426,-0.265137,-0.066712
1092,-0.130887,-0.373578,-0.066712
1093,0.276974,-0.22899,0.041767
1094,0.721913,0.024037,0.041767
1095,0.740452,0.313211,0.059847
1096,0.295513,0.168624,0.005607
1097,-0.371896,-0.030183,0.005607
1098,-0.223583,0.114404,-0.030552
1099,-0.001113,0.096331,0.005607
1100,0.239896,0.078257,0.005607
1101,0.425287,0.150551,0.023687
1102,0.314052,0.005964,0.059847
1103,0.258435,-0.102477,0.059847
1104,0.480904,-0.102477,-0.030552
1105,-0.186504,-0.156697,-0.048632
1106,-0.446052,0.096331,-0.084792
1107,-0.872452,0.060184,0.005607
1108,-0.464591,0.04211,0.059847
1109,0.035965,-0.17477,0.005607
1110,0.054504,-0.156697,-0.048632
1111,0.610678,0.078257,0.041767
1112,0.425287,-0.590458,0.041767
1113,0.165739,-0.554311,0.059847
1114,-0.612904,-0.337431,0.096007
1115,-0.946609,-0.192844,-0.030552
1116,-0.594365,0.385505,-0.066712
1117,0.184278,0.421652,-0.012473
1118,0.276974,0.277064,0.005607
1119,0.221357,0.548165,0.005607
1120,0.36967,0.439725,-0.048632
1121,0.592139,0.295138,0.023687
1122,0.77753,0.186697,0.023687
1123,0.295513,0.168624,0.023687
1124,-0.446052,0.168624,0.041767
1125,-0.2792,0.005964,-0.030552
1126,-0.149426,0.114404,-0.030552
1127,-0.260661,-0.138624,-0.012473
1128,-0.48313,-0.319357,0.005607
1129,-0.464591,-0.301284,-0.048632
1130,-0.05673,-0.084403,0.005607
1131,-0.093809,-0.156697,0.005607
1132,-0.112348,-0.084403,0.041767
1133,0.035965,0.078257,0.023687
1134,-0.07527,0.168624,0.005607
1135,0.091583,0.313211,0.041767
1136,0.36967,0.078257,-0.012473
1137,0.555061,-0.030183,-0.030552
1138,0.5736,-0.048257,0.023687
1139,0.332591,-0.01211,-0.012473
1140,0.221357,-0.01211,-0.030552
1141,0.054504,0.060184,-0.030552
1142,-0.223583,0.005964,-0.066712
1143,-0.316278,0.024037,-0.084792
1144,-0.742678,0.096331,-0.030552
1145,-0.649983,-0.048257,0.059847
1146,-0.538748,-0.12055,0.059847
1147,-0.520209,-0.283211,0.023687
1148,-0.112348,-0.301284,0.005607
1149,0.388209,0.024037,-0.012473
1150,0.462365,0.04211,-0.012473
1151,0.536522,0.168624,0.059847
1152,0.610678,0.168624,0.114086
1153,0.79607,-0.01211,0.059847
1154,0.054504,-0.22899,0.023687
1155,-0.501669,-0.283211,-0.030552
1156,0.073044,-0.01211,-0.030552
1157,-0.019652,0.222844,0.005607
1158,-0.093809,0.078257,-0.030552
1159,-0.186504,0.114404,0.005607
1160,-0.612904,-0.22899,-0.030552
1161,-0.464591,0.024037,-0.030552
1162,-0.149426,0.295138,-0.012473
1163,-0.093809,0.475872,0.041767
1164,-0.019652,0.367431,0.059847
1165,-0.07527,0.240918,0.041767
1166,-0.07527,0.132477,0.023687
1167,-0.05673,-0.138624,0.023687
1168,-0.223583,-0.247064,0.005607
1169,-0.149426,-0.22899,0.005607
1170,0.128661,-0.210917,0.023687
1171,0.276974,0.078257,0.041767
1172,0.128661,0.04211,-0.012473
1173,0.314052,0.150551,0.041767
1174,0.202817,0.096331,-0.012473
1175,0.054504,-0.06633,-0.012473
1176,-0.07527,-0.138624,-0.030552
1177,0.258435,-0.048257,0.059847
1178,0.499444,-0.048257,0.005607
1179,0.091583,-0.156697,-0.139032
1180,-0.7056,-0.102477,-0.084792
1181,0.258435,-0.084403,0.023687
1182,0.666296,0.060184,-0.012473
1183,0.221357,0.005964,0.005607
1184,-0.112348,0.186697,0.023687
1185,-0.149426,0.04211,-0.012473
1186,-0.242122,-0.084403,0.023687
1187,-0.2792,-0.22899,0.041767
1188,-0.575826,-0.283211,0.041767
1189,-0.242122,0.005964,0.023687
1190,-0.167965,0.005964,-0.030552
1191,0.221357,-0.12055,0.023687
1192,0.443826,0.150551,0.005607
1193,0.1472,0.331285,-0.012473
1194,-0.038191,0.240918,-0.012473
1195,0.035965,0.078257,0.023687
1196,0.202817,0.204771,0.059847
1197,0.221357,0.150551,-0.012473
1198,0.035965,-0.01211,-0.048632
1199,-0.223583,-0.084403,-0.048632
1200,-0.408974,-0.12055,-0.030552
1201,0.221357,-0.01211,0.059847
1202,0.165739,0.005964,0.059847
1203,0.017426,0.060184,0.023687
1204,0.202817,0.258991,0.023687
1205,1.074157,0.258991,0.059847
1206,0.536522,0.04211,-0.030552
1207,-1.020765,0.060184,-0.030552
1208,-0.90953,0.096331,-0.012473
1209,0.017426,-0.06633,0.005607
1210,0.054504,-0.247064,-0.030552
1211,-0.038191,-0.355504,-0.048632
1212,-0.186504,-0.06633,-0.012473
1213,-0.2792,0.331285,0.041767
1214,0.184278,0.258991,0.059847
1215,0.258435,0.168624,0.005607
1216,0.517983,0.078257,0.059847
1217,0.388209,-0.102477,-0.012473
1218,-0.316278,-0.265137,-0.066712
1219,-0.2792,-0.283211,-0.012473
1220,-0.130887,-0.12055,0.005607
1221,-0.260661,-0.12055,0.023687
1222,-0.612904,-0.102477,-0.012473
1223,-0.130887,0.295138,0.023687
1224,-0.038191,0.078257,0.023687
1225,0.128661,-0.084403,0.023687
1226,0.295513,-0.06633,0.023687
1227,0.314052,-0.084403,-0.012473
1228,-0.130887,-0.048257,-0.012473
1229,-0.408974,-0.283211,0.005607
1230,-0.353356,-0.427798,-0.012473
1231,-0.242122,0.060184,-0.012473
1232,-0.019652,0.222844,-0.048632
1233,0.499444,0.385505,0.005607
1234,0.36967,0.367431,0.023687
1235,-0.112348,0.204771,-0.012473
1236,-0.112348,0.313211,-0.048632
1237,0.295513,0.04211,0.005607
1238,0.462365,0.024037,0.096007
1239,0.073044,-0.337431,-0.012473
1240,-0.612904,-0.482018,-0.066712
1241,-0.687061,-0.283211,0.005607
1242,-0.297739,0.060184,0.041767
1243,-0.112348,0.186697,0.041767
1244,-0.001113,0.240918,0.059847
1245,0.202817,0.060184,0.023687
1246,0.165739,-0.084403,-0.030552
1247,0.332591,0.403578,-0.066712
1248,0.314052,0.349358,-0.030552
1249,0.517983,0.258991,0.041767
1250,0.406748,-0.048257,0.005607
1251,-0.90953,-0.373578,-0.066712
1252,-0.761217,-0.048257,-0.048632
1253,-0.167965,0.168624,-0.012473
1254,-0.2792,0.150551,0.023687
1255,0.332591,0.114404,0.023687
1256,0.888765,0.04211,0.041767
1257,0.814609,-0.06633,-0.066712
1258,0.258435,-0.337431,-0.030552
1259,-0.334817,-0.265137,-0.012473
1260,-0.557287,0.114404,0.023687
1261,-0.464591,0.367431,0.077927
1262,-0.186504,0.132477,0.059847
1263,-0.167965,-0.102477,0.077927
1264,-0.019652,-0.355504,0.023687
1265,0.517983,-0.265137,-0.012473
1266,0.684835,-0.06633,-0.048632
1267,0.314052,0.024037,-0.084792
1268,-0.260661,0.060184,-0.012473
1269,0.017426,-0.01211,-0.012473
1270,-0.260661,0.024037,0.005607
1271,-0.260661,0.313211,0.041767
1272,-0.130887,0.295138,0.059847
1273,-0.130887,0.385505,-0.012473
1274,-0.038191,-0.01211,-0.012473
1275,-0.167965,-0.102477,-0.066712
1276,0.017426,-0.247064,0.005607
1277,0.202817,-0.283211,0.023687
1278,0.128661,-0.210917,-0.048632
1279,-0.390435,-0.283211,-0.066712
1280,-0.724139,0.005964,0.005607
1281,-0.186504,0.168624,0.023687
1282,0.184278,0.222844,0.023687
1283,0.314052,0.114404,0.059847
1284,0.073044,0.150551,0.023687
1285,-0.019652,0.096331,0.005607
1286,0.406748,0.078257,-0.012473
1287,0.314052,0.078257,0.005607
1288,0.091583,0.060184,0.005607
1289,-0.019652,-0.084403,-0.048632
1290,0.035965,-0.01211,-0.030552
1291,-0.167965,0.04211,0.041767
1292,-0.501669,-0.102477,0.041767
1293,-0.223583,-0.102477,0.005607
1294,0.221357,-0.17477,-0.012473
1295,0.295513,0.005964,0.005607
1296,0.017426,-0.01211,-0.030552
1297,0.073044,0.005964,0.005607
1298,0.1472,0.150551,0.077927
1299,-0.149426,-0.391651,0.023687
1300,-0.130887,-0.445871,-0.012473
1301,-0.093809,0.168624,0.041767
1302,0.239896,0.186697,-0.012473
1303,0.017426,0.005964,-0.066712
1304,-0.594365,-0.06633,-0.066712
1305,-0.112348,0.024037,0.005607
1306,0.684835,0.277064,0.023687
1307,0.276974,0.078257,-0.012473
1308,0.017426,0.114404,-0.030552
1309,0.184278,-0.102477,0.041767
1310,0.017426,-0.337431,0.041767
1311,-0.557287,-0.409724,0.041767
1312,-0.464591,-0.01211,0.077927
1313,0.184278,0.024037,0.059847
1314,0.555061,0.096331,0.023687
1315,0.1472,0.367431,-0.048632
1316,0.035965,0.457798,-0.048632
1317,-0.297739,0.114404,-0.012473
1318,0.017426,0.132477,-0.012473
1319,-0.260661,0.114404,0.023687
1320,-0.149426,0.277064,0.023687
1321,0.406748,0.132477,0.041767
1322,0.555061,0.024037,0.041767
1323,0.035965,-0.210917,-0.048632
1324,-0.223583,-0.192844,-0.084792
1325,-0.05673,-0.048257,-0.066712
1326,0.276974,0.096331,0.041767
1327,-0.07527,-0.247064,0.023687
1328,-0.612904,-0.482018,0.023687
1329,-0.408974,-0.337431,-0.048632
1330,-0.427513,0.132477,-0.030552
1331,-0.242122,0.349358,0.005607
1332,-0.05673,0.403578,0.059847
1333,0.054504,0.024037,0.059847
1334,-0.130887,-0.22899,-0.012473
1335,-0.242122,-0.084403,-0.048632
1336,-0.07527,0.150551,-0.012473
1337,0.035965,0.385505,-0.012473
1338,0.1472,0.512018,0.005607
1339,0.054504,0.005964,-0.030552
1340,-0.149426,-0.409724,-0.012473
1341,0.035965,-0.283211,-0.012473
1342,0.184278,0.005964,-0.012473
1343,0.295513,0.349358,0.005607
1344,0.332591,0.385505,0.059847
1345,0.36967,-0.030183,-0.012473
1346,0.221357,-0.138624,-0.012473
1347,0.36967,0.096331,0.005607
1348,0.202817,-0.01211,0.023687
1349,-0.371896,-0.138624,0.041767
1350,-0.2792,-0.265137,-0.030552
1351,-0.260661,-0.156697,0.005607
1352,0.1472,-0.156697,0.059847
1353,0.388209,0.114404,0.077927
1354,0.35113,0.024037,0.023687
1355,0.35113,0.078257,-0.066712
1356,0.425287,0.258991,-0.048632
1357,-0.612904,-0.247064,-0.048632
1358,-0.965148,-0.463945,-0.012473
1359,-0.501669,-0.247064,0.005607
1360,-0.130887,-0.01211,-0.012473
1361,-0.186504,0.096331,-0.030552
1362,-0.464591,0.258991,0.041767
1363,0.295513,0.277064,0.023687
1364,0.5736,0.114404,-0.012473
1365,0.221357,0.114404,-0.048632
1366,-0.038191,0.096331,-0.012473
1367,-0.001113,0.04211,0.005607
1368,-0.130887,0.114404,0.077927
1369,-0.334817,-0.210917,0.096007
1370,-0.334817,-0.590458,0.059847
1371,-0.130887,-0.427798,0.005607
1372,0.406748,0.024037,0.005607
1373,0.295513,0.313211,0.023687
1374,-0.05673,0.439725,-0.048632
1375,-0.07527,0.186697,-0.084792
1376,-0.093809,0.240918,-0.048632
1377,0.202817,0.132477,0.005607
1378,0.202817,0.024037,0.023687
1379,-0.223583,-0.12055,0.023687
1380,-0.260661,0.005964,0.023687
1381,-0.05673,-0.084403,0.005607
1382,0.091583,-0.084403,0.005607
1383,0.035965,-0.319357,-0.030552
1384,0.295513,-0.536238,-0.030552
1385,0.666296,-0.084403,-0.030552
1386,0.536522,0.04211,0.005607
1387,-0.316278,0.096331,-0.030552
1388,-0.575826,0.548165,0.005607
1389,-0.649983,0.584312,0.077927
1390,-0.05673,0.258991,0.059847
1391,0.017426,-0.06633,-0.012473
1392,-0.186504,-0.337431,-0.030552
1393,-0.05673,-0.210917,-0.012473
1394,0.128661,0.222844,0.023687
1395,0.276974,0.114404,0.023687
1396,0.1472,0.096331,0.005607
1397,0.295513,0.150551,-0.012473
1398,0.592139,0.295138,-0.012473
1399,0.684835,-0.030183,-0.048632
1400,-0.186504,-0.265137,-0.084792
1401,-1.002226,-0.301284,-0.030552
1402,-0.223583,-0.17477,0.005607
1403,0.499444,0.114404,0.077927
1404,0.443826,0.313211,0.096007
1405,-0.223583,0.060184,0.077927
1406,-0.408974,-0.102477,0.059847
1407,-0.371896,-0.283211,0.005607
1408,-0.205043,-0.283211,-0.102872
1409,0.536522,0.186697,-0.084792
1410,0.36967,0.566239,-0.012473
1411,-0.019652,0.367431,0.077927
1412,-0.130887,-0.030183,-0.048632
1413,-0.408974,-0.030183,-0.102872
1414,-0.520209,-0.084403,-0.048632
1415,-0.242122,-0.06633,-0.012473
1416,-0.242122,-0.210917,0.005607
1417,-0.149426,-0.22899,0.023687
1418,-0.038191,-0.102477,0.041767
1419,0.128661,-0.138624,0.023687
1420,0.128661,-0.409724,0.005607
1421,-0.07527,-0.572385,-0.012473
1422,0.35113,-0.391651,0.059847
1423,0.907304,0.277064,0.059847
1424,0.925843,0.909633,0.041767
1425,0.128661,0.602385,-0.012473
1426,-0.631443,0.132477,0.005607
1427,-0.316278,-0.06633,0.041767
1428,0.184278,-0.030183,0.005607
1429,0.110122,0.060184,0.005607
1430,-0.112348,-0.048257,0.005607
1431,-0.594365,0.060184,0.023687
1432,-0.872452,0.114404,-0.012473
1433,-0.872452,-0.210917,-0.030552
1434,-0.038191,-0.301284,-0.048632
1435,0.462365,-0.463945,-0.066712
1436,0.647757,-0.301284,-0.066712
1437,0.740452,0.493945,-0.012473
1438,0.425287,0.620459,0.059847
1439,-0.186504,-0.102477,-0.012473
1440,-0.112348,-0.01211,0.041767
1441,-0.05673,0.024037,0.005607
1442,-0.05673,-0.06633,-0.012473
1443,0.073044,0.005964,-0.030552
1444,-0.112348,-0.01211,-0.030552
1445,-0.48313,-0.01211,0.005607
1446,0.017426,0.168624,0.041767
1447,0.425287,0.331285,0.059847
1448,0.647757,0.295138,0.041767
1449,0.295513,0.024037,0.041767
1450,-0.186504,-0.17477,0.059847
1451,-0.687061,-0.102477,0.077927
1452,-0.446052,-0.319357,0.005607
1453,0.091583,-0.01211,0.059847
1454,-0.019652,-0.138624,0.005607
1455,0.128661,-0.283211,-0.120952
1456,-0.353356,0.060184,-0.120952
1457,-0.371896,-0.102477,-0.102872
1458,0.536522,0.024037,-0.048632
1459,0.499444,0.132477,0.041767
1460,0.443826,0.421652,0.096007
1461,0.276974,0.349358,0.096007
1462,-0.112348,-0.030183,0.005607
1463,-0.631443,-0.048257,-0.030552
1464,-0.371896,-0.01211,0.041767
1465,-0.353356,-0.156697,0.023687
1466,-0.390435,-0.06633,0.023687
1467,0.388209,0.132477,0.077927
1468,0.944383,-0.030183,-0.012473
1469,0.814609,0.04211,-0.120952
1470,0.073044,0.222844,0.005607
1471,0.091583,-0.030183,0.023687
1472,-0.390435,-0.138624,0.005607
1473,-0.538748,-0.247064,-0.030552
1474,-0.260661,-0.12055,0.005607
1475,-0.427513,-0.192844,0.023687
1476,-0.2792,-0.156697,-0.012473
1477,0.184278,0.060184,-0.030552
1478,0.517983,0.132477,0.005607
1479,0.480904,0.186697,-0.012473
1480,0.184278,-0.210917,-0.066712
1481,-0.48313,-0.138624,-0.030552
1482,-0.928069,0.060184,0.041767
1483,-0.334817,0.04211,0.023687
1484,0.017426,0.295138,0.041767
1485,0.184278,0.331285,0.077927
1486,0.165739,0.005964,0.041767
1487,0.110122,-0.030183,-0.012473
1488,0.091583,-0.030183,-0.012473
1489,0.017426,0.222844,0.041767
1490,-0.05673,0.114404,0.023687
1491,-0.05673,-0.084403,0.023687
1492,-0.001113,-0.06633,-0.030552
1493,0.239896,-0.030183,-0.012473
1494,-0.019652,-0.030183,-0.048632
1495,-0.149426,-0.12055,-0.084792
1496,0.295513,-0.210917,-0.012473
1497,0.239896,-0.192844,0.005607
1498,0.184278,0.186697,0.023687
1499,0.221357,0.060184,0.023687
1500,-0.2792,-0.17477,0.005607
1501,-0.334817,0.150551,0.041767
1502,-0.205043,0.331285,-0.012473
1503,-0.149426,0.313211,-0.048632
1504,-0.038191,0.222844,-0.030552
1505,0.054504,-0.06633,0.023687
1506,0.1472,-0.138624,0.005607
1507,-0.130887,-0.22899,-0.012473
1508,-0.001113,-0.373578,0.005607
1509,0.128661,-0.536238,-0.012473
1510,0.091583,-0.22899,-0.048632
1511,-0.130887,0.331285,-0.012473
1512,-0.093809,0.493945,0.005607
1513,0.202817,0.295138,0.041767
1514,-0.297739,0.04211,0.059847
1515,-0.260661,-0.138624,0.041767
1516,-0.019652,0.060184,0.023687
1517,-0.001113,-0.048257,-0.012473
1518,-0.038191,0.204771,0.041767
1519,0.295513,-0.030183,-0.012473
1520,0.499444,-0.22899,0.023687
1521,0.721913,-0.319357,0.005607
1522,0.35113,-0.06633,-0.030552
1523,-0.038191,0.078257,-0.030552
1524,-0.408974,-0.030183,-0.048632
1525,-0.353356,0.096331,-0.048632
1526,-0.186504,0.096331,-0.048632
1527,-0.408974,0.222844,-0.012473
1528,-0.853913,0.096331,0.041767
1529,-0.427513,-0.102477,0.041767
1530,-0.130887,-0.192844,-0.012473
1531,-0.130887,-0.030183,0.041767
1532,-0.149426,0.150551,0.077927
1533,0.165739,0.078257,0.023687
1534,0.499444,0.114404,-0.012473
1535,0.443826,-0.102477,-0.066712
1536,0.5736,-0.01211,-0.012473
1537,0.536522,0.150551,0.041767
1538,0.425287,0.096331,0.041767
1539,0.314052,0.04211,0.059847
1540,-0.205043,-0.030183,0.023687
1541,-0.427513,-0.247064,-0.030552
1542,-0.2792,-0.138624,-0.030552
1543,-0.260661,0.150551,-0.048632
1544,-0.05673,-0.192844,-0.066712
1545,0.1472,-0.22899,-0.030552
1546,0.295513,-0.210917,-0.012473
1547,0.35113,0.313211,-0.048632
1548,-0.038191,0.439725,0.005607
1549,0.017426,0.150551,0.041767
1550,-0.07527,0.005964,0.041767
1551,-0.538748,-0.156697,0.023687
1552,-0.631443,0.060184,0.096007
1553,0.221357,0.349358,0.077927
1554,0.406748,-0.12055,-0.012473
1555,-0.130887,-0.409724,-0.066712
1556,-0.001113,-0.17477,-0.048632
1557,-0.371896,0.024037,-0.066712
1558,-0.019652,-0.048257,-0.048632
1559,0.239896,-0.084403,-0.012473
1560,0.295513,0.132477,0.077927
1561,-0.205043,0.132477,0.041767
1562,-0.334817,0.403578,0.023687
1563,0.1472,0.367431,0.041767
1564,0.684835,0.240918,0.077927
1565,0.721913,0.078257,0.023687
1566,-0.112348,-0.102477,-0.012473
1567,-0.612904,-0.06633,0.005607
1568,-0.427513,0.005964,-0.030552
1569,-0.07527,0.150551,0.005607
1570,-0.001113,-0.102477,0.005607
1571,0.332591,-0.06633,0.023687
1572,0.36967,0.060184,0.005607
1573,-0.149426,-0.138624,-0.030552
1574,-0.520209,-0.06633,-0.012473
1575,-0.07527,-0.06633,-0.012473
1576,0.165739,0.060184,0.041767
1577,0.1472,-0.048257,0.023687
1578,-0.334817,-0.265137,-0.012473
1579,-0.205043,-0.210917,-0.030552
1580,0.314052,0.096331,0.023687
1581,-0.223583,-0.156697,-0.012473
1582,-0.594365,-0.247064,-0.030552
1583,-0.149426,-0.247064,-0.012473
1584,-0.038191,0.331285,0.005607
1585,-0.093809,0.457798,0.041767
1586,0.073044,0.186697,0.023687
1587,0.054504,-0.084403,0.023687
1588,0.165739,-0.156697,-0.048632
1589,0.425287,0.204771,-0.048632
1590,0.555061,0.313211,-0.012473
1591,0.406748,0.078257,0.077927
1592,0.480904,-0.265137,0.005607
1593,0.091583,-0.283211,-0.030552
1594,-0.798296,-0.138624,-0.066712
1595,-0.390435,0.186697,-0.048632
1596,0.054504,0.150551,-0.012473
1597,0.388209,0.005964,-0.012473
1598,0.017426,-0.138624,0.023687
1599,-0.501669,-0.192844,-0.012473
1600,-0.334817,-0.247064,-0.048632
1601,-0.186504,0.150551,0.023687
1602,-0.130887,0.04211,0.041767
1603,-0.093809,-0.17477,0.005607
1604,0.035965,0.024037,0.023687
1605,0.165739,0.439725,0.077927
1606,-0.038191,0.132477,0.059847
1607,-0.038191,-0.138624,-0.030552
1608,0.276974,-0.156697,-0.084792
1609,0.110122,-0.156697,0.023687
1610,-0.001113,-0.084403,0.059847
1611,-0.093809,0.222844,0.059847
1612,-0.167965,0.168624,0.005607
1613,-0.130887,0.078257,0.023687
1614,-0.093809,-0.06633,-0.030552
1615,0.202817,-0.030183,-0.030552
1616,0.499444,-0.01211,0.005607
1617,0.091583,-0.210917,0.005607
1618,-0.316278,0.024037,-0.030552
1619,0.091583,0.150551,0.005607
1620,0.239896,0.493945,0.114086
1621,0.276974,0.331285,0.096007
1622,0.536522,0.096331,0.041767
1623,0.258435,-0.156697,-0.048632
1624,-0.167965,-0.319357,-0.030552
1625,0.017426,-0.138624,0.023687
1626,-0.167965,0.150551,0.023687
1627,-0.446052,0.385505,0.041767
1628,-0.334817,0.005964,0.023687
1629,-0.07527,0.024037,0.041767
1630,0.221357,0.132477,0.023687
1631,0.406748,0.240918,0.005607
1632,0.314052,0.150551,-0.030552
1633,-0.427513,-0.210917,-0.120952
1634,-0.2792,0.078257,-0.102872
1635,-0.297739,0.150551,-0.066712
1636,-0.167965,-0.06633,-0.012473
1637,-0.093809,-0.12055,0.005607
1638,-0.112348,-0.301284,0.023687
1639,-0.05673,-0.536238,0.023687
1640,0.110122,-0.283211,-0.012473
1641,0.202817,0.078257,0.023687
1642,0.1472,0.475872,0.023687
1643,-0.316278,-0.030183,0.005607
1644,-0.520209,-0.265137,0.041767
1645,0.258435,-0.373578,0.041767
1646,0.332591,-0.12055,0.023687
1647,0.295513,0.005964,0.005607
1648,0.035965,0.385505,-0.030552
1649,-0.130887,0.530092,-0.012473
1650,-0.297739,0.150551,0.023687
1651,-0.167965,-0.102477,-0.012473
1652,-0.038191,-0.156697,-0.030552
1653,-0.019652,-0.319357,-0.120952
1654,-0.316278,-0.500091,-0.102872
1655,0.017426,-0.409724,-0.066712
1656,0.110122,0.132477,0.059847
1657,0.239896,0.331285,0.077927
1658,0.221357,0.674679,0.114086
1659,-0.05673,0.439725,0.023687
1660,-0.223583,0.078257,-0.012473
1661,0.091583,-0.12055,-0.012473
1662,0.258435,-0.156697,0.077927
1663,0.054504,-0.138624,0.023687
1664,0.35113,0.114404,-0.030552
1665,0.406748,0.331285,-0.030552
1666,0.128661,0.186697,0.005607
1667,-0.093809,-0.01211,0.023687
1668,0.017426,0.132477,0.041767
1669,-0.07527,0.240918,0.005607
1670,-0.205043,0.04211,0.059847
1671,-0.2792,-0.283211,-0.030552
1672,-0.093809,-0.192844,-0.030552
1673,-0.260661,-0.102477,0.005607
1674,-0.07527,-0.01211,0.023687
1675,0.5736,0.150551,-0.030552
1676,0.77753,0.096331,-0.030552
1677,-0.001113,-0.301284,-0.066712
1678,-0.316278,-0.210917,-0.030552
1679,-0.093809,-0.12055,-0.030552
1680,-0.334817,0.060184,0.023687
1681,-0.223583,0.258991,0.077927
1682,0.054504,0.096331,0.041767
1683,-0.019652,-0.06633,0.005607
1684,-0.167965,-0.138624,0.041767
1685,-0.112348,-0.030183,0.023687
1686,-0.038191,0.168624,0.023687
1687,0.017426,0.295138,0.023687
1688,-0.390435,0.258991,-0.048632
1689,-0.130887,-0.06633,-0.084792
1690,0.202817,-0.084403,-0.048632
1691,0.1472,-0.156697,-0.012473
1692,-0.2792,-0.01211,0.023687
1693,-0.260661,-0.01211,0.023687
1694,-0.112348,-0.138624,0.005607
1695,-0.130887,-0.373578,-0.012473
1696,-0.001113,-0.17477,-0.048632
1697,0.035965,-0.030183,0.005607
1698,0.1472,0.060184,0.005607
1699,0.425287,0.060184,-0.012473
1700,0.295513,-0.06633,-0.012473
1701,0.091583,0.114404,0.005607
1702,-0.001113,0.060184,0.005607
1703,-0.242122,-0.102477,-0.012473
1704,-0.353356,-0.084403,0.005607
1705,-0.297739,0.060184,0.059847
1706,0.128661,0.240918,0.059847
1707,0.388209,0.024037,0.005607
1708,0.073044,-0.06633,-0.030552
1709,-0.019652,0.313211,-0.012473
1710,0.073044,0.222844,0.005607
1711,-0.05673,0.005964,0.005607
1712,-0.167965,-0.156697,0.023687
1713,-0.149426,-0.156697,0.023687
1714,-0.07527,0.024037,0.023687
1715,0.091583,0.04211,0.041767
1716,0.110122,-0.22899,-0.048632
1717,0.165739,-0.192844,-0.048632
1718,0.1472,-0.048257,0.005607
1719,0.276974,0.240918,-0.030552
1720,0.36967,0.295138,0.005607
1721,-0.223583,-0.030183,-0.012473
1722,-0.2792,-0.22899,0.005607
1723,0.36967,-0.12055,0.005607
1724,0.5736,0.078257,-0.048632
1725,-0.316278,0.024037,-0.066712
1726,0.239896,0.349358,0.005607
1727,0.165739,0.295138,0.096007
1728,-0.019652,-0.030183,0.077927
1729,0.073044,0.078257,0.077927
1730,-0.297739,-0.156697,0.077927
1731,-0.427513,-0.17477,0.041767
1732,-0.297739,-0.01211,0.005607
1733,-0.149426,0.078257,0.005607
1734,-0.149426,0.258991,0.041767
1735,-0.112348,0.024037,-0.030552
1736,-0.167965,-0.22899,-0.048632
1737,0.017426,-0.17477,-0.012473
1738,0.091583,-0.12055,-0.030552
1739,-0.019652,0.114404,-0.066712
1740,-0.316278,0.331285,0.005607
1741,0.017426,0.277064,0.023687
1742,0.1472,0.060184,0.041767
1743,0.295513,-0.01211,0.059847
1744,0.128661,-0.01211,0.005607
1745,-0.186504,0.024037,-0.012473
1746,-0.112348,0.005964,0.005607
1747,-0.019652,0.060184,0.023687
1748,0.017426,0.04211,0.005607
1749,-0.07527,-0.048257,-0.048632
1750,-0.167965,-0.355504,-0.048632
1751,-0.316278,-0.427798,-0.084792
1752,-0.260661,-0.17477,-0.030552
1753,-0.05673,0.096331,-0.012473
1754,0.388209,0.295138,-0.012473
1755,0.35113,0.150551,-0.030552
1756,0.110122,-0.084403,-0.048632
1757,-0.223583,-0.17477,-0.012473
1758,-0.05673,0.024037,0.114086
1759,-0.112348,-0.102477,0.005607
1760,-0.05673,-0.156697,-0.048632
1761,-0.019652,0.114404,-0.012473
1762,0.536522,0.222844,0.059847
1763,0.5736,0.204771,0.005607
1764,0.184278,0.005964,0.005607
1765,-0.05673,-0.084403,0.023687
1766,0.017426,-0.102477,-0.012473
1767,0.258435,-0.048257,0.041767
1768,0.221357,0.114404,0.096007
1769,0.035965,-0.030183,0.005607
1770,-0.05673,-0.22899,-0.048632
1771,-0.390435,0.150551,-0.012473
1772,-0.316278,0.240918,0.041767
1773,-0.019652,0.186697,-0.012473
1774,0.110122,0.150551,-0.030552
1775,-0.019652,-0.138624,-0.012473
1776,0.1472,-0.138624,-0.030552
1777,0.017426,-0.102477,-0.030552
1778,-0.2792,0.150551,0.005607
1779,0.221357,0.277064,0.041767
1780,0.221357,0.222844,0.041767
1781,0.054504,0.005964,-0.012473
1782,-0.408974,-0.22899,-0.030552
1783,-0.371896,-0.210917,-0.030552
1784,-0.2792,0.024037,0.005607
1785,-0.223583,0.078257,0.041767
1786,-0.130887,-0.12055,0.041767
1787,0.054504,-0.084403,0.041767
1788,0.091583,-0.084403,0.005607
1789,0.035965,-0.048257,0.005607
1790,0.035965,0.078257,-0.030552
1791,-0.149426,0.186697,-0.048632
1792,-0.038191,-0.06633,-0.012473
1793,-0.205043,-0.247064,0.059847
1794,-0.167965,-0.210917,0.041767
1795,0.035965,-0.156697,0.023687
1796,0.406748,0.078257,-0.012473
1797,0.425287,0.222844,0.023687
1798,0.295513,-0.102477,-0.030552
1799,0.1472,0.222844,0.005607
1800,-0.038191,0.132477,-0.012473
1801,-0.260661,0.186697,0.023687
1802,-0.334817,-0.01211,0.005607
1803,-0.112348,0.096331,0.077927
1804,0.221357,0.222844,0.077927
1805,0.202817,0.114404,0.005607
1806,0.017426,0.078257,-0.012473
1807,-0.130887,0.060184,0.023687
1808,-0.130887,0.04211,-0.012473
1809,-0.07527,-0.01211,-0.030552
1810,-0.07527,-0.12055,-0.048632
1811,0.165739,-0.192844,0.023687
1812,0.388209,-0.12055,0.023687
1813,0.165739,-0.048257,-0.012473
1814,-0.520209,-0.030183,-0.048632
1815,-0.761217,0.096331,0.005607
1816,0.36967,0.186697,0.059847
1817,0.721913,-0.084403,0.059847
1818,0.962922,-0.265137,0.023687
1819,0.851687,-0.210917,-0.030552
1820,0.443826,0.222844,-0.030552
1821,-0.408974,0.421652,0.023687
1822,-1.094922,0.204771,-0.030552
1823,-0.612904,-0.048257,-0.012473
1824,-0.223583,-0.048257,0.005607
1825,-0.019652,-0.084403,-0.012473
1826,-0.05673,-0.102477,-0.012473
1827,0.017426,-0.01211,-0.012473
1828,-0.05673,-0.048257,-0.012473
1829,-0.093809,-0.12055,-0.030552
1830,-0.019652,0.04211,0.005607
1831,0.110122,0.168624,0.023687
1832,-0.07527,0.04211,0.041767
1833,-0.001113,-0.048257,-0.030552
1834,-0.001113,-0.01211,-0.012473
1835,-0.001113,-0.138624,0.005607
1836,-0.07527,-0.01211,0.005607
1837,0.221357,0.078257,-0.030552
1838,0.035965,0.114404,0.005607
1839,-0.297739,-0.247064,0.041767
1840,0.110122,-0.17477,0.059847
1841,0.128661,0.277064,0.023687
1842,-0.093809,0.096331,0.005607
1843,0.128661,0.060184,-0.066712
1844,0.221357,0.132477,-0.030552
1845,-0.05673,0.096331,-0.048632
1846,-0.019652,0.005964,-0.012473
1847,0.239896,0.024037,-0.030552
1848,-0.019652,0.04211,0.005607
1849,-0.334817,0.024037,0.023687
1850,-0.353356,0.005964,0.023687
1851,-0.167965,0.005964,0.005607
1852,0.035965,-0.01211,0.005607
1853,0.1472,0.024037,0.023687
1854,0.128661,0.060184,0.023687
1855,-0.093809,0.114404,0.005607
1856,-0.112348,0.005964,0.005607
1857,0.035965,-0.048257,-0.012473
1858,-0.05673,-0.102477,0.005607
1859,-0.038191,-0.12055,-0.012473
1860,-0.038191,-0.084403,0.005607
1861,-0.001113,-0.030183,-0.012473
1862,-0.019652,-0.030183,-0.030552
1863,-0.001113,-0.048257,0.005607
1864,-0.001113,-0.048257,-0.012473
1865,-0.001113,-0.030183,-0.030552
1866,-0.001113,0.024037,0.005607
1867,0.017426,0.114404,0.041767
1868,-0.019652,0.060184,0.023687
1869,-0.019652,0.005964,-0.012473
1870,-0.019652,-0.048257,-0.012473
1871,-0.001113,-0.030183,0.023687
1872,-0.001113,-0.030183,0.005607
1873,-0.001113,0.04211,0.005607
1874,-0.019652,0.060184,0.005607
1875,0.017426,0.024037,0.005607
1876,0.017426,0.005964,-0.030552
1877,-0.038191,0.005964,0.023687
1878,-0.05673,-0.01211,0.005607
1879,-0.001113,0.005964,-0.012473
1880,0.017426,-0.030183,-0.048632
1881,-0.019652,-0.030183,-0.012473
1882,0.017426,-0.01211,0.005607
1883,0.035965,0.04211,0.005607
1884,0.017426,0.024037,0.005607
1885,-0.001113,-0.030183,0.023687
1886,-0.001113,-0.01211,0.005607
1887,-0.019652,-0.030183,0.023687
1888,0.017426,-0.048257,0.041767
1889,-0.001113,0.150551,0.077927
1890,-0.001113,0.078257,0.023687
1891,-0.001113,0.005964,0.023687
1892,-0.019652,0.005964,0.023687
1893,-0.001113,0.060184,0.005607
1894,0.017426,0.078257,0.059847
1895,0.054504,0.024037,0.077927
1896,0.091583,-0.01211,0.041767
1897,-0.05673,-0.030183,-0.030552
1898,0.091583,0.024037,-0.030552
1899,0.128661,0.04211,0.023687
1900,0.035965,0.04211,-0.012473
1901,-0.205043,-0.01211,-0.030552
1902,-0.05673,0.005964,-0.012473
1903,-0.001113,0.024037,0.005607
1904,-0.001113,-0.01211,-0.048632
1905,-0.038191,-0.030183,-0.048632
1906,-0.019652,0.005964,-0.012473
1907,0.017426,-0.01211,0.005607
1908,-0.001113,-0.01211,-0.030552
1909,0.017426,-0.01211,-0.012473
1910,-0.019652,-0.01211,-0.030552
1911,-0.019652,0.005964,-0.048632
1912,-0.001113,-0.01211,-0.048632
1913,0.017426,0.005964,-0.030552
1914,-0.019652,0.005964,-0.012473
1915,-0.001113,-0.01211,0.005607
1916,-0.001113,0.005964,0.023687
1917,-0.001113,-0.01211,0.041767
1918,0.017426,0.005964,0.023687
1919,-0.001113,-0.01211,0.023687
1920,-0.001113,0.005964,-0.012473
1921,-0.001113,-0.01211,-0.048632
1922,-0.019652,-0.030183,-0.048632
1923,-0.001113,-0.030183,-0.048632
1924,0.017426,0.005964,-0.048632
1925,-0.001113,0.024037,-0.012473
1926,0.017426,0.005964,0.023687
1927,-0.001113,0.005964,0.041767
1928,-0.001113,-0.01211,0.005607
1929,-0.038191,-0.01211,0.023687
1930,-0.001113,0.024037,0.096007
1931,-0.001113,0.005964,0.059847
1932,0.035965,0.024037,0.023687
1933,-0.001113,0.005964,0.005607
1934,-0.001113,0.005964,-0.012473
1935,-0.001113,0.005964,-0.030552
1936,-0.001113,-0.01211,-0.084792
1937,-0.038191,-0.01211,-0.102872
1938,-0.019652,0.005964,-0.084792
1939,-0.019652,-0.030183,-0.084792
1940,-0.019652,-0.030183,0.005607
1941,-0.001113,-0.030183,0.041767
1942,-0.001113,-0.01211,0.005607
1943,-0.019652,0.024037,0.005607
1944,0.017426,0.005964,0.023687
1945,-0.001113,0.024037,0.132166
1946,-0.001113,0.04211,0.186406
1947,-0.001113,0.005964,0.132166
1948,0.017426,0.04211,0.132166
1949,0.017426,0.024037,0.096007
1950,-0.001113,0.024037,0.059847
1951,-0.001113,0.024037,0.041767
1952,0.017426,0.005964,0.041767
1953,0.017426,0.024037,0.005607
1954,-0.019652,0.005964,-0.030552
1955,-0.001113,0.005964,-0.012473
1956,0.017426,-0.01211,-0.012473
1957,-0.001113,0.005964,-0.048632
1958,-0.019652,-0.01211,-0.030552
1959,-0.019652,-0.048257,-0.012473
1960,-0.001113,-0.030183,0.005607
1961,-0.001113,-0.01211,0.005607
1962,-0.038191,-0.01211,0.005607
1963,-0.001113,-0.01211,0.023687
1964,-0.001113,0.005964,0.023687
1965,0.017426,-0.01211,0.041767
1966,-0.001113,-0.01211,0.023687
1967,-0.001113,0.005964,0.005607
1968,-0.001113,0.005964,-0.012473
1969,-0.038191,-0.01211,-0.048632
1970,-0.019652,-0.01211,-0.012473
1971,-0.019652,-0.01211,-0.066712
1972,-0.038191,-0.030183,-0.048632
1973,-0.019652,-0.01211,-0.012473
1974,-0.019652,-0.01211,-0.048632
1975,-0.019652,0.005964,-0.012473
1976,-0.001113,0.005964,-0.012473
1977,-0.019652,0.005964,0.005607
1978,-0.019652,-0.030183,0.005607
1979,-0.019652,0.005964,0.005607
1980,-0.001113,0.005964,0.041767
1981,-0.019652,-0.01211,0.041767
1982,-0.019652,-0.01211,0.005607
1983,-0.019652,0.005964,0.059847
1984,-0.001113,0.005964,0.005607
1985,0.017426,0.005964,0.023687
1986,-0.001113,-0.01211,-0.012473
1987,-0.019652,-0.01211,-0.030552
1988,-0.001113,-0.01211,-0.012473
1989,-0.001113,0.005964,-0.030552
1990,-0.019652,-0.030183,-0.030552
1991,-0.001113,-0.01211,0.005607
1992,-0.001113,-0.01211,-0.030552
1993,-0.001113,0.005964,0.005607
1994,-0.019652,0.005964,0.005607
1995,-0.001113,-0.01211,0.005607
1996,-0.001113,-0.01211,-0.012473
1997,-0.001113,0.005964,-0.012473
1998,-0.019652,0.005964,0.041767
1999,-0.019652,0.005964,0.005607
2000,-0.001113,0.005964,-0.012473
2001,-0.001113,0.005964,0.041767
2002,-0.001113,0.024037,-0.012473
2003,-0.019652,-0.01211,-0.030552
2004,-0.001113,-0.01211,-0.066712
2005,-0.019652,-0.01211,-0.030552
2006,-0.001113,-0.01211,-0.030552
2007,-0.001113,0.005964,-0.048632
2008,-0.001113,-0.01211,-0.012473
2009,-0.001113,0.005964,-0.012473
2010,0.017426,0.005964,-0.012473
2011,-0.001113,0.005964,0.023687
2012,-0.001113,0.04211,0.041767
2013,-0.001113,0.005964,0.041767
2014,-0.001113,-0.01211,-0.012473
2015,-0.001113,0.005964,0.005607
2016,-0.001113,0.005964,0.059847
2017,-0.038191,0.024037,0.023687
2018,-0.019652,0.024037,0.023687
2019,-0.038191,-0.01211,0.023687
2020,0.017426,-0.01211,0.023687
2021,0.073044,-0.01211,0.023687
2022,0.035965,0.005964,-0.030552
2023,-0.001113,0.005964,-0.012473
2024,0.017426,0.005964,-0.012473
2025,-0.001113,0.005964,-0.048632
2026,-0.001113,0.005964,0.005607
2027,-0.001113,0.005964,-0.012473
2028,-0.001113,0.005964,-0.012473
2029,0.017426,0.005964,0.005607
2030,-0.001113,-0.01211,0.005607
2031,0.017426,0.005964,-0.030552
2032,-0.001113,-0.01211,-0.012473
2033,-0.001113,0.005964,0.005607
2034,0.017426,0.024037,0.005607
2035,-0.001113,0.005964,0.005607
2036,-0.001113,-0.01211,0.023687
2037,-0.001113,0.005964,0.005607
2038,-0.001113,0.005964,0.023687
2039,-0.001113,0.005964,-0.012473
2040,-0.019652,-0.01211,0.005607
2041,-0.001113,-0.01211,-0.012473
2042,0.017426,-0.01211,-0.030552
2043,-0.001113,-0.01211,-0.048632
2044,-0.001113,0.005964,0.005607
2045,-0.019652,0.024037,-0.012473
2046,-0.001113,0.005964,-0.012473
2047,0.017426,0.005964,0.023687
2048,-0.001113,0.005964,0.023687
2049,-0.001113,-0.01211,0.023687
2050,-0.001113,0.024037,0.041767
2051,-0.019652,0.024037,0.041767
2052,0.017426,0.005964,0.059847
2053,-0.019652,0.005964,0.041767
2054,-0.019652,0.005964,0.041767
2055,-0.001113,0.005964,0.041767
2056,-0.019652,0.005964,-0.012473
2057,-0.001113,0.005964,-0.030552
2058,-0.001113,0.005964,0.005607
2059,-0.001113,-0.01211,-0.012473
2060,-0.038191,-0.030183,-0.030552
2061,-0.019652,-0.01211,-0.048632
2062,-0.001113,-0.01211,-0.012473
2063,-0.001113,0.005964,-0.030552
2064,0.017426,0.005964,0.005607
2065,-0.019652,0.005964,-0.012473
2066,0.017426,0.005964,-0.012473
2067,-0.001113,0.005964,-0.066712
2068,0.017426,-0.01211,-0.030552
2069,-0.001113,-0.01211,-0.012473
2070,-0.001113,-0.01211,-0.012473
2071,-0.019652,-0.01211,-0.030552
2072,-0.001113,0.005964,0.005607
2073,-0.001113,0.005964,0.041767
2074,-0.001113,-0.01211,0.023687
2075,-0.019652,0.005964,0.041767
2076,-0.001113,0.005964,0.077927
2077,-0.001113,0.024037,0.041767
2078,-0.001113,-0.01211,0.023687
2079,0.017426,0.005964,0.023687
2080,-0.001113,0.024037,0.059847
2081,0.017426,0.060184,0.023687
2082,-0.001113,-0.030183,0.005607
2083,0.017426,0.005964,0.023687
2084,0.017426,0.024037,-0.012473
2085,0.017426,0.005964,-0.012473
2086,0.017426,0.024037,0.005607
2087,-0.001113,0.005964,0.005607
2088,-0.001113,0.005964,0.005607
2089,0.017426,0.005964,-0.012473
2090,-0.001113,-0.01211,-0.012473
2091,-0.001113,0.005964,0.023687
2092,-0.038191,0.005964,0.005607
2093,0.017426,0.005964,0.005607
2094,-0.001113,-0.01211,0.005607
2095,-0.001113,0.005964,-0.030552
2096,-0.001113,-0.01211,-0.012473
2097,0.017426,0.024037,0.041767
2098,-0.019652,0.005964,-0.012473
2099,-0.038191,-0.01211,-0.030552
2100,-0.019652,-0.030183,-0.030552
2101,-0.001113,0.005964,-0.030552
2102,-0.019652,-0.048257,-0.012473
2103,-0.001113,0.005964,0.005607
2104,-0.001113,0.005964,0.041767
2105,-0.001113,0.005964,0.041767
2106,-0.001113,-0.01211,-0.030552
2107,-0.001113,-0.01211,-0.030552
2108,-0.001113,-0.01211,0.005607
2109,-0.001113,0.024037,0.023687
2110,0.017426,0.024037,0.005607
2111,-0.001113,0.024037,0.059847
2112,-0.001113,0.005964,0.041767
2113,-0.001113,0.005964,-0.012473
2114,-0.001113,0.005964,0.005607
2115,-0.001113,0.024037,0.023687
2116,-0.001113,-0.01211,0.005607
2117,0.017426,0.024037,-0.030552
2118,-0.001113,0.005964,-0.030552
2119,-0.019652,0.005964,-0.012473
2120,-0.001113,-0.01211,-0.048632
2121,-0.038191,0.005964,-0.030552
2122,0.017426,-0.01211,-0.012473
2123,0.017426,0.005964,0.005607
2124,0.017426,-0.01211,0.005607
2125,-0.001113,0.005964,0.023687
2126,-0.001113,0.005964,0.041767
2127,0.017426,0.024037,0.059847
2128,-0.001113,0.024037,0.005607
2129,0.017426,0.005964,0.023687
2130,-0.019652,0.005964,0.041767
2131,-0.001113,0.005964,0.023687
2132,-0.001113,0.005964,-0.012473
2133,0.017426,-0.030183,0.023687
2134,-0.019652,0.005964,0.005607
2135,-0.001113,-0.01211,0.023687
2136,-0.019652,0.024037,-0.012473
2137,0.017426,0.005964,0.005607
2138,-0.019652,-0.01211,-0.012473
2139,0.017426,0.005964,-0.012473
2140,-0.001113,0.005964,0.005607
2141,-0.001113,0.005964,-0.030552
2142,0.017426,0.005964,-0.030552
2143,0.017426,0.005964,-0.012473
2144,0.017426,-0.01211,0.005607
2145,0.017426,0.005964,0.005607
2146,-0.001113,-0.01211,-0.030552
2147,-0.001113,-0.01211,0.005607
2148,-0.001113,0.005964,0.005607
2149,-0.019652,0.005964,0.005607
2150,-0.001113,-0.01211,0.023687
2151,-0.001113,-0.01211,0.023687
2152,-0.001113,-0.01211,0.023687
2153,-0.001113,-0.01211,0.041767
2154,-0.001113,-0.01211,0.005607
2155,-0.001113,0.005964,0.041767
2156,0.017426,0.024037,0.005607
2157,-0.019652,-0.01211,-0.012473
2158,0.017426,0.005964,0.005607
2159,-0.001113,0.005964,-0.012473
2160,0.017426,0.005964,-0.012473
2161,-0.019652,0.005964,0.005607
2162,0.017426,0.005964,0.023687
2163,-0.001113,0.005964,-0.012473
2164,-0.001113,-0.01211,0.005607
2165,-0.019652,0.005964,0.005607
2166,-0.019652,0.005964,0.005607
2167,-0.038191,0.005964,-0.012473
2168,0.017426,0.005964,0.005607
2169,-0.001113,0.005964,0.005607
2170,-0.019652,0.005964,-0.012473
2171,-0.019652,0.005964,-0.030552
2172,0.017426,0.005964,-0.012473
2173,-0.001113,-0.01211,-0.012473
2174,-0.001113,0.005964,-0.066712
2175,0.017426,-0.01211,-0.066712
2176,-0.001113,-0.01211,-0.030552
2177,0.017426,0.005964,-0.048632
2178,-0.001113,-0.01211,-0.012473
2179,-0.019652,-0.01211,0.005607
2180,-0.038191,-0.01211,0.023687
2181,-0.001113,0.005964,0.023687
2182,-0.019652,0.024037,0.041767
2183,0.017426,-0.030183,0.041767
2184,0.017426,0.024037,0.041767
2185,0.017426,0.005964,0.023687
2186,-0.001113,-0.01211,0.041767
2187,0.017426,0.024037,0.041767
2188,-0.001113,0.005964,0.023687
2189,-0.001113,0.005964,0.005607
2190,-0.001113,-0.01211,0.005607
2191,-0.001113,0.005964,0.005607
2192,-0.019652,0.024037,0.005607
2193,0.017426,-0.01211,0.005607
2194,-0.001113,0.024037,-0.012473
2195,-0.019652,-0.01211,-0.012473
2196,0.017426,-0.01211,0.005607
2197,-0.001113,-0.01211,0.041767
2198,0.017426,-0.01211,0.023687
2199,-0.001113,0.005964,0.023687
2200,-0.001113,-0.01211,0.041767
2201,-0.001113,0.005964,0.023687
2202,-0.001113,0.005964,0.023687
2203,-0.001113,0.005964,0.023687
2204,0.017426,-0.01211,0.023687
2205,-0.019652,0.005964,0.005607
2206,-0.001113,0.005964,0.005607
2207,-0.001113,0.024037,0.041767
2208,0.017426,0.005964,-0.012473
2209,-0.019652,0.005964,-0.030552
2210,-0.019652,0.005964,-0.048632
2211,-0.001113,0.024037,-0.012473
2212,-0.001113,0.005964,-0.012473
2213,-0.019652,-0.01211,-0.030552
2214,-0.038191,-0.01211,0.023687
2215,-0.001113,0.005964,0.041767
2216,-0.001113,0.005964,0.005607
2217,-0.001113,0.024037,0.005607
2218,0.017426,0.024037,0.023687
2219,-0.001113,0.005964,0.023687
2220,-0.001113,0.005964,0.005607
2221,0.017426,0.005964,0.023687
2222,-0.019652,-0.01211,0.023687
2223,0.017426,0.005964,0.005607
2224,-0.001113,0.005964,0.005607
2225,-0.019652,0.024037,0.005607
2226,-0.019652,0.005964,-0.012473
2227,-0.001113,0.024037,-0.030552
2228,-0.019652,0.005964,-0.030552
2229,-0.001113,0.005964,0.005607
2230,-0.001113,-0.01211,-0.030552
2231,-0.001113,0.005964,-0.030552
2232,-0.001113,-0.01211,-0.012473
2233,-0.001113,0.005964,0.005607
2234,-0.001113,0.005964,-0.030552
2235,-0.001113,0.005964,-0.030552
2236,0.017426,0.005964,-0.012473
2237,-0.019652,0.005964,0.005607
2238,-0.001113,-0.01211,-0.030552
2239,-0.019652,-0.01211,0.005607
2240,0.017426,0.005964,0.005607
2241,-0.001113,-0.01211,0.005607
2242,-0.001113,-0.01211,-0.012473
2243,-0.001113,-0.01211,0.023687
2244,-0.019652,0.005964,0.005607
2245,0.035965,0.005964,0.023687
2246,-0.001113,-0.01211,0.005607
2247,-0.038191,0.005964,-0.012473
2248,-0.001113,0.005964,-0.012473
2249,0.017426,0.024037,-0.030552
2250,-0.001113,0.005964,0.023687
2251,0.017426,0.005964,0.005607
2252,-0.001113,0.005964,-0.012473
2253,-0.019652,0.005964,0.005607
2254,-0.019652,-0.01211,0.005607
2255,-0.019652,-0.01211,0.005607
2256,-0.019652,-0.01211,-0.012473
2257,-0.019652,-0.01211,0.005607
2258,-0.019652,0.005964,-0.012473
2259,-0.001113,-0.01211,-0.030552
2260,-0.019652,0.005964,0.005607
2261,-0.001113,0.005964,0.023687
2262,-0.001113,0.005964,0.041767
2263,-0.001113,-0.01211,0.005607
2264,-0.001113,0.005964,0.005607
2265,-0.001113,0.005964,0.005607
2266,0.017426,0.024037,0.005607
2267,0.017426,0.024037,-0.012473
2268,-0.001113,0.005964,0.023687
2269,0.017426,0.005964,-0.012473
2270,-0.001113,0.005964,-0.012473
2271,-0.001113,0.005964,-0.012473
2272,-0.001113,0.005964,0.005607
2273,-0.001113,-0.01211,-0.012473
2274,-0.019652,-0.01211,0.023687
2275,0.017426,0.005964,0.023687
2276,-0.019652,0.005964,0.005607
2277,-0.019652,-0.01211,0.005607
2278,-0.019652,-0.01211,0.041767
2279,-0.001113,0.005964,0.023687
2280,-0.001113,0.005964,0.005607
2281,-0.019652,0.005964,-0.012473
2282,0.017426,-0.01211,0.005607
2283,-0.001113,-0.01211,0.005607
2284,-0.038191,0.005964,-0.012473
2285,-0.001113,0.005964,-0.012473
2286,-0.019652,0.005964,-0.012473
2287,-0.019652,0.005964,-0.030552
2288,-0.001113,-0.01211,-0.030552
2289,-0.019652,-0.01211,-0.012473
2290,-0.001113,-0.01211,0.005607
2291,-0.001113,0.024037,-0.030552
2292,0.017426,-0.01211,-0.012473
2293,-0.001113,0.005964,0.023687
2294,-0.001113,0.024037,-0.012473
2295,-0.001113,0.005964,0.005607
2296,-0.001113,0.005964,0.005607
2297,-0.019652,0.005964,-0.012473
2298,-0.001113,-0.01211,0.005607
2299,0.017426,0.005964,-0.012473
2300,-0.001113,0.024037,0.023687
2301,0.017426,0.024037,0.023687
2302,-0.019652,0.04211,0.023687
2303,-0.001113,0.024037,0.059847
2304,-0.001113,-0.01211,0.005607
2305,-0.001113,0.005964,0.005607
2306,-0.038191,0.005964,0.023687
2307,-0.001113,0.024037,0.041767
2308,-0.019652,0.024037,0.059847
2309,-0.019652,-0.01211,0.023687
2310,0.035965,0.005964,0.005607
2311,0.017426,0.024037,0.041767
2312,-0.019652,-0.01211,0.005607
2313,-0.001113,0.005964,0.005607
2314,-0.001113,0.024037,0.005607
2315,0.017426,0.005964,-0.012473
2316,-0.001113,0.005964,-0.030552
2317,-0.001113,-0.01211,-0.012473
2318,-0.001113,-0.01211,-0.030552
2319,0.017426,-0.01211,-0.048632
2320,-0.019652,-0.01211,-0.048632
2321,-0.001113,-0.01211,-0.030552
2322,-0.019652,0.005964,-0.030552
2323,-0.001113,0.005964,0.005607
2324,-0.001113,0.005964,0.005607
2325,-0.001113,-0.01211,0.023687
2326,-0.001113,0.005964,0.023687
2327,-0.001113,0.005964,0.023687
2328,0.017426,-0.01211,0.023687
2329,-0.001113,0.005964,0.023687
2330,0.017426,0.005964,-0.012473
2331,-0.001113,0.005964,0.005607
2332,-0.001113,0.005964,0.023687
2333,-0.001113,0.005964,0.005607
2334,0.017426,-0.01211,0.005607
2335,-0.001113,0.024037,0.077927
2336,0.017426,-0.01211,0.005607
2337,-0.001113,0.005964,-0.012473
2338,-0.001113,0.005964,-0.012473
2339,-0.001113,0.005964,0.005607
2340,-0.001113,0.005964,-0.030552
2341,-0.001113,0.005964,-0.048632
2342,-0.001113,0.005964,-0.030552
2343,-0.001113,-0.01211,-0.030552
2344,-0.001113,0.005964,-0.030552
2345,-0.001113,-0.01211,-0.012473
2346,-0.001113,-0.01211,0.005607
2347,-0.001113,-0.01211,0.023687
2348,-0.001113,0.005964,0.041767
2349,-0.001113,0.005964,0.096007
2350,-0.038191,0.04211,0.077927
2351,-0.001113,0.024037,0.023687
2352,-0.019652,0.024037,0.005607
2353,-0.019652,0.005964,0.023687
2354,-0.001113,0.005964,0.005607
2355,-0.019652,0.005964,-0.012473
2356,-0.019652,0.005964,-0.048632
2357,-0.001113,0.005964,-0.012473
2358,-0.001113,-0.01211,-0.012473
2359,-0.019652,0.005964,-0.030552
2360,-0.001113,0.024037,0.023687
2361,-0.001113,0.005964,0.005607
2362,0.017426,0.005964,0.005607
2363,-0.001113,0.005964,0.023687
2364,0.035965,0.005964,0.041767
2365,-0.001113,0.005964,0.041767
2366,0.017426,0.024037,0.005607
2367,-0.019652,0.005964,0.041767
2368,-0.001113,0.005964,0.041767
2369,-0.001113,-0.01211,0.005607
2370,-0.019652,0.005964,0.023687
2371,-0.001113,0.005964,0.005607
2372,-0.019652,0.005964,0.005607
2373,-0.019652,0.096331,-0.012473
2374,-0.038191,0.005964,-0.030552
2375,-0.001113,0.005964,-0.012473
2376,-0.019652,-0.01211,-0.012473
2377,-0.001113,-0.01211,-0.030552
2378,-0.001113,0.024037,-0.012473
2379,-0.001113,0.005964,-0.030552
2380,-0.001113,0.005964,-0.030552
2381,0.017426,0.005964,-0.012473
2382,-0.001113,0.005964,0.023687
2383,-0.001113,-0.030183,-0.012473
2384,-0.019652,0.005964,0.023687
2385,-0.001113,0.024037,0.005607
2386,-0.019652,-0.01211,0.005607
2387,-0.001113,0.024037,0.005607
2388,-0.001113,-0.01211,0.023687
2389,-0.019652,0.005964,0.005607
2390,-0.019652,-0.01211,-0.012473
2391,-0.001113,0.005964,-0.030552
2392,-0.001113,0.005964,0.005607
2393,-0.001113,0.005964,-0.012473
2394,-0.001113,-0.01211,-0.012473
2395,-0.019652,0.024037,0.005607
2396,-0.001113,0.024037,0.023687
2397,0.017426,0.024037,0.005607
2398,-0.001113,0.005964,0.005607
2399,0.091583,0.005964,0.005607
2400,-0.038191,0.005964,0.005607
2401,-0.019652,-0.01211,-0.012473
2402,-0.001113,0.005964,0.005607
2403,-0.001113,0.024037,0.005607
2404,-0.001113,0.005964,0.023687
2405,-0.001113,0.005964,0.023687
2406,-0.001113,0.005964,0.041767
2407,-0.019652,0.005964,0.005607
2408,-0.001113,0.005964,-0.012473
2409,-0.001113,0.005964,-0.030552
2410,-0.001113,0.005964,0.005607
2411,-0.001113,0.005964,-0.012473
2412,-0.019652,0.005964,-0.012473
2413,-0.001113,0.005964,0.005607
2414,-0.019652,0.005964,-0.012473
2415,0.017426,0.005964,-0.030552
2416,-0.001113,0.024037,0.023687
2417,-0.019652,0.005964,0.023687
2418,-0.019652,-0.01211,0.023687
2419,-0.001113,0.005964,-0.012473
2420,0.017426,0.005964,0.005607
2421,-0.019652,-0.01211,0.023687
2422,0.017426,0.024037,-0.012473
2423,-0.001113,0.005964,0.005607
2424,-0.001113,0.024037,0.041767
2425,-0.019652,0.005964,0.005607
2426,-0.001113,0.005964,0.005607
2427,-0.001113,0.005964,0.023687
2428,-0.001113,0.005964,0.005607
2429,-0.001113,0.005964,-0.012473
2430,-0.001113,0.005964,-0.012473
2431,-0.001113,0.005964,0.005607
2432,0.017426,0.005964,0.005607
2433,-0.019652,0.024037,0.005607
2434,-0.001113,0.005964,0.005607
2435,-0.001113,-0.01211,-0.012473
2436,-0.001113,0.005964,-0.012473
2437,-0.001113,0.005964,-0.012473
2438,-0.001113,0.005964,-0.030552
2439,-0.019652,0.005964,-0.012473
2440,-0.019652,0.005964,0.005607
2441,-0.001113,0.005964,0.041767
2442,-0.019652,0.024037,0.023687
2443,-0.001113,0.005964,0.023687
2444,-0.001113,0.005964,-0.012473
2445,-0.038191,0.005964,0.005607
2446,-0.001113,0.005964,-0.012473
2447,-0.019652,0.005964,-0.030552
2448,-0.001113,0.005964,-0.030552
2449,-0.001113,-0.01211,-0.012473
2450,-0.001113,0.005964,-0.030552
2451,-0.001113,0.005964,0.023687
2452,0.035965,0.005964,0.005607
2453,-0.001113,0.005964,0.005607
2454,-0.019652,0.024037,-0.030552
2455,-0.001113,-0.01211,0.023687
2456,-0.001113,0.005964,0.059847
2457,0.017426,0.024037,0.041767
2458,-0.001113,0.005964,0.041767
2459,-0.001113,0.024037,0.041767
2460,0.017426,0.005964,0.005607
2461,-0.001113,0.005964,-0.012473
2462,-0.001113,-0.01211,-0.030552
2463,-0.001113,0.005964,0.005607
2464,-0.001113,0.005964,-0.012473
2465,-0.001113,0.024037,-0.012473
2466,-0.001113,0.024037,0.005607
2467,-0.001113,0.005964,-0.012473
2468,-0.001113,0.005964,0.005607
2469,-0.001113,-0.01211,0.005607
2470,-0.001113,0.005964,0.023687
2471,-0.001113,0.024037,-0.012473
2472,-0.001113,0.04211,0.023687
2473,-0.001113,0.024037,0.041767
2474,-0.001113,0.005964,0.041767
2475,-0.001113,0.024037,0.005607
2476,-0.001113,0.005964,0.041767
2477,0.017426,-0.01211,0.005607
2478,0.017426,0.005964,-0.012473
2479,-0.001113,0.005964,-0.012473
2480,0.017426,-0.01211,0.005607
2481,-0.001113,-0.01211,-0.030552
2482,-0.001113,0.005964,-0.048632
2483,-0.001113,0.005964,-0.048632
2484,-0.019652,0.005964,-0.030552
2485,-0.001113,0.005964,-0.030552
2486,-0.001113,0.024037,-0.012473
2487,-0.019652,-0.01211,0.005607
2488,-0.019652,0.005964,0.005607
2489,-0.001113,0.005964,0.005607
2490,-0.001113,0.024037,0.023687
2491,-0.001113,0.005964,0.023687
2492,-0.019652,0.005964,0.005607
2493,0.017426,0.024037,-0.030552
2494,-0.001113,0.005964,0.023687
2495,-0.001113,-0.01211,0.023687
2496,-0.001113,0.005964,0.005607
2497,0.017426,-0.01211,0.005607
2498,-0.019652,0.005964,0.023687
2499,0.017426,0.005964,0.041767
2500,-0.001113,0.024037,0.005607
2501,-0.019652,0.005964,0.041767
2502,-0.001113,0.005964,0.005607
2503,-0.001113,0.005964,0.005607
2504,-0.001113,0.005964,0.005607
2505,-0.001113,-0.01211,0.005607
2506,0.035965,0.005964,0.005607
2507,-0.001113,0.005964,0.005607
2508,-0.019652,0.005964,0.023687
2509,-0.001113,0.04211,0.041767
2510,-0.001113,0.005964,0.005607
2511,-0.001113,0.005964,0.005607
2512,-0.001113,0.024037,0.005607
2513,-0.001113,0.005964,0.005607
2514,-0.001113,0.005964,-0.030552
2515,-0.001113,0.005964,0.041767
2516,0.017426,0.005964,0.005607
2517,-0.019652,0.005964,-0.012473
2518,-0.001113,0.005964,-0.012473
2519,-0.001113,0.005964,0.005607
2520,-0.001113,0.005964,-0.030552
2521,-0.001113,0.005964,-0.030552
2522,-0.001113,-0.01211,-0.012473
2523,-0.001113,0.005964,0.023687
2524,-0.019652,0.024037,-0.012473
2525,-0.001113,0.024037,0.005607
2526,-0.001113,0.024037,0.005607
2527,-0.001113,-0.01211,0.023687
2528,-0.001113,0.005964,0.005607
2529,0.017426,-0.01211,0.005607
2530,0.017426,0.005964,0.005607
2531,0.035965,0.005964,0.005607
2532,-0.001113,-0.01211,-0.030552
2533,-0.001113,0.005964,0.005607
2534,-0.001113,0.024037,-0.012473
2535,-0.001113,0.024037,-0.030552
2536,-0.019652,0.005964,-0.012473
2537,-0.019652,0.024037,-0.012473
2538,-0.019652,0.005964,0.005607
2539,-0.001113,0.005964,-0.012473
2540,-0.001113,0.024037,0.005607
2541,-0.001113,0.024037,0.023687
2542,0.017426,0.005964,0.005607
2543,-0.001113,0.005964,0.005607
2544,-0.001113,0.005964,0.005607
2545,-0.019652,-0.01211,0.023687
2546,0.017426,0.005964,0.005607
2547,0.017426,0.005964,0.059847
2548,-0.001113,0.024037,0.041767
2549,-0.001113,0.005964,0.005607
2550,-0.001113,0.024037,-0.012473
2551,-0.001113,0.005964,0.023687
2552,-0.019652,0.024037,0.005607
2553,-0.001113,0.005964,-0.030552
2554,-0.019652,-0.01211,-0.048632
2555,-0.019652,-0.01211,0.005607
2556,-0.019652,0.024037,-0.012473
2557,-0.001113,0.005964,-0.012473
2558,-0.001113,0.005964,-0.012473
2559,-0.001113,0.005964,-0.030552
2560,-0.001113,0.024037,0.023687
2561,-0.019652,0.04211,0.005607
2562,-0.001113,0.005964,0.005607
2563,-0.001113,0.005964,0.041767
2564,-0.001113,0.005964,0.005607
2565,-0.001113,0.024037,0.005607
2566,-0.001113,0.005964,0.005607
2567,0.017426,0.005964,0.005607
2568,0.035965,-0.01211,0.023687
2569,-0.001113,0.024037,0.023687
2570,-0.001113,0.024037,-0.012473
2571,-0.001113,-0.01211,-0.012473
2572,-0.001113,0.005964,-0.012473
2573,-0.001113,0.005964,-0.012473
2574,-0.019652,0.005964,-0.030552
2575,-0.001113,-0.01211,-0.030552
2576,0.017426,0.005964,0.005607
2577,-0.001113,0.024037,0.005607
2578,-0.001113,0.024037,0.023687
2579,-0.001113,0.005964,0.005607
2580,-0.001113,0.005964,0.005607
2581,-0.001113,0.024037,0.005607
2582,-0.001113,0.005964,0.005607
2583,-0.001113,0.005964,0.041767
2584,0.017426,0.005964,0.005607
2585,-0.019652,0.005964,-0.012473
2586,-0.019652,0.024037,0.005607
2587,-0.001113,0.024037,0.005607
2588,0.017426,-0.01211,-0.012473
2589,-0.019652,-0.01211,-0.012473
2590,-0.001113,0.005964,-0.012473
2591,-0.019652,-0.01211,-0.030552
2592,-0.001113,0.005964,-0.048632
2593,-0.001113,0.024037,-0.012473
2594,0.017426,0.024037,0.023687
2595,-0.019652,0.005964,-0.012473
2596,-0.001113,0.005964,-0.012473
2597,-0.019652,0.005964,0.023687
2598,-0.001113,0.005964,0.041767
2599,-0.001113,0.024037,0.023687
2600,0.017426,0.005964,0.041767
2601,-0.001113,0.024037,0.041767
2602,-0.001113,-0.01211,0.005607
2603,0.017426,0.005964,0.023687
2604,-0.001113,0.005964,0.041767
2605,-0.001113,0.005964,-0.012473
2606,-0.001113,0.005964,-0.012473
2607,-0.001113,0.005964,-0.048632
2608,-0.001113,0.024037,-0.012473
2609,0.017426,-0.01211,-0.012473
2610,-0.001113,0.005964,-0.012473
2611,-0.001113,0.005964,0.023687
2612,0.017426,0.005964,0.023687
2613,-0.019652,0.024037,0.005607
2614,-0.001113,0.005964,0.023687
2615,-0.001113,0.024037,0.023687
2616,-0.001113,0.024037,0.023687
2617,0.017426,0.005964,0.005607
2618,-0.001113,0.005964,0.005607
2619,-0.019652,0.005964,0.041767
2620,0.017426,0.005964,0.005607
2621,0.017426,0.005964,0.023687
2622,-0.019652,0.005964,0.041767
2623,-0.001113,0.005964,0.023687
2624,-0.001113,0.005964,-0.012473
2625,-0.001113,0.005964,0.023687
2626,0.035965,0.005964,0.005607
2627,-0.019652,-0.01211,-0.012473
2628,-0.001113,0.005964,-0.030552
2629,-0.019652,0.005964,0.005607
2630,-0.001113,0.005964,-0.012473
2631,-0.001113,0.005964,-0.030552
2632,-0.001113,0.005964,-0.012473
2633,-0.038191,0.005964,0.005607
2634,-0.001113,-0.01211,-0.030552
2635,-0.019652,0.005964,-0.012473
2636,-0.001113,-0.01211,0.005607
2637,-0.019652,0.005964,0.023687
2638,0.017426,0.024037,0.005607
2639,-0.019652,0.005964,0.023687
2640,0.017426,0.005964,0.023687
2641,-0.019652,0.005964,0.023687
2642,-0.001113,-0.01211,0.005607
2643,-0.019652,0.005964,0.023687
2644,-0.001113,0.024037,0.005607
2645,-0.019652,0.024037,-0.012473
2646,-0.001113,0.005964,-0.030552
2647,-0.001113,0.024037,-0.012473
2648,-0.001113,0.005964,-0.030552
2649,-0.001113,0.005964,-0.030552
2650,-0.001113,0.005964,-0.012473
2651,-0.001113,0.005964,0.023687
2652,0.017426,0.005964,-0.012473
2653,-0.001113,0.005964,-0.012473
2654,-0.001113,0.024037,0.005607
2655,-0.019652,0.005964,0.023687
2656,-0.001113,0.024037,-0.012473
2657,-0.001113,0.005964,-0.012473
2658,-0.019652,-0.01211,0.005607
2659,-0.001113,0.096331,0.005607
2660,-0.001113,0.005964,-0.012473
2661,-0.001113,0.005964,0.023687
2662,-0.001113,0.005964,0.023687
2663,-0.001113,0.005964,0.005607
2664,-0.019652,0.024037,-0.012473
2665,-0.001113,0.005964,-0.012473
2666,-0.001113,0.005964,-0.012473
2667,-0.001113,0.005964,-0.030552
2668,-0.019652,0.005964,0.005607
2669,-0.019652,0.005964,-0.012473
2670,-0.001113,0.005964,-0.030552
2671,-0.001113,0.005964,0.005607
2672,-0.038191,0.005964,0.005607
2673,-0.019652,0.005964,0.059847
2674,0.017426,-0.01211,0.041767
2675,-0.001113,-0.01211,0.041767
2676,-0.019652,0.005964,0.059847
2677,0.017426,0.005964,0.005607
2678,0.017426,0.005964,0.041767
2679,-0.001113,0.005964,0.023687
2680,-0.001113,0.005964,0.023687
2681,-0.019652,0.005964,0.005607
2682,-0.019652,0.005964,0.005607
2683,-0.019652,0.005964,0.005607
2684,-0.001113,0.005964,-0.012473
2685,-0.001113,0.005964,-0.030552
2686,-0.019652,0.005964,-0.012473
2687,0.017426,0.005964,-0.030552
2688,0.017426,0.005964,-0.030552
2689,-0.001113,-0.01211,-0.012473
2690,-0.001113,-0.01211,0.005607
2691,-0.001113,0.005964,-0.012473
2692,-0.001113,0.005964,-0.012473
2693,0.017426,0.024037,0.023687
2694,-0.001113,0.005964,0.041767
2695,0.017426,0.024037,0.005607
2696,-0.001113,0.024037,0.023687
2697,-0.001113,0.005964,0.041767
2698,-0.019652,0.005964,0.005607
2699,-0.001113,0.024037,-0.012473
2700,0.017426,0.005964,0.023687
2701,-0.019652,-0.01211,0.005607
2702,-0.001113,0.005964,-0.030552
2703,0.017426,0.005964,-0.030552
2704,-0.001113,0.005964,0.005607
2705,-0.001113,-0.01211,-0.030552
2706,-0.001113,0.005964,-0.030552
2707,-0.019652,0.005964,-0.012473
2708,-0.001113,0.005964,0.005607
2709,-0.001113,0.005964,-0.030552
2710,-0.001113,0.005964,-0.012473
2711,-0.019652,0.024037,0.005607
2712,-0.001113,0.005964,0.023687
2713,-0.001113,0.024037,0.005607
2714,-0.001113,0.024037,0.005607
2715,-0.019652,0.005964,0.041767
2716,-0.019652,0.005964,0.005607
2717,-0.019652,0.005964,0.005607
2718,-0.001113,-0.01211,0.041767
2719,0.017426,0.005964,0.023687
2720,-0.019652,-0.01211,-0.012473
2721,-0.019652,0.005964,0.005607
2722,-0.001113,0.005964,0.023687
2723,-0.001113,0.005964,0.023687
2724,-0.001113,0.005964,-0.012473
2725,-0.001113,0.005964,0.005607
2726,-0.001113,-0.01211,0.023687
2727,-0.019652,0.024037,-0.012473
2728,-0.001113,0.005964,0.005607
2729,-0.001113,0.024037,0.005607
2730,0.017426,0.005964,0.005607
2731,-0.001113,0.024037,0.005607
2732,-0.001113,0.024037,0.041767
2733,-0.001113,0.005964,0.023687
2734,-0.001113,0.024037,0.023687
2735,-0.001113,0.005964,0.005607
2736,0.017426,0.005964,0.023687
2737,-0.019652,-0.01211,0.005607
2738,-0.001113,0.005964,-0.030552
2739,-0.001113,0.005964,-0.012473
2740,-0.001113,-0.01211,-0.012473
2741,-0.019652,-0.01211,-0.012473
2742,-0.001113,0.005964,-0.030552
2743,0.017426,0.005964,0.005607
2744,-0.001113,0.005964,-0.030552
2745,-0.001113,0.005964,-0.030552
2746,-0.001113,0.005964,0.005607
2747,-0.001113,0.005964,0.005607
2748,-0.019652,0.005964,0.023687
2749,-0.019652,0.024037,0.005607
2750,-0.038191,-0.01211,0.023687
2751,0.017426,0.005964,0.041767
2752,0.017426,0.005964,0.005607
2753,-0.001113,0.005964,0.023687
2754,-0.019652,0.024037,0.005607
2755,-0.019652,0.005964,-0.012473
2756,0.017426,0.024037,-0.012473
2757,0.017426,0.005964,0.005607
2758,-0.019652,-0.01211,0.005607
2759,-0.001113,-0.01211,-0.012473
2760,0.017426,0.005964,-0.030552
2761,-0.001113,0.005964,-0.012473
2762,-0.019652,0.005964,-0.012473
2763,-0.001113,0.005964,-0.012473
2764,0.017426,0.024037,-0.012473
2765,-0.019652,-0.01211,0.005607
2766,-0.001113,0.024037,-0.030552
2767,-0.019652,0.024037,0.005607
2768,-0.001113,-0.01211,0.005607
2769,-0.019652,0.005964,0.023687
2770,-0.019652,0.005964,0.005607
2771,-0.001113,0.005964,0.023687
2772,0.017426,0.024037,0.023687
2773,-0.001113,0.005964,0.023687
2774,-0.001113,0.005964,0.005607
2775,-0.019652,0.005964,0.023687
2776,-0.001113,0.005964,0.023687
2777,-0.001113,0.024037,0.023687
2778,-0.001113,0.005964,0.005607
2779,-0.019652,0.005964,0.005607
2780,-0.001113,0.005964,-0.012473
2781,-0.001113,0.005964,-0.012473
2782,-0.001113,0.005964,0.005607
2783,0.017426,0.005964,0.005607
2784,0.017426,0.005964,0.005607
2785,-0.001113,-0.01211,0.005607
2786,-0.001113,0.024037,0.023687
2787,-0.001113,0.005964,0.023687
2788,-0.001113,0.024037,0.005607
2789,-0.019652,0.005964,0.005607
2790,-0.001113,0.005964,0.005607
2791,-0.001113,0.005964,-0.012473
2792,-0.019652,0.005964,-0.012473
2793,-0.001113,0.024037,0.005607
2794,-0.019652,0.005964,-0.012473
2795,-0.001113,0.005964,-0.012473
2796,0.017426,0.005964,-0.012473
2797,-0.019652,0.024037,-0.012473
2798,-0.001113,0.005964,-0.012473
2799,-0.001113,0.024037,-0.012473
2800,-0.019652,-0.01211,0.005607
2801,-0.001113,-0.01211,-0.030552
2802,0.017426,-0.01211,-0.012473
2803,-0.001113,0.005964,0.005607
2804,-0.001113,0.005964,0.041767
2805,-0.038191,-0.01211,0.005607
2806,-0.001113,0.005964,0.005607
2807,-0.001113,0.005964,0.041767
2808,-0.001113,0.005964,0.005607
2809,0.017426,0.005964,0.005607
2810,0.035965,-0.01211,0.041767
2811,0.017426,0.024037,0.005607
2812,-0.001113,0.024037,0.005607
2813,-0.001113,0.005964,-0.012473
2814,-0.001113,0.005964,-0.030552
2815,-0.019652,0.024037,-0.012473
2816,-0.001113,0.005964,-0.012473
2817,-0.001113,0.005964,-0.012473
2818,-0.001113,0.005964,0.005607
2819,0.017426,0.005964,-0.030552
2820,-0.019652,-0.01211,-0.012473
2821,-0.001113,-0.01211,-0.012473
2822,-0.001113,0.005964,0.005607
2823,-0.001113,-0.01211,-0.030552
2824,0.017426,0.005964,-0.012473
2825,-0.001113,-0.01211,-0.012473
2826,-0.001113,0.005964,-0.012473
2827,-0.001113,0.005964,-0.030552
2828,-0.019652,0.005964,0.005607
2829,-0.001113,0.005964,-0.012473
2830,-0.019652,0.024037,-0.012473
2831,0.017426,-0.01211,-0.048632
2832,-0.019652,0.024037,0.005607
2833,-0.001113,0.005964,-0.012473
2834,-0.001113,0.005964,-0.012473
2835,-0.001113,-0.01211,0.005607
2836,-0.019652,0.005964,0.023687
2837,-0.001113,0.024037,0.005607
2838,-0.019652,0.005964,0.041767
2839,0.017426,0.005964,0.041767
2840,-0.019652,0.005964,0.041767
2841,-0.001113,0.005964,0.023687
2842,-0.038191,-0.01211,0.005607
2843,-0.001113,-0.01211,0.023687
2844,-0.001113,0.005964,0.005607
2845,0.017426,0.024037,0.005607
2846,-0.019652,0.005964,0.023687
2847,-0.019652,0.024037,0.023687
2848,-0.001113,-0.01211,-0.012473
2849,0.017426,0.005964,-0.012473
2850,-0.001113,0.005964,-0.012473
2851,-0.001113,0.005964,-0.012473
2852,-0.001113,0.005964,-0.012473
2853,0.017426,0.024037,-0.012473
2854,0.017426,-0.01211,-0.012473
2855,-0.001113,-0.01211,-0.030552
2856,-0.001113,0.005964,0.005607
2857,-0.019652,0.005964,0.023687
2858,-0.019652,0.005964,0.023687
2859,-0.001113,0.005964,-0.012473
2860,-0.001113,0.005964,0.023687
2861,-0.001113,-0.01211,0.023687
2862,0.017426,0.024037,0.005607
2863,-0.019652,0.005964,0.023687
2864,0.017426,0.005964,0.005607
2865,-0.001113,0.024037,0.005607
2866,-0.001113,0.024037,-0.012473
2867,-0.019652,0.024037,0.023687
2868,0.017426,0.005964,0.005607
2869,-0.019652,0.005964,-0.012473
2870,-0.001113,0.005964,-0.012473
2871,0.017426,0.005964,-0.012473
2872,-0.001113,-0.01211,-0.030552
2873,0.017426,0.005964,-0.048632
2874,-0.001113,-0.01211,-0.030552
2875,-0.001113,-0.01211,-0.012473
2876,-0.019652,-0.01211,-0.030552
2877,0.017426,-0.01211,-0.012473
2878,-0.001113,0.005964,0.005607
2879,0.035965,0.005964,0.005607
2880,-0.001113,0.005964,0.023687
2881,-0.001113,0.005964,0.041767
2882,-0.001113,0.024037,0.041767
2883,-0.019652,0.005964,0.005607
2884,-0.019652,0.005964,0.005607
2885,-0.001113,0.024037,0.005607
2886,-0.001113,0.005964,0.023687
2887,-0.019652,0.005964,0.005607
2888,-0.001113,0.005964,-0.012473
2889,0.017426,0.005964,0.005607
2890,-0.001113,0.024037,0.005607
2891,-0.001113,0.005964,0.005607
2892,-0.001113,0.005964,0.005607
2893,0.017426,0.005964,0.023687
2894,-0.001113,0.005964,0.005607
2895,-0.019652,0.005964,0.005607
2896,0.017426,0.024037,0.023687
2897,-0.019652,0.005964,0.005607
2898,-0.001113,0.005964,0.005607
2899,-0.001113,0.005964,0.023687
2900,-0.001113,-0.01211,0.005607
2901,-0.019652,0.024037,0.005607
2902,-0.001113,0.005964,-0.030552
2903,-0.019652,0.005964,0.005607
2904,0.017426,-0.01211,-0.030552
2905,-0.001113,0.005964,-0.048632
2906,-0.001113,0.005964,-0.030552
2907,-0.001113,0.005964,-0.012473
2908,-0.001113,-0.01211,-0.030552
2909,-0.001113,0.005964,0.023687
2910,-0.019652,-0.01211,0.023687
2911,-0.019652,0.024037,0.005607
2912,-0.001113,0.005964,0.023687
2913,-0.001113,0.005964,0.023687
2914,-0.019652,0.005964,0.041767
2915,0.017426,0.005964,0.005607
2916,-0.019652,0.005964,0.023687
2917,-0.001113,0.005964,0.041767
2918,-0.001113,0.024037,0.005607
2919,-0.001113,0.005964,-0.030552
2920,-0.019652,0.005964,0.005607
2921,-0.001113,0.005964,0.005607
2922,-0.019652,0.005964,-0.012473
2923,-0.001113,0.024037,-0.012473
2924,-0.019652,0.024037,-0.012473
2925,-0.019652,0.005964,-0.012473
2926,-0.019652,0.005964,-0.030552
2927,0.091583,0.005964,0.005607
2928,-0.001113,0.005964,0.005607
2929,-0.001113,0.005964,-0.030552
2930,-0.019652,0.005964,-0.012473
2931,-0.001113,0.005964,-0.012473
2932,-0.001113,0.005964,0.023687
2933,-0.001113,0.005964,0.005607
2934,-0.019652,0.024037,0.023687
2935,-0.019652,0.005964,0.041767
2936,-0.001113,0.024037,0.023687
2937,-0.001113,0.005964,0.005607
2938,-0.019652,0.005964,0.005607
2939,-0.001113,-0.01211,0.005607
2940,0.017426,0.024037,-0.012473
2941,-0.038191,0.005964,-0.012473
2942,-0.001113,0.024037,0.005607
2943,0.017426,-0.01211,0.005607
2944,-0.019652,-0.01211,-0.012473
2945,0.017426,0.024037,0.023687
2946,-0.001113,0.024037,0.023687
2947,-0.001113,0.024037,-0.012473
2948,-0.001113,0.024037,-0.012473
2949,-0.001113,0.005964,0.023687
2950,-0.001113,0.005964,0.023687
2951,-0.038191,-0.01211,0.023687
2952,-0.001113,0.005964,0.023687
2953,0.017426,-0.01211,0.041767
2954,-0.001113,0.04211,0.023687
2955,-0.001113,-0.01211,0.023687
2956,-0.001113,0.005964,0.023687
2957,-0.001113,0.005964,-0.012473
2958,-0.001113,-0.01211,-0.012473
2959,0.017426,0.024037,-0.012473
2960,-0.019652,0.005964,-0.012473
2961,-0.001113,0.024037,-0.012473
2962,-0.001113,0.005964,-0.030552
2963,-0.001113,0.005964,-0.012473
2964,-0.001113,0.024037,0.005607
2965,-0.019652,0.024037,0.005607
2966,-0.019652,0.005964,0.005607
2967,-0.001113,0.005964,0.023687
2968,-0.001113,0.005964,0.023687
2969,-0.001113,-0.01211,-0.012473
2970,-0.001113,0.005964,0.005607
2971,-0.001113,-0.030183,0.023687
2972,-0.019652,0.024037,0.005607
2973,-0.019652,0.005964,0.005607
2974,-0.001113,0.005964,0.005607
2975,-0.019652,0.005964,-0.012473
2976,0.017426,0.005964,-0.012473
2977,-0.001113,0.024037,0.041767
2978,-0.001113,-0.01211,0.023687
2979,-0.001113,0.005964,0.005607
2980,-0.019652,0.005964,-0.012473
2981,-0.019652,0.024037,-0.012473
2982,0.017426,0.005964,-0.012473
2983,-0.019652,0.024037,0.005607
2984,0.017426,0.024037,0.005607
2985,0.017426,-0.01211,0.023687
2986,-0.001113,0.005964,-0.012473
2987,-0.001113,0.024037,0.005607
2988,-0.001113,0.005964,0.023687
2989,-0.001113,0.005964,0.041767
2990,-0.001113,0.005964,0.005607
2991,-0.038191,0.024037,0.023687
2992,0.017426,0.005964,0.041767
2993,-0.019652,0.005964,0.005607
2994,-0.001113,0.024037,-0.012473
2995,-0.001113,0.005964,0.023687
2996,-0.001113,0.005964,0.005607
2997,-0.001113,0.005964,0.005607
2998,-0.019652,0.005964,-0.030552
2999,-0.001113,0.024037,-0.012473
3000,-0.001113,0.005964,-0.030552
3001,-0.001113,0.005964,-0.030552
3002,-0.019652,0.005964,-0.012473
3003,0.035965,0.005964,0.005607
3004,-0.019652,0.005964,-0.012473
3005,-0.001113,0.005964,-0.012473
3006,-0.001113,0.005964,0.005607
3007,-0.001113,0.005964,0.005607
3008,-0.038191,0.005964,0.005607
3009,0.017426,0.024037,0.041767
3010,-0.001113,0.024037,0.041767
3011,0.017426,0.005964,0.023687
3012,0.017426,-0.01211,0.005607
3013,0.017426,0.005964,0.023687
3014,-0.001113,0.024037,0.005607
3015,0.017426,0.024037,-0.012473
3016,0.017426,0.005964,-0.012473
3017,0.017426,0.005964,-0.012473
3018,-0.001113,0.005964,-0.030552
3019,0.017426,0.005964,-0.012473
3020,-0.001113,0.005964,-0.012473
3021,-0.001113,0.005964,-0.048632
3022,-0.001113,0.005964,-0.012473
3023,-0.001113,0.005964,0.005607
3024,-0.001113,0.005964,0.041767
3025,-0.001113,0.005964,0.023687
3026,-0.001113,0.04211,0.023687
3027,-0.019652,0.005964,0.041767
3028,-0.001113,0.005964,0.023687
3029,-0.001113,0.005964,0.005607
3030,0.017426,0.005964,0.041767
3031,0.017426,0.005964,0.023687
3032,-0.001113,0.005964,0.005607
3033,-0.001113,0.005964,-0.012473
3034,-0.001113,0.024037,-0.030552
3035,-0.019652,0.005964,-0.012473
3036,-0.019652,0.024037,-0.048632
3037,-0.001113,0.005964,-0.012473
3038,0.017426,0.005964,0.005607
3039,-0.001113,0.005964,-0.030552
3040,-0.001113,0.005964,-0.012473
3041,0.017426,0.005964,-0.012473
3042,-0.019652,0.005964,0.005607
3043,-0.001113,0.024037,0.005607
3044,-0.001113,0.005964,-0.012473
3045,0.017426,0.005964,0.005607
3046,-0.001113,0.005964,0.005607
3047,-0.001113,-0.01211,-0.012473
3048,-0.001113,0.024037,0.023687
3049,-0.001113,0.005964,0.005607
3050,-0.001113,0.024037,0.023687
3051,0.017426,-0.01211,0.005607
3052,-0.019652,0.024037,0.041767
3053,-0.001113,0.024037,0.023687
3054,-0.001113,0.005964,-0.030552
3055,-0.001113,0.024037,-0.030552
3056,-0.001113,0.024037,0.005607
3057,-0.019652,0.005964,-0.030552
3058,-0.038191,0.005964,-0.012473
3059,-0.001113,0.024037,0.023687
3060,-0.001113,0.005964,0.023687
3061,-0.001113,0.024037,0.005607
3062,-0.001113,0.005964,0.023687
3063,-0.001113,0.005964,0.005607
3064,-0.001113,0.005964,0.005607
3065,-0.001113,-0.01211,0.005607
3066,-0.001113,0.005964,0.023687
3067,-0.001113,0.005964,0.005607
3068,-0.019652,0.005964,-0.030552
3069,-0.001113,0.005964,-0.012473
3070,-0.001113,0.005964,0.005607
3071,-0.019652,0.024037,-0.030552
3072,-0.001113,-0.01211,-0.030552
3073,-0.001113,-0.01211,-0.012473
3074,-0.001113,0.005964,0.005607
3075,-0.019652,0.024037,-0.012473
3076,-0.001113,0.024037,0.005607
3077,-0.001113,0.005964,0.005607
3078,-0.001113,0.005964,0.041767
3079,-0.001113,0.005964,0.005607
3080,0.017426,0.024037,0.023687
3081,-0.001113,0.005964,0.041767
3082,-0.001113,0.005964,0.005607
3083,-0.019652,0.005964,0.023687
3084,-0.019652,0.005964,0.023687
3085,0.017426,0.024037,0.005607
3086,-0.001113,0.005964,-0.012473
3087,-0.019652,0.005964,0.023687
3088,-0.001113,0.005964,0.005607
3089,-0.019652,0.024037,0.005607
3090,-0.001113,0.005964,-0.012473
3091,-0.019652,0.005964,-0.012473
3092,0.017426,0.005964,0.005607
3093,0.017426,0.005964,-0.012473
3094,-0.001113,0.024037,-0.012473
3095,-0.001113,0.005964,0.005607
3096,-0.001113,0.024037,-0.030552
3097,0.017426,0.005964,0.005607
3098,-0.001113,0.005964,0.023687
3099,-0.001113,0.005964,0.023687
3100,-0.001113,0.005964,0.005607
3101,-0.001113,0.005964,0.023687
3102,-0.001113,0.005964,0.023687
3103,-0.001113,0.005964,0.005607
3104,-0.001113,-0.01211,-0.012473
3105,-0.001113,-0.01211,0.023687
3106,-0.001113,0.005964,0.005607
3107,-0.001113,0.005964,-0.012473
3108,-0.001113,-0.01211,-0.030552
3109,-0.001113,0.005964,-0.012473
3110,-0.001113,0.005964,-0.030552
3111,-0.001113,0.005964,-0.012473
3112,0.017426,-0.01211,0.005607
3113,-0.001113,0.005964,0.041767
3114,-0.001113,-0.01211,-0.012473
3115,-0.001113,0.024037,-0.012473
3116,-0.001113,0.024037,0.023687
3117,-0.001113,0.024037,0.041767
3118,-0.001113,0.005964,0.023687
3119,-0.019652,0.024037,0.023687
3120,-0.001113,-0.01211,0.041767
3121,-0.001113,-0.01211,0.005607
3122,-0.019652,0.005964,0.023687
3123,-0.001113,0.005964,0.023687
3124,-0.019652,0.005964,-0.012473
3125,-0.001113,0.005964,-0.030552
3126,-0.001113,0.005964,-0.048632
3127,0.017426,0.005964,-0.012473
3128,0.017426,0.005964,-0.030552
3129,-0.001113,0.005964,-0.012473
3130,-0.001113,0.024037,0.041767
3131,0.017426,0.005964,0.005607
3132,-0.001113,0.005964,-0.012473
3133,-0.001113,0.005964,0.023687
3134,-0.019652,0.005964,0.005607
3135,-0.001113,0.024037,0.023687
3136,-0.001113,-0.01211,0.005607
3137,-0.001113,0.024037,-0.012473
3138,-0.038191,0.024037,0.023687
3139,-0.038191,0.005964,-0.012473
3140,-0.001113,0.005964,-0.012473
3141,-0.001113,-0.01211,0.023687
3142,-0.019652,0.005964,0.005607
3143,-0.001113,0.024037,-0.012473
3144,-0.001113,0.005964,0.023687
3145,-0.001113,0.005964,0.023687
3146,-0.019652,0.024037,0.023687
3147,-0.019652,0.024037,0.005607
3148,-0.001113,0.005964,0.041767
3149,-0.001113,0.024037,0.023687
3150,0.017426,0.024037,0.023687
3151,-0.019652,0.005964,0.005607
3152,0.017426,0.005964,0.023687
3153,-0.001113,0.005964,-0.012473
3154,-0.001113,0.024037,-0.012473
3155,-0.001113,0.005964,0.005607
3156,-0.001113,0.024037,0.023687
3157,-0.001113,0.005964,0.005607
3158,-0.001113,0.024037,0.023687
3159,-0.001113,0.005964,0.005607
3160,-0.001113,-0.01211,0.023687
3161,-0.001113,0.005964,-0.012473
3162,-0.001113,0.005964,0.023687
3163,-0.019652,0.024037,0.005607
3164,-0.019652,0.005964,-0.012473
3165,0.017426,0.005964,-0.030552
3166,0.017426,0.024037,0.005607
3167,-0.019652,0.04211,-0.030552
3168,-0.001113,-0.01211,-0.012473
3169,-0.001113,0.005964,-0.012473
3170,-0.001113,0.005964,0.023687
3171,-0.001113,0.005964,-0.030552
3172,0.017426,0.024037,-0.012473
3173,-0.001113,0.005964,0.023687
3174,0.017426,-0.01211,0.023687
3175,-0.001113,0.005964,0.005607
3176,0.017426,0.024037,0.041767
3177,-0.001113,0.005964,0.023687
3178,-0.019652,0.005964,-0.030552
3179,-0.001113,0.005964,-0.012473
3180,-0.001113,-0.01211,0.005607
3181,-0.001113,0.005964,-0.012473
3182,0.017426,0.005964,-0.030552
3183,-0.019652,-0.01211,-0.012473
3184,-0.001113,-0.01211,0.005607
3185,0.017426,0.005964,-0.012473
3186,-0.001113,0.005964,0.005607
3187,-0.001113,-0.01211,0.005607
3188,-0.001113,0.005964,0.023687
3189,-0.001113,0.024037,0.005607
3190,-0.001113,0.024037,0.041767
3191,-0.001113,0.005964,0.041767
3192,0.017426,0.005964,0.023687
3193,0.017426,0.005964,0.023687
3194,-0.001113,0.024037,0.023687
3195,-0.019652,0.005964,-0.012473
3196,0.017426,0.024037,0.005607
3197,-0.019652,0.024037,0.023687
3198,0.017426,0.005964,0.005607
3199,-0.019652,0.005964,0.023687
3200,-0.001113,-0.01211,-0.012473
3201,-0.001113,0.005964,-0.012473
3202,-0.019652,-0.01211,-0.030552
3203,-0.019652,0.005964,-0.030552
3204,0.017426,0.005964,-0.012473
3205,-0.001113,-0.01211,0.023687
3206,-0.001113,0.024037,-0.030552
3207,0.017426,0.005964,0.005607
3208,-0.019652,0.005964,0.023687
3209,-0.001113,0.005964,0.023687
3210,-0.001113,0.024037,0.005607
3211,-0.001113,0.024037,0.023687
3212,-0.019652,0.024037,0.041767
3213,-0.001113,0.024037,0.023687
3214,-0.001113,0.005964,-0.012473
3215,-0.001113,-0.01211,0.023687
3216,0.017426,0.005964,-0.012473
3217,-0.001113,0.005964,-0.012473
3218,-0.019652,-0.01211,-0.012473
3219,-0.001113,-0.01211,0.005607
3220,-0.001113,0.024037,-0.012473
3221,-0.001113,0.005964,-0.012473
3222,-0.001113,0.005964,0.005607
3223,-0.001113,0.024037,0.023687
3224,-0.019652,0.005964,-0.012473
3225,-0.001113,0.005964,0.005607
3226,-0.001113,0.005964,0.005607
3227,-0.001113,0.005964,0.023687
3228,-0.038191,0.005964,0.005607
3229,-0.001113,-0.01211,0.023687
3230,-0.019652,0.005964,0.041767
3231,-0.001113,0.005964,0.023687
3232,0.017426,-0.01211,0.005607
3233,-0.001113,0.005964,0.023687
3234,-0.001113,0.005964,0.005607
3235,-0.038191,0.024037,-0.012473
3236,0.017426,0.005964,-0.012473
3237,-0.001113,0.005964,-0.012473
3238,-0.001113,-0.01211,-0.030552
3239,-0.001113,0.005964,-0.030552
3240,-0.001113,0.005964,-0.030552
3241,0.017426,-0.01211,0.005607
3242,-0.019652,0.005964,-0.012473
3243,-0.001113,0.005964,-0.012473
3244,0.017426,0.005964,0.005607
3245,0.017426,-0.030183,0.023687
3246,0.017426,-0.01211,0.005607
3247,-0.019652,0.005964,0.023687
3248,-0.001113,0.005964,0.023687
3249,-0.001113,0.005964,0.023687
3250,-0.019652,0.04211,0.023687
3251,-0.001113,0.005964,0.041767
3252,-0.001113,0.005964,0.005607
3253,-0.001113,0.005964,-0.012473
3254,-0.001113,0.005964,-0.030552
3255,-0.001113,-0.01211,0.005607
3256,-0.001113,0.005964,-0.012473
3257,-0.001113,0.024037,-0.012473
3258,-0.019652,0.005964,0.023687
3259,-0.001113,0.005964,-0.030552
3260,-0.001113,0.005964,-0.012473
3261,-0.001113,0.005964,0.005607
3262,-0.001113,0.024037,0.023687
3263,-0.001113,0.005964,0.023687
3264,-0.001113,0.005964,0.005607
3265,-0.001113,0.005964,0.023687
3266,0.017426,0.005964,0.023687
3267,-0.001113,0.005964,0.005607
3268,-0.019652,0.024037,0.023687
3269,-0.001113,0.005964,0.023687
3270,-0.001113,0.005964,0.005607
3271,-0.019652,-0.01211,-0.012473
3272,-0.019652,0.024037,0.005607
3273,-0.019652,-0.01211,-0.012473
3274,-0.001113,0.005964,-0.048632
3275,-0.019652,-0.01211,-0.048632
3276,-0.019652,0.005964,-0.012473
3277,0.017426,0.005964,-0.030552
3278,0.017426,0.005964,-0.030552
3279,-0.038191,0.005964,0.005607
3280,-0.019652,0.005964,0.023687
3281,-0.001113,-0.01211,0.005607
3282,0.017426,0.005964,0.023687
3283,-0.019652,0.005964,0.041767
3284,-0.001113,0.024037,0.041767
3285,-0.001113,0.024037,0.023687
3286,-0.019652,0.005964,0.023687
3287,-0.001113,0.005964,0.023687
3288,-0.001113,-0.01211,0.005607
3289,-0.019652,-0.01211,-0.012473
3290,-0.001113,0.005964,0.005607
3291,-0.001113,0.024037,0.023687
3292,-0.001113,0.005964,-0.012473
3293,0.017426,0.005964,-0.012473
3294,-0.001113,0.005964,-0.012473
3295,-0.001113,0.005964,-0.012473
3296,-0.001113,-0.01211,-0.012473
3297,-0.001113,0.024037,-0.012473
3298,-0.019652,0.005964,0.023687
3299,-0.019652,0.024037,-0.012473
3300,-0.001113,0.005964,0.023687
3301,-0.001113,0.005964,0.041767
3302,-0.001113,0.005964,0.023687
3303,-0.019652,0.005964,0.005607
3304,-0.019652,0.005964,0.005607
3305,-0.001113,-0.01211,0.023687
3306,-0.001113,0.005964,0.005607
3307,-0.019652,0.024037,-0.012473
3308,-0.019652,0.005964,0.005607
3309,-0.001113,0.005964,-0.012473
3310,-0.001113,0.005964,-0.012473
3311,-0.019652,-0.01211,-0.012473
3312,-0.001113,0.005964,0.005607
3313,-0.001113,0.005964,-0.012473
3314,0.017426,0.024037,0.005607
3315,-0.019652,0.005964,0.023687
3316,0.017426,0.005964,-0.030552
3317,-0.019652,0.005964,-0.012473
3318,-0.001113,0.005964,0.005607
3319,-0.001113,0.005964,0.023687
3320,0.017426,0.005964,0.023687
3321,-0.001113,-0.01211,0.005607
3322,-0.001113,0.024037,0.023687
3323,-0.019652,-0.01211,0.023687
3324,0.017426,0.005964,0.005607
3325,-0.001113,0.005964,0.023687
3326,-0.001113,0.024037,0.023687
3327,0.017426,0.024037,0.005607
3328,-0.001113,0.005964,-0.012473
3329,-0.001113,0.024037,-0.012473
3330,0.017426,0.005964,-0.012473
3331,-0.001113,-0.01211,-0.012473
3332,-0.001113,0.005964,-0.030552
3333,-0.001113,0.024037,-0.012473
3334,-0.019652,0.024037,-0.012473
3335,-0.001113,0.024037,-0.012473
3336,-0.001113,0.024037,0.005607
3337,0.017426,0.005964,0.023687
3338,0.017426,0.005964,0.005607
3339,-0.019652,-0.01211,0.005607
3340,-0.001113,-0.01211,0.005607
3341,-0.019652,0.005964,0.023687
3342,-0.001113,0.005964,-0.030552
3343,-0.001113,0.005964,0.005607
3344,-0.001113,0.005964,0.005607
3345,-0.001113,0.005964,0.005607
3346,-0.001113,-0.01211,-0.012473
3347,-0.001113,-0.01211,0.005607
3348,-0.019652,0.005964,0.005607
3349,-0.001113,0.04211,0.005607
3350,0.017426,0.024037,-0.012473
3351,-0.001113,0.005964,0.005607
3352,-0.001113,0.024037,-0.012473
3353,0.017426,0.005964,-0.012473
3354,-0.019652,0.005964,0.005607
3355,-0.019652,0.005964,0.023687
3356,-0.019652,0.005964,-0.012473
3357,-0.001113,-0.01211,-0.012473
3358,0.017426,0.024037,0.005607
3359,-0.001113,0.005964,0.023687
3360,-0.019652,0.005964,0.005607
3361,-0.001113,0.024037,0.023687
3362,-0.001113,0.005964,0.005607
3363,-0.001113,0.005964,0.005607
3364,-0.001113,0.005964,-0.012473
3365,-0.001113,0.005964,0.041767
3366,0.017426,0.005964,0.023687
3367,-0.001113,0.024037,0.005607
3368,-0.019652,-0.01211,-0.012473
3369,-0.019652,0.005964,-0.012473
3370,0.017426,0.005964,0.005607
3371,-0.001113,0.005964,0.005607
3372,-0.001113,0.024037,0.023687
3373,-0.001113,0.005964,0.023687
3374,0.017426,0.024037,-0.012473
3375,-0.05673,0.005964,0.005607
3376,-0.019652,0.024037,0.005607
3377,0.017426,0.005964,0.005607
3378,-0.001113,-0.01211,-0.012473
3379,-0.001113,0.005964,0.005607
3380,-0.001113,0.005964,0.023687
3381,-0.001113,0.024037,0.005607
3382,-0.019652,0.024037,0.023687
3383,-0.001113,-0.01211,0.023687
3384,-0.001113,0.005964,0.023687
3385,0.017426,0.024037,0.005607
3386,-0.001113,0.005964,0.005607
3387,-0.001113,0.005964,-0.012473
3388,-0.001113,0.005964,-0.012473
3389,0.017426,0.005964,-0.030552
3390,-0.001113,0.005964,0.005607
3391,-0.001113,0.024037,-0.012473
3392,-0.001113,0.024037,0.005607
3393,-0.001113,0.024037,0.023687
3394,-0.001113,0.005964,0.023687
3395,-0.019652,0.005964,0.023687
3396,-0.001113,0.024037,0.005607
3397,0.017426,0.005964,0.023687
3398,0.035965,0.005964,0.005607
3399,-0.001113,0.024037,0.005607
3400,-0.001113,0.005964,0.041767
3401,-0.001113,0.005964,0.005607
3402,-0.001113,0.024037,-0.030552
3403,-0.001113,-0.01211,-0.030552
3404,-0.001113,0.005964,-0.030552
3405,-0.001113,0.005964,-0.012473
3406,-0.019652,0.005964,-0.012473
3407,-0.001113,0.005964,-0.012473
3408,0.017426,0.024037,0.005607
3409,-0.019652,0.005964,-0.030552
3410,0.017426,0.005964,-0.012473
3411,-0.001113,0.024037,-0.012473
3412,-0.001113,-0.01211,0.023687
3413,0.017426,0.005964,0.005607
3414,-0.001113,0.024037,0.041767
3415,-0.019652,0.024037,0.023687
3416,-0.001113,0.024037,0.023687
3417,0.017426,0.005964,0.005607
3418,-0.019652,0.005964,0.023687
3419,-0.001113,0.024037,0.005607
3420,0.091583,-0.01211,-0.012473
3421,0.017426,0.024037,-0.012473
3422,-0.001113,0.005964,0.005607
3423,-0.038191,0.005964,0.005607
3424,-0.038191,0.005964,-0.012473
3425,-0.001113,0.005964,-0.012473
3426,-0.001113,0.005964,-0.012473
3427,-0.001113,0.005964,-0.030552
3428,-0.019652,0.04211,0.005607
3429,0.017426,-0.01211,0.005607
3430,-0.001113,0.005964,0.023687
3431,-0.019652,-0.01211,0.005607
3432,-0.001113,0.024037,-0.048632
3433,0.017426,0.005964,0.023687
3434,-0.001113,0.005964,0.005607
3435,-0.001113,0.005964,0.005607
3436,-0.001113,0.005964,0.041767
3437,-0.001113,-0.01211,0.005607
3438,-0.001113,-0.030183,-0.012473
3439,-0.001113,-0.01211,-0.030552
3440,-0.019652,0.005964,-0.012473
3441,-0.019652,0.024037,-0.012473
3442,-0.001113,0.005964,-0.012473
3443,-0.019652,-0.01211,0.005607
3444,-0.019652,0.005964,0.005607
3445,0.017426,0.024037,0.023687
3446,-0.001113,0.024037,0.059847
3447,0.035965,0.024037,0.059847
3448,-0.001113,0.024037,0.005607
3449,0.017426,0.024037,0.041767
3450,-0.001113,0.024037,0.041767
3451,-0.001113,0.024037,0.023687
3452,-0.001113,0.005964,0.005607
3453,-0.019652,0.024037,0.023687
3454,-0.001113,0.005964,0.005607
3455,-0.001113,0.005964,-0.012473
3456,-0.001113,-0.030183,-0.030552
3457,-0.019652,-0.01211,0.005607
3458,-0.001113,-0.01211,-0.030552
3459,-0.001113,0.024037,-0.048632
3460,-0.019652,0.005964,-0.030552
3461,-0.001113,0.024037,-0.012473
3462,0.017426,0.005964,-0.030552
3463,0.017426,0.005964,-0.012473
3464,-0.001113,-0.01211,0.005607
3465,-0.001113,0.005964,0.023687
3466,-0.001113,0.005964,0.005607
3467,-0.001113,0.024037,0.041767
3468,-0.001113,0.024037,0.023687
3469,-0.001113,-0.01211,0.041767
3470,-0.001113,0.005964,0.023687
3471,-0.001113,0.005964,0.023687
3472,-0.001113,0.005964,0.023687
3473,-0.001113,0.005964,0.005607
3474,-0.001113,0.005964,-0.012473
3475,-0.001113,0.005964,0.023687
3476,-0.001113,0.024037,0.005607
3477,-0.001113,0.005964,-0.030552
3478,-0.001113,0.005964,-0.048632
3479,-0.001113,0.005964,-0.012473
3480,-0.019652,0.005964,-0.048632
3481,-0.001113,0.005964,-0.012473
3482,-0.001113,0.005964,-0.012473
3483,-0.019652,0.005964,0.023687
3484,-0.019652,0.005964,-0.012473
3485,-0.001113,0.024037,0.005607
3486,-0.019652,0.005964,0.023687
3487,-0.001113,0.005964,0.023687
3488,-0.001113,0.005964,0.005607
3489,-0.001113,-0.01211,0.023687
3490,-0.019652,0.024037,0.005607
3491,-0.019652,0.005964,0.005607
3492,-0.001113,0.005964,0.023687
3493,-0.001113,0.024037,0.005607
3494,0.017426,0.005964,0.005607
3495,-0.001113,0.024037,-0.030552
3496,-0.001113,0.005964,-0.012473
3497,-0.019652,-0.01211,-0.030552
3498,-0.001113,0.005964,-0.030552
3499,-0.019652,0.005964,-0.012473
3500,-0.001113,0.005964,-0.012473
3501,-0.001113,0.005964,-0.048632
3502,-0.001113,0.005964,-0.012473
3503,-0.038191,0.005964,0.023687
3504,0.017426,0.005964,0.041767
3505,-0.001113,0.005964,0.041767
3506,-0.001113,0.024037,0.023687
3507,-0.019652,-0.01211,0.041767
3508,-0.001113,0.005964,0.023687
3509,0.017426,0.005964,0.005607
3510,-0.019652,0.005964,0.059847
3511,-0.019652,0.024037,0.041767
3512,-0.001113,0.024037,0.023687
3513,0.017426,0.04211,0.005607
3514,0.017426,0.005964,0.023687
3515,0.017426,0.005964,-0.030552
3516,-0.001113,0.005964,-0.048632
3517,-0.001113,0.04211,0.005607
3518,-0.001113,0.005964,0.023687
3519,0.017426,-0.01211,-0.012473
3520,-0.001113,-0.01211,0.005607
3521,-0.019652,0.005964,0.023687
3522,-0.019652,-0.01211,0.041767
3523,-0.019652,0.005964,0.005607
3524,-0.001113,0.005964,0.005607
3525,0.017426,0.04211,0.023687
3526,0.035965,0.024037,-0.012473
3527,-0.001113,0.005964,0.005607
3528,-0.001113,-0.01211,0.041767
3529,-0.019652,0.005964,0.005607
3530,-0.001113,-0.01211,-0.012473
3531,-0.019652,0.024037,-0.030552
3532,0.017426,0.005964,-0.012473
3533,0.017426,0.005964,-0.012473
3534,0.017426,0.005964,-0.012473
3535,-0.001113,-0.01211,0.005607
3536,-0.001113,0.005964,-0.012473
3537,0.017426,0.005964,-0.030552
3538,-0.001113,0.005964,-0.012473
3539,-0.001113,0.005964,0.005607
3540,-0.019652,0.005964,0.023687
3541,-0.001113,0.005964,0.023687
3542,-0.019652,-0.01211,0.005607
3543,0.017426,0.005964,0.023687
3544,-0.001113,0.005964,0.005607
3545,-0.038191,0.005964,0.005607
3546,-0.001113,0.005964,0.023687
3547,-0.019652,0.005964,0.005607
3548,-0.001113,0.024037,0.005607
3549,-0.001113,0.024037,0.005607
3550,0.017426,-0.01211,0.005607
3551,-0.001113,0.005964,-0.012473
3552,-0.038191,0.005964,-0.048632
3553,0.017426,-0.01211,-0.012473
3554,-0.001113,-0.01211,-0.030552
3555,0.017426,0.024037,-0.048632
3556,-0.001113,0.005964,-0.012473
3557,0.017426,0.005964,0.005607
3558,-0.019652,0.005964,-0.030552
3559,-0.001113,0.024037,0.005607
3560,0.017426,0.005964,0.023687
3561,-0.001113,0.005964,0.041767
3562,-0.019652,0.005964,0.023687
3563,-0.001113,0.005964,0.005607
3564,0.017426,0.024037,0.059847
3565,-0.001113,0.005964,0.023687
3566,-0.001113,0.005964,0.005607
3567,-0.001113,0.005964,0.023687
3568,-0.019652,0.024037,0.023687
3569,-0.019652,0.005964,-0.012473
3570,-0.019652,0.005964,-0.012473
3571,-0.019652,0.005964,0.023687
3572,-0.001113,-0.01211,-0.012473
3573,0.017426,0.024037,-0.012473
3574,-0.001113,0.005964,0.005607
3575,-0.001113,0.04211,0.023687
3576,-0.001113,0.005964,-0.012473
3577,-0.019652,0.005964,0.005607
3578,-0.001113,0.005964,-0.012473
3579,-0.001113,-0.01211,0.023687
3580,-0.019652,0.005964,-0.012473
3581,-0.001113,0.005964,0.005607
3582,-0.001113,0.005964,0.005607
3583,-0.019652,0.005964,0.005607
3584,-0.019652,0.024037,-0.012473
3585,-0.001113,0.024037,0.005607
3586,-0.019652,0.024037,-0.012473
3587,-0.001113,-0.01211,-0.030552
3588,-0.019652,0.005964,-0.030552
3589,-0.001113,0.005964,0.005607
3590,-0.001113,0.005964,-0.030552
3591,-0.001113,0.005964,-0.030552
3592,-0.019652,0.024037,0.005607
3593,-0.001113,0.005964,0.023687
3594,-0.001113,-0.01211,0.005607
3595,-0.001113,0.005964,0.041767
3596,0.091583,0.005964,0.005607
3597,-0.001113,0.005964,0.041767
3598,-0.001113,0.005964,0.077927
3599,0.017426,-0.030183,0.023687
3600,-0.001113,0.024037,0.023687
3601,-0.001113,0.005964,0.005607
3602,-0.001113,0.005964,0.023687
3603,0.017426,0.024037,0.023687
3604,-0.001113,0.024037,0.005607
3605,0.017426,0.005964,0.005607
3606,0.017426,0.005964,-0.030552
3607,-0.001113,0.005964,0.005607
3608,-0.019652,0.005964,-0.012473
3609,-0.001113,0.005964,-0.030552
3610,-0.001113,0.005964,-0.030552
3611,-0.001113,0.024037,-0.012473
3612,-0.001113,0.024037,-0.030552
3613,-0.001113,0.024037,-0.012473
3614,-0.001113,0.096331,0.023687
3615,-0.001113,0.005964,0.023687
3616,-0.001113,0.005964,0.005607
3617,0.017426,0.005964,0.005607
3618,-0.019652,0.005964,0.041767
3619,-0.019652,0.005964,0.005607
3620,0.017426,0.005964,0.023687
3621,-0.001113,0.005964,0.023687
3622,-0.019652,0.005964,-0.012473
3623,-0.019652,0.024037,0.005607
3624,0.017426,0.024037,0.005607
3625,-0.001113,0.005964,-0.012473
3626,-0.001113,0.005964,-0.012473
3627,-0.001113,0.005964,-0.012473
3628,0.017426,0.005964,0.023687
3629,-0.001113,0.024037,-0.030552
3630,-0.019652,0.005964,-0.030552
3631,0.017426,0.005964,-0.012473
3632,-0.001113,0.005964,-0.012473
3633,-0.019652,0.024037,-0.030552
3634,0.017426,0.005964,-0.012473
3635,-0.001113,0.005964,0.023687
3636,-0.001113,0.005964,0.023687
3637,-0.001113,0.024037,0.005607
3638,-0.001113,0.005964,0.041767
3639,-0.001113,0.005964,0.023687
3640,-0.001113,-0.01211,0.005607
3641,0.017426,0.005964,0.005607
3642,-0.001113,-0.01211,0.041767
3643,-0.001113,0.04211,0.023687
3644,-0.001113,0.005964,0.041767
