# Requested Sampling Rate (Hz):,1000
# Actual Sampling Rate (Hz):,999.543
# Requested Duration (s):,5.0
# Actual Duration (s):,5.049
# REST Calibration:,832.0600347222207,831.6700347222207,832.6898611111126
# MAX Calibration:,886.0000,887.0000,888.0000
# Normalization: MVC-based  (x_norm = (x - REST) / (MAX - REST))
sample_idx,EMG1,EMG2,EMG3
0,0.017426,0.024037,0.005607
1,-0.001113,0.024037,0.023687
2,-0.001113,0.005964,0.023687
3,-0.001113,0.005964,0.005607
4,-0.001113,0.024037,0.023687
5,-0.001113,-0.01211,0.023687
6,-0.001113,0.024037,0.023687
7,-0.001113,0.005964,0.005607
8,-0.001113,0.005964,0.005607
9,-0.001113,0.005964,0.005607
10,0.017426,0.024037,-0.012473
11,-0.001113,0.005964,-0.030552
12,-0.001113,0.005964,0.023687
13,-0.001113,-0.01211,0.023687
14,-0.038191,0.005964,-0.012473
15,-0.001113,0.005964,0.005607
16,0.017426,-0.01211,0.005607
17,-0.019652,0.005964,0.023687
18,0.017426,-0.01211,-0.012473
19,0.017426,-0.01211,0.023687
20,-0.001113,0.005964,0.023687
21,-0.019652,-0.01211,0.005607
22,0.017426,0.005964,-0.012473
23,-0.019652,-0.01211,0.023687
24,-0.001113,0.005964,0.005607
25,-0.001113,0.005964,-0.012473
26,-0.019652,0.005964,-0.030552
27,-0.019652,0.005964,0.005607
28,-0.001113,0.005964,-0.012473
29,-0.019652,0.005964,-0.012473
30,-0.001113,0.024037,0.005607
31,0.017426,0.024037,0.005607
32,-0.019652,0.005964,-0.048632
33,-0.001113,0.005964,0.005607
34,-0.001113,0.005964,0.023687
35,-0.001113,0.024037,0.023687
36,-0.001113,0.005964,-0.012473
37,-0.001113,0.005964,0.005607
38,-0.001113,-0.01211,0.023687
39,-0.001113,0.005964,0.005607
40,-0.019652,-0.01211,0.005607
41,-0.001113,0.005964,0.023687
42,-0.001113,0.005964,0.023687
43,0.017426,0.024037,-0.012473
44,-0.001113,0.024037,-0.012473
45,-0.001113,0.005964,0.023687
46,0.017426,0.024037,-0.012473
47,-0.001113,0.005964,0.005607
48,-0.001113,0.005964,0.023687
49,-0.001113,0.005964,-0.012473
50,-0.019652,0.005964,-0.030552
51,-0.038191,-0.01211,-0.012473
52,-0.001113,0.005964,0.005607
53,0.017426,0.005964,0.005607
54,0.017426,0.005964,-0.012473
55,-0.001113,0.005964,0.005607
56,-0.001113,-0.01211,0.023687
57,0.017426,0.005964,0.005607
58,0.017426,0.005964,0.005607
59,-0.001113,0.005964,0.023687
60,-0.001113,0.005964,0.005607
61,0.017426,0.005964,-0.012473
62,-0.001113,0.005964,0.005607
63,-0.038191,0.005964,0.023687
64,-0.001113,0.005964,-0.012473
65,-0.001113,0.005964,-0.012473
66,-0.001113,0.005964,-0.012473
67,-0.001113,0.005964,-0.030552
68,-0.001113,0.005964,-0.030552
69,-0.001113,0.005964,-0.012473
70,-0.001113,0.005964,-0.012473
71,-0.001113,0.024037,0.023687
72,-0.019652,0.005964,-0.012473
73,-0.019652,0.005964,0.023687
74,-0.001113,0.024037,0.023687
75,-0.001113,0.005964,0.005607
76,0.017426,0.005964,0.023687
77,-0.001113,0.005964,0.041767
78,0.017426,0.024037,0.023687
79,-0.001113,0.005964,0.005607
80,-0.019652,0.024037,0.041767
81,-0.019652,0.005964,0.023687
82,-0.001113,0.005964,-0.012473
83,-0.001113,0.024037,-0.012473
84,-0.001113,0.005964,-0.012473
85,-0.019652,0.024037,-0.012473
86,-0.001113,0.005964,0.005607
87,-0.001113,0.005964,0.005607
88,-0.001113,-0.01211,-0.012473
89,-0.001113,0.005964,-0.030552
90,-0.019652,-0.01211,0.005607
91,-0.001113,0.005964,0.005607
92,-0.001113,-0.01211,0.023687
93,-0.001113,-0.01211,0.005607
94,-0.001113,-0.01211,0.023687
95,-0.001113,0.024037,0.023687
96,0.017426,0.005964,0.023687
97,-0.019652,0.005964,0.005607
98,-0.001113,0.005964,0.005607
99,-0.019652,0.005964,0.023687
100,-0.001113,0.005964,0.005607
101,-0.001113,0.04211,-0.030552
102,-0.001113,0.005964,0.005607
103,-0.001113,-0.048257,-0.012473
104,-0.001113,-0.01211,-0.048632
105,-0.019652,0.005964,-0.012473
106,-0.001113,0.005964,0.005607
107,-0.001113,0.005964,-0.030552
108,-0.019652,0.005964,-0.012473
109,0.017426,0.005964,0.005607
110,-0.019652,0.005964,0.023687
111,-0.019652,0.005964,-0.012473
112,-0.001113,-0.01211,0.023687
113,-0.001113,0.005964,0.023687
114,-0.019652,0.005964,-0.012473
115,-0.001113,0.005964,0.005607
116,0.017426,0.005964,0.005607
117,-0.019652,0.005964,-0.012473
118,-0.019652,0.005964,-0.012473
119,0.017426,0.005964,-0.012473
120,-0.001113,0.024037,0.005607
121,-0.001113,0.024037,0.005607
122,-0.019652,0.024037,-0.012473
123,-0.001113,0.005964,0.005607
124,-0.019652,0.024037,0.005607
125,0.017426,0.024037,-0.012473
126,-0.001113,-0.01211,-0.012473
127,-0.001113,-0.01211,0.005607
128,-0.001113,0.005964,0.023687
129,-0.001113,0.005964,0.005607
130,-0.001113,0.005964,0.023687
131,0.017426,-0.01211,0.023687
132,-0.019652,0.005964,0.005607
133,0.017426,0.005964,0.023687
134,-0.019652,-0.01211,0.005607
135,-0.019652,-0.01211,-0.012473
136,-0.001113,-0.01211,-0.012473
137,-0.019652,-0.01211,-0.030552
138,-0.001113,-0.01211,-0.012473
139,-0.001113,0.005964,-0.030552
140,-0.019652,0.005964,-0.030552
141,-0.019652,-0.01211,-0.012473
142,-0.001113,0.005964,-0.012473
143,-0.001113,0.005964,-0.012473
144,-0.001113,-0.01211,0.005607
145,0.017426,0.005964,0.005607
146,0.017426,0.005964,0.023687
147,0.017426,0.005964,0.023687
148,-0.001113,0.005964,0.041767
149,-0.001113,0.024037,0.023687
150,-0.019652,0.005964,0.005607
151,-0.001113,0.024037,0.023687
152,0.017426,-0.01211,-0.012473
153,-0.019652,-0.01211,-0.012473
154,-0.001113,0.005964,-0.012473
155,-0.019652,0.005964,0.005607
156,0.017426,-0.01211,-0.030552
157,-0.019652,0.024037,-0.012473
158,-0.019652,0.005964,-0.012473
159,-0.001113,0.005964,0.005607
160,0.017426,0.005964,-0.012473
161,-0.001113,0.005964,-0.012473
162,-0.019652,0.005964,0.005607
163,-0.001113,0.005964,0.023687
164,-0.001113,0.005964,0.005607
165,-0.001113,0.005964,0.005607
166,0.017426,0.024037,0.005607
167,-0.001113,0.005964,0.041767
168,-0.001113,0.005964,0.005607
169,-0.001113,0.024037,0.023687
170,-0.001113,0.005964,0.005607
171,-0.019652,0.005964,0.005607
172,-0.001113,0.024037,-0.012473
173,-0.001113,0.005964,0.005607
174,-0.001113,-0.01211,-0.012473
175,0.017426,0.005964,-0.030552
176,-0.001113,0.005964,-0.048632
177,0.017426,0.005964,-0.012473
178,-0.001113,0.005964,-0.012473
179,-0.001113,0.005964,0.005607
180,-0.001113,-0.01211,0.005607
181,-0.019652,0.005964,0.041767
182,0.017426,0.005964,0.023687
183,-0.001113,0.005964,0.005607
184,-0.001113,0.005964,0.023687
185,-0.001113,0.005964,0.023687
186,-0.001113,0.005964,-0.012473
187,-0.019652,0.005964,0.023687
188,-0.001113,0.005964,0.005607
189,-0.001113,0.024037,0.005607
190,-0.019652,0.024037,0.005607
191,-0.001113,0.005964,0.005607
192,-0.001113,0.005964,-0.012473
193,0.017426,0.005964,-0.012473
194,-0.019652,0.005964,0.005607
195,-0.001113,0.005964,0.005607
196,-0.001113,0.04211,-0.030552
197,0.017426,0.024037,-0.012473
198,-0.019652,0.005964,0.005607
199,-0.001113,0.024037,-0.012473
200,-0.001113,0.024037,0.005607
201,0.017426,-0.01211,0.005607
202,-0.001113,0.005964,0.005607
203,-0.001113,0.005964,-0.012473
204,-0.001113,0.005964,0.005607
205,-0.001113,-0.01211,0.005607
206,-0.019652,0.005964,0.023687
207,-0.038191,0.005964,-0.012473
208,-0.001113,-0.01211,0.023687
209,-0.019652,0.005964,0.005607
210,-0.001113,0.005964,-0.012473
211,-0.001113,0.005964,-0.048632
212,-0.001113,-0.01211,-0.012473
213,-0.001113,0.005964,-0.012473
214,-0.001113,0.005964,-0.012473
215,-0.001113,0.005964,0.005607
216,-0.001113,0.024037,0.005607
217,-0.001113,0.005964,-0.030552
218,0.017426,0.024037,-0.012473
219,-0.019652,0.005964,0.023687
220,-0.001113,0.005964,0.023687
221,-0.019652,-0.01211,0.005607
222,-0.001113,-0.01211,0.005607
223,-0.001113,0.005964,0.023687
224,-0.001113,0.005964,0.023687
225,-0.001113,-0.01211,-0.012473
226,-0.001113,0.005964,0.005607
227,-0.019652,0.024037,0.005607
228,-0.001113,-0.01211,-0.012473
229,0.017426,-0.01211,-0.030552
230,-0.001113,0.005964,0.005607
231,-0.019652,0.005964,-0.012473
232,-0.001113,0.024037,-0.048632
233,0.017426,0.005964,-0.012473
234,-0.019652,0.005964,0.005607
235,-0.001113,0.005964,-0.012473
236,-0.001113,0.024037,0.005607
237,-0.001113,-0.01211,0.005607
238,-0.001113,-0.01211,0.023687
239,-0.019652,0.005964,-0.030552
240,0.017426,-0.01211,-0.012473
241,-0.001113,-0.01211,0.023687
242,-0.019652,-0.01211,-0.012473
243,-0.001113,-0.01211,0.023687
244,-0.019652,0.005964,0.041767
245,-0.019652,0.024037,0.005607
246,-0.038191,0.005964,0.023687
247,-0.001113,0.024037,-0.012473
248,-0.001113,0.005964,0.023687
249,-0.001113,0.024037,0.005607
250,-0.001113,-0.01211,-0.012473
251,-0.001113,0.005964,-0.012473
252,-0.001113,-0.01211,-0.030552
253,-0.001113,0.005964,-0.030552
254,-0.001113,0.005964,0.005607
255,-0.001113,0.024037,0.023687
256,0.017426,0.005964,0.023687
257,0.035965,0.005964,0.023687
258,-0.019652,0.005964,0.023687
259,-0.019652,0.005964,0.041767
260,-0.019652,0.005964,0.023687
261,0.017426,0.005964,0.005607
262,-0.001113,0.005964,0.041767
263,-0.001113,-0.01211,0.023687
264,-0.001113,0.024037,0.005607
265,-0.001113,0.024037,0.041767
266,-0.001113,0.005964,0.005607
267,-0.001113,0.024037,-0.012473
268,-0.001113,-0.01211,-0.030552
269,-0.001113,0.005964,-0.012473
270,-0.001113,0.005964,-0.012473
271,-0.019652,-0.01211,-0.030552
272,-0.001113,0.005964,-0.012473
273,-0.001113,-0.01211,0.005607
274,-0.001113,0.005964,-0.030552
275,-0.001113,0.005964,-0.012473
276,-0.001113,0.005964,0.005607
277,-0.019652,-0.01211,0.041767
278,-0.019652,0.005964,0.023687
279,-0.038191,0.005964,0.023687
280,-0.038191,-0.01211,0.023687
281,-0.038191,-0.01211,0.005607
282,-0.001113,0.005964,-0.012473
283,0.035965,0.005964,0.041767
284,0.054504,0.04211,-0.012473
285,0.017426,0.005964,-0.012473
286,-0.001113,-0.01211,-0.012473
287,0.017426,0.005964,-0.012473
288,-0.001113,0.005964,-0.012473
289,-0.001113,0.005964,-0.030552
290,-0.001113,0.005964,-0.030552
291,-0.001113,0.005964,-0.012473
292,-0.001113,0.005964,-0.030552
293,-0.001113,0.005964,-0.012473
294,-0.001113,0.005964,0.023687
295,-0.019652,-0.01211,0.023687
296,-0.001113,0.024037,0.005607
297,-0.019652,0.005964,0.023687
298,-0.001113,0.005964,0.041767
299,-0.019652,0.005964,0.023687
300,-0.001113,0.005964,0.005607
301,-0.001113,0.005964,0.023687
302,-0.001113,-0.030183,0.005607
303,-0.001113,0.005964,-0.012473
304,-0.001113,0.005964,-0.030552
305,-0.001113,0.005964,-0.012473
306,-0.001113,-0.01211,-0.012473
307,0.035965,0.005964,-0.030552
308,-0.001113,0.005964,0.005607
309,-0.001113,0.024037,-0.030552
310,0.017426,0.024037,-0.030552
311,-0.019652,-0.01211,-0.012473
312,-0.001113,-0.01211,0.005607
313,-0.001113,0.024037,0.041767
314,0.017426,-0.01211,0.023687
315,-0.001113,0.005964,0.005607
316,-0.019652,-0.01211,0.023687
317,-0.001113,0.005964,0.005607
318,-0.019652,0.005964,0.005607
319,-0.019652,0.005964,0.005607
320,-0.001113,0.024037,-0.012473
321,-0.019652,-0.01211,-0.012473
322,-0.019652,0.005964,-0.030552
323,-0.001113,0.024037,0.005607
324,-0.001113,0.005964,-0.030552
325,-0.019652,0.005964,-0.030552
326,-0.001113,0.005964,0.023687
327,-0.019652,0.005964,-0.012473
328,-0.001113,0.024037,0.005607
329,-0.038191,0.024037,0.023687
330,-0.038191,0.005964,0.041767
331,-0.019652,-0.030183,0.005607
332,0.017426,0.005964,0.005607
333,0.073044,0.024037,0.023687
334,0.091583,0.024037,0.023687
335,0.035965,0.024037,0.005607
336,-0.001113,0.024037,0.023687
337,-0.019652,0.005964,0.005607
338,-0.019652,-0.030183,-0.012473
339,-0.05673,-0.01211,-0.030552
340,-0.07527,-0.01211,0.005607
341,-0.001113,0.005964,-0.012473
342,0.017426,0.024037,-0.012473
343,0.017426,0.024037,-0.012473
344,0.035965,0.024037,0.005607
345,-0.001113,0.005964,-0.012473
346,0.054504,0.005964,0.023687
347,0.035965,0.005964,0.005607
348,-0.001113,-0.01211,0.005607
349,-0.038191,0.005964,-0.012473
350,-0.05673,-0.030183,-0.012473
351,-0.038191,-0.01211,0.005607
352,0.017426,-0.01211,-0.012473
353,0.110122,0.04211,0.023687
354,0.295513,0.024037,0.041767
355,0.295513,0.024037,0.023687
356,0.239896,0.024037,-0.012473
357,0.221357,0.024037,-0.012473
358,0.1472,0.005964,0.005607
359,0.073044,0.005964,-0.012473
360,-0.149426,-0.01211,-0.012473
361,-0.242122,0.005964,-0.012473
362,-0.316278,-0.030183,-0.012473
363,-0.223583,-0.01211,-0.030552
364,-0.186504,-0.01211,0.005607
365,-0.112348,0.005964,0.041767
366,-0.07527,0.005964,0.041767
367,-0.093809,0.005964,0.005607
368,-0.130887,-0.01211,0.005607
369,-0.07527,-0.01211,0.005607
370,0.017426,0.024037,0.005607
371,0.054504,0.024037,0.023687
372,0.035965,0.005964,-0.012473
373,-0.019652,0.005964,0.005607
374,-0.038191,0.024037,-0.030552
375,0.017426,-0.01211,0.005607
376,0.017426,0.024037,0.005607
377,0.035965,0.024037,-0.012473
378,0.073044,0.005964,0.005607
379,0.110122,0.005964,0.005607
380,0.091583,0.005964,-0.012473
381,0.110122,-0.01211,-0.012473
382,0.073044,-0.030183,0.005607
383,-0.093809,0.005964,0.023687
384,-0.038191,0.024037,0.023687
385,-0.019652,0.024037,0.023687
386,0.017426,0.024037,0.023687
387,-0.07527,0.005964,0.005607
388,-0.112348,0.04211,0.005607
389,-0.112348,-0.030183,0.023687
390,-0.112348,-0.030183,0.005607
391,-0.112348,-0.030183,0.005607
392,-0.05673,-0.01211,-0.030552
393,-0.019652,-0.030183,0.005607
394,-0.038191,0.005964,0.005607
395,-0.038191,0.024037,-0.030552
396,0.017426,0.04211,0.023687
397,0.035965,0.024037,0.005607
398,0.091583,0.024037,-0.030552
399,0.184278,0.024037,0.005607
400,0.221357,0.04211,0.005607
401,0.184278,0.04211,0.023687
402,0.091583,0.024037,0.005607
403,0.017426,0.005964,-0.012473
404,-0.019652,-0.01211,0.005607
405,-0.149426,0.005964,-0.030552
406,-0.186504,0.005964,0.005607
407,-0.019652,0.024037,0.023687
408,0.017426,0.005964,0.005607
409,0.035965,-0.01211,-0.012473
410,-0.001113,-0.01211,-0.030552
411,-0.07527,-0.030183,-0.012473
412,-0.07527,-0.01211,-0.030552
413,-0.05673,-0.01211,-0.030552
414,-0.001113,0.04211,0.005607
415,0.035965,0.04211,-0.012473
416,0.017426,0.04211,-0.012473
417,-0.05673,0.024037,0.023687
418,-0.05673,0.005964,0.023687
419,-0.07527,0.024037,-0.012473
420,-0.112348,0.024037,0.005607
421,-0.038191,0.005964,0.041767
422,0.054504,0.005964,0.023687
423,0.073044,0.005964,0.023687
424,0.035965,0.005964,0.023687
425,0.035965,0.005964,0.005607
426,0.017426,0.024037,-0.012473
427,-0.001113,0.024037,-0.012473
428,-0.001113,0.005964,0.005607
429,-0.001113,0.024037,-0.012473
430,-0.038191,-0.01211,-0.030552
431,-0.001113,-0.01211,0.005607
432,-0.019652,0.005964,0.023687
433,-0.019652,0.005964,0.005607
434,-0.001113,0.005964,-0.012473
435,-0.001113,-0.01211,-0.012473
436,0.017426,-0.01211,-0.012473
437,0.017426,0.024037,0.005607
438,-0.019652,0.005964,0.005607
439,-0.019652,0.005964,0.023687
440,-0.05673,-0.01211,0.023687
441,0.017426,0.005964,0.005607
442,0.017426,0.024037,0.023687
443,-0.001113,0.024037,0.005607
444,-0.038191,-0.01211,-0.012473
445,0.017426,-0.01211,-0.012473
446,-0.038191,0.005964,0.005607
447,0.035965,0.024037,0.023687
448,0.035965,0.024037,-0.012473
449,-0.001113,0.024037,0.005607
450,-0.019652,0.024037,-0.012473
451,0.017426,0.005964,-0.030552
452,0.017426,-0.01211,-0.030552
453,0.091583,0.024037,0.005607
454,0.276974,0.024037,0.023687
455,0.258435,0.024037,-0.012473
456,0.184278,0.024037,0.023687
457,0.128661,0.024037,0.023687
458,0.054504,0.005964,0.023687
459,-0.07527,-0.01211,0.005607
460,-0.316278,-0.030183,0.005607
461,-0.2792,0.005964,-0.012473
462,-0.093809,0.005964,-0.012473
463,-0.001113,0.005964,0.023687
464,-0.038191,0.04211,0.005607
465,-0.038191,-0.01211,-0.012473
466,-0.001113,-0.01211,-0.012473
467,-0.001113,-0.01211,-0.012473
468,-0.001113,0.005964,-0.012473
469,-0.07527,-0.01211,-0.030552
470,-0.038191,0.024037,-0.012473
471,0.017426,0.04211,0.005607
472,0.017426,0.005964,-0.012473
473,0.017426,0.024037,0.005607
474,0.017426,0.024037,0.005607
475,-0.019652,0.005964,0.023687
476,-0.019652,0.005964,0.023687
477,-0.05673,0.005964,0.023687
478,-0.038191,0.005964,0.041767
479,-0.001113,0.005964,0.023687
480,-0.001113,0.005964,0.005607
481,0.017426,-0.01211,0.023687
482,-0.001113,0.024037,0.005607
483,0.017426,0.024037,0.005607
484,-0.001113,0.005964,-0.030552
485,-0.001113,0.024037,-0.012473
486,-0.019652,0.005964,-0.012473
487,-0.019652,0.005964,-0.030552
488,0.035965,0.005964,-0.012473
489,0.128661,0.005964,0.005607
490,0.1472,0.005964,-0.030552
491,0.1472,0.04211,0.005607
492,0.110122,0.005964,0.005607
493,0.035965,-0.01211,0.023687
494,-0.07527,-0.01211,0.023687
495,-0.112348,-0.01211,0.023687
496,-0.07527,0.005964,0.041767
497,-0.038191,0.024037,0.041767
498,-0.038191,0.024037,0.005607
499,-0.05673,0.005964,0.005607
500,-0.07527,0.024037,-0.012473
501,0.035965,0.024037,-0.030552
502,0.054504,0.024037,-0.030552
503,-0.038191,0.005964,-0.030552
504,-0.038191,0.005964,-0.048632
505,-0.05673,0.005964,0.005607
506,-0.038191,0.024037,0.005607
507,0.035965,0.04211,-0.012473
508,0.017426,0.005964,0.005607
509,0.035965,0.024037,0.041767
510,0.128661,0.005964,0.023687
511,0.165739,0.005964,0.041767
512,0.110122,0.024037,0.041767
513,0.073044,0.024037,0.059847
514,-0.05673,0.024037,0.041767
515,-0.242122,-0.048257,-0.030552
516,-0.186504,-0.030183,-0.012473
517,0.073044,0.005964,-0.012473
518,0.128661,0.005964,-0.012473
519,0.110122,0.024037,-0.030552
520,0.073044,0.04211,-0.012473
521,-0.038191,-0.01211,-0.012473
522,-0.223583,-0.01211,-0.030552
523,-0.093809,0.04211,0.005607
524,-0.05673,0.024037,0.005607
525,-0.019652,0.024037,0.005607
526,-0.001113,0.005964,0.005607
527,-0.019652,-0.01211,0.005607
528,-0.019652,0.005964,0.005607
529,-0.05673,0.005964,0.005607
530,-0.001113,-0.01211,0.005607
531,0.017426,-0.030183,0.005607
532,0.054504,-0.01211,-0.012473
533,0.073044,-0.030183,-0.030552
534,0.054504,-0.01211,0.041767
535,0.165739,0.024037,0.023687
536,0.073044,-0.01211,-0.012473
537,0.017426,-0.030183,-0.048632
538,-0.112348,-0.01211,-0.012473
539,-0.130887,0.005964,0.005607
540,-0.05673,0.024037,-0.012473
541,-0.07527,0.024037,0.023687
542,-0.093809,0.04211,0.023687
543,-0.07527,0.024037,-0.030552
544,-0.001113,0.024037,0.023687
545,0.054504,0.04211,0.041767
546,-0.019652,0.04211,0.041767
547,-0.093809,0.024037,0.005607
548,-0.130887,0.005964,0.005607
549,-0.093809,-0.01211,0.023687
550,0.035965,0.005964,0.005607
551,0.110122,-0.048257,0.005607
552,0.128661,-0.048257,-0.030552
553,0.276974,-0.048257,-0.012473
554,0.276974,-0.030183,-0.012473
555,0.332591,-0.030183,-0.012473
556,0.110122,-0.048257,0.005607
557,0.035965,0.005964,-0.012473
558,-0.223583,0.04211,-0.012473
559,-0.112348,0.060184,0.041767
560,-0.167965,0.04211,-0.012473
561,-0.093809,0.04211,0.005607
562,-0.038191,0.024037,0.041767
563,-0.149426,0.005964,0.041767
564,-0.260661,-0.030183,0.005607
565,-0.242122,-0.048257,0.005607
566,-0.186504,-0.048257,0.023687
567,-0.112348,0.005964,0.023687
568,-0.038191,0.024037,-0.012473
569,0.073044,0.04211,0.023687
570,0.128661,0.060184,0.023687
571,0.128661,0.04211,-0.012473
572,0.073044,0.04211,0.005607
573,0.073044,0.04211,0.023687
574,0.073044,0.04211,0.005607
575,-0.001113,0.024037,-0.012473
576,-0.07527,0.024037,-0.012473
577,-0.05673,0.04211,0.005607
578,0.073044,-0.01211,-0.012473
579,0.091583,-0.01211,-0.012473
580,0.054504,0.005964,0.023687
581,0.035965,0.005964,0.023687
582,0.054504,0.005964,-0.012473
583,-0.019652,0.005964,0.005607
584,-0.019652,-0.01211,-0.012473
585,0.073044,0.024037,0.005607
586,0.184278,0.060184,0.023687
587,0.184278,0.04211,0.023687
588,0.091583,-0.01211,0.005607
589,0.091583,-0.01211,0.005607
590,-0.130887,-0.01211,-0.012473
591,0.017426,0.024037,0.023687
592,0.073044,0.024037,-0.012473
593,0.184278,0.04211,-0.012473
594,0.202817,-0.01211,0.005607
595,-0.038191,-0.030183,-0.030552
596,-0.353356,-0.048257,-0.030552
597,-0.167965,-0.030183,-0.012473
598,-0.112348,0.005964,0.005607
599,-0.130887,0.024037,0.077927
600,-0.05673,0.024037,0.023687
601,-0.112348,-0.01211,0.023687
602,-0.186504,-0.048257,0.005607
603,-0.093809,-0.01211,0.023687
604,0.054504,0.005964,0.041767
605,-0.112348,0.005964,0.041767
606,-0.07527,-0.030183,-0.012473
607,-0.149426,-0.048257,-0.012473
608,-0.05673,-0.048257,0.005607
609,-0.019652,-0.030183,-0.012473
610,-0.038191,-0.01211,0.005607
611,0.035965,0.024037,-0.012473
612,0.073044,0.005964,-0.012473
613,0.073044,0.060184,-0.030552
614,0.091583,0.114404,-0.012473
615,0.110122,0.132477,0.023687
616,0.035965,0.114404,0.041767
617,-0.038191,0.078257,0.005607
618,-0.112348,0.005964,0.005607
619,-0.093809,-0.030183,0.023687
620,-0.05673,-0.01211,0.023687
621,-0.07527,-0.01211,-0.012473
622,0.110122,-0.030183,0.005607
623,0.258435,-0.01211,-0.012473
624,0.295513,0.024037,0.005607
625,0.499444,0.04211,0.005607
626,0.295513,0.060184,0.041767
627,0.073044,0.078257,0.005607
628,0.165739,0.060184,0.005607
629,-0.186504,0.005964,-0.030552
630,-0.353356,-0.01211,-0.012473
631,-0.05673,0.04211,-0.012473
632,0.035965,-0.01211,0.023687
633,-0.05673,-0.102477,-0.030552
634,-0.112348,-0.102477,-0.012473
635,-0.130887,-0.12055,-0.030552
636,-0.093809,-0.102477,-0.012473
637,0.017426,-0.06633,0.023687
638,0.128661,0.060184,0.023687
639,0.035965,0.060184,0.023687
640,-0.05673,0.024037,0.041767
641,-0.112348,-0.01211,0.005607
642,-0.242122,-0.084403,0.023687
643,-0.149426,-0.06633,0.005607
644,0.035965,0.005964,0.041767
645,0.091583,0.060184,0.023687
646,0.184278,0.096331,-0.030552
647,0.165739,0.078257,0.005607
648,0.110122,0.096331,-0.048632
649,-0.001113,0.078257,-0.048632
650,0.165739,0.114404,0.005607
651,0.239896,0.04211,0.023687
652,0.314052,0.078257,0.005607
653,0.202817,0.024037,0.005607
654,-0.167965,-0.084403,0.005607
655,-0.2792,-0.06633,0.005607
656,-0.05673,-0.030183,0.005607
657,-0.093809,0.005964,0.059847
658,-0.001113,0.060184,0.023687
659,-0.167965,0.096331,0.023687
660,-0.019652,0.114404,0.005607
661,-0.149426,0.024037,-0.030552
662,-0.316278,-0.030183,-0.066712
663,-0.260661,0.005964,-0.048632
664,0.054504,0.04211,0.005607
665,0.017426,0.005964,0.059847
666,-0.112348,-0.030183,0.005607
667,-0.130887,-0.06633,0.023687
668,-0.112348,-0.12055,0.005607
669,-0.186504,-0.06633,0.023687
670,-0.001113,-0.048257,0.023687
671,0.054504,0.005964,0.041767
672,0.239896,-0.030183,0.041767
673,0.221357,-0.06633,-0.012473
674,-0.019652,-0.084403,-0.030552
675,-0.07527,-0.138624,-0.012473
676,-0.001113,-0.084403,0.005607
677,0.314052,0.060184,0.005607
678,0.36967,0.168624,-0.012473
679,0.239896,0.186697,0.023687
680,-0.205043,0.078257,-0.012473
681,-0.668522,0.024037,-0.030552
682,-0.446052,0.132477,0.041767
683,-0.093809,0.096331,0.005607
684,0.128661,0.096331,-0.012473
685,0.239896,0.078257,0.023687
686,0.536522,0.04211,0.041767
687,0.388209,-0.030183,-0.012473
688,0.017426,-0.084403,-0.012473
689,-0.093809,-0.030183,0.023687
690,-0.260661,-0.048257,0.023687
691,-0.205043,-0.06633,0.005607
692,0.221357,0.005964,0.041767
693,0.165739,-0.084403,0.023687
694,0.165739,-0.048257,-0.012473
695,-0.297739,-0.084403,-0.030552
696,-0.538748,-0.01211,0.041767
697,0.295513,0.258991,0.077927
698,0.517983,0.295138,0.041767
699,0.462365,0.168624,-0.012473
700,0.258435,0.150551,-0.012473
701,-0.205043,-0.030183,-0.030552
702,0.091583,0.005964,-0.030552
703,0.128661,-0.102477,-0.030552
704,-0.093809,-0.06633,-0.012473
705,-0.390435,-0.048257,0.005607
706,-0.167965,-0.06633,0.023687
707,-0.167965,-0.06633,0.023687
708,-0.07527,-0.030183,0.023687
709,-0.019652,0.060184,0.005607
710,0.091583,0.150551,0.005607
711,0.239896,0.114404,0.023687
712,0.295513,0.024037,0.005607
713,-0.001113,-0.030183,-0.048632
714,-0.186504,-0.030183,0.023687
715,0.165739,0.005964,0.005607
716,0.314052,0.078257,0.005607
717,0.295513,-0.030183,-0.012473
718,-0.130887,-0.102477,0.023687
719,-0.205043,-0.06633,0.005607
720,-0.038191,-0.210917,-0.012473
721,0.091583,-0.337431,0.005607
722,0.499444,-0.156697,0.023687
723,0.388209,0.005964,-0.048632
724,-0.316278,-0.030183,-0.012473
725,-0.149426,0.114404,0.005607
726,0.054504,0.403578,0.059847
727,-0.334817,0.204771,0.023687
728,-0.538748,0.258991,0.041767
729,-0.223583,0.258991,0.059847
730,0.017426,0.114404,0.041767
731,0.239896,-0.01211,-0.012473
732,-0.130887,-0.192844,-0.012473
733,-0.334817,-0.247064,-0.012473
734,0.1472,-0.06633,0.041767
735,0.258435,-0.030183,0.005607
736,0.36967,-0.01211,0.023687
737,-0.242122,-0.138624,-0.066712
738,-0.631443,-0.12055,-0.084792
739,-0.205043,0.096331,-0.012473
740,0.314052,0.222844,0.005607
741,0.425287,0.150551,0.023687
742,0.073044,0.132477,0.059847
743,-0.297739,0.150551,0.077927
744,0.017426,0.060184,0.077927
745,0.073044,0.024037,0.059847
746,0.128661,-0.01211,0.059847
747,0.221357,0.114404,0.041767
748,0.017426,0.150551,-0.012473
749,0.332591,-0.01211,-0.012473
750,0.833148,-0.138624,-0.012473
751,0.77753,-0.01211,-0.030552
752,-0.242122,-0.030183,-0.030552
753,-0.7056,0.132477,0.005607
754,0.110122,0.132477,0.041767
755,0.36967,0.132477,0.023687
756,-0.2792,0.240918,-0.030552
757,-0.112348,0.277064,-0.012473
758,0.184278,0.005964,-0.048632
759,-0.2792,-0.319357,-0.066712
760,-0.538748,-0.337431,0.005607
761,-0.371896,-0.301284,0.041767
762,-0.223583,-0.265137,0.041767
763,-0.038191,0.060184,0.041767
764,-0.242122,0.096331,0.059847
765,-0.557287,-0.030183,0.041767
766,-0.334817,0.150551,0.023687
767,-0.149426,0.475872,0.096007
768,0.054504,0.331285,0.059847
769,0.462365,0.096331,-0.012473
770,0.610678,-0.01211,-0.066712
771,0.499444,-0.17477,-0.012473
772,0.462365,-0.01211,0.023687
773,0.666296,0.150551,0.041767
774,0.758991,0.005964,-0.012473
775,-0.205043,-0.06633,-0.030552
776,-1.057843,-0.156697,-0.012473
777,-0.130887,-0.138624,0.059847
778,0.054504,-0.247064,0.041767
779,-0.038191,-0.01211,-0.048632
780,-0.371896,-0.01211,-0.084792
781,-0.149426,0.168624,-0.030552
782,0.017426,0.005964,-0.012473
783,0.091583,0.204771,0.059847
784,0.017426,0.060184,0.059847
785,-0.186504,0.024037,0.059847
786,0.073044,0.04211,0.077927
787,-0.038191,-0.030183,0.005607
788,-0.149426,-0.12055,-0.066712
789,-0.390435,-0.102477,0.005607
790,-0.130887,-0.22899,0.041767
791,0.184278,-0.048257,0.023687
792,0.1472,-0.247064,-0.030552
793,-0.575826,-0.319357,-0.066712
794,-0.575826,-0.337431,-0.012473
795,0.184278,-0.192844,-0.048632
796,0.536522,0.114404,-0.012473
797,0.239896,0.168624,-0.048632
798,0.017426,0.602385,-0.048632
799,0.388209,0.819266,0.077927
800,0.054504,0.277064,0.041767
801,0.017426,0.024037,0.041767
802,-0.001113,-0.01211,-0.030552
803,0.128661,0.005964,-0.048632
804,-0.112348,-0.102477,-0.030552
805,-0.594365,-0.084403,0.041767
806,-0.223583,0.04211,0.096007
807,0.110122,0.005964,0.059847
808,0.165739,0.024037,0.005607
809,-0.167965,0.078257,-0.012473
810,0.035965,-0.030183,-0.030552
811,0.295513,-0.608532,-0.012473
812,0.332591,-0.626605,0.059847
813,-0.093809,-0.337431,0.023687
814,0.073044,-0.12055,-0.030552
815,0.110122,0.313211,-0.048632
816,0.36967,0.457798,-0.066712
817,-0.242122,0.096331,-0.030552
818,-0.205043,0.024037,0.059847
819,-0.038191,0.078257,0.059847
820,-0.05673,0.078257,0.005607
821,-0.408974,-0.030183,0.023687
822,-0.390435,0.060184,0.077927
823,-0.2792,0.421652,0.041767
824,-0.2792,0.240918,0.041767
825,-0.001113,0.114404,0.023687
826,0.128661,0.277064,0.023687
827,0.425287,0.168624,0.005607
828,0.833148,-0.030183,-0.030552
829,0.703374,-0.500091,-0.048632
830,0.184278,-0.644678,-0.084792
831,-0.446052,-0.716972,-0.066712
832,-0.7056,-0.192844,-0.030552
833,-0.242122,0.765046,0.023687
834,0.091583,0.638532,0.005607
835,0.128661,0.277064,-0.084792
836,-0.446052,0.313211,-0.012473
837,0.035965,0.150551,0.041767
838,0.610678,0.114404,0.023687
839,0.555061,0.078257,0.005607
840,-0.05673,-0.06633,0.005607
841,-0.575826,-0.01211,0.059847
842,-0.130887,-0.138624,0.077927
843,-0.242122,-0.337431,0.041767
844,-0.427513,-0.500091,0.023687
845,-0.408974,-0.554311,-0.012473
846,0.276974,0.005964,0.059847
847,0.480904,0.04211,0.005607
848,0.332591,0.313211,-0.066712
849,-0.001113,0.909633,-0.012473
850,-0.242122,0.457798,-0.066712
851,0.202817,0.186697,0.023687
852,0.79607,0.150551,-0.030552
853,0.79607,0.114404,-0.030552
854,-0.427513,-0.102477,0.023687
855,-0.371896,-0.138624,0.023687
856,-0.334817,-0.445871,-0.048632
857,-1.373009,-0.608532,-0.030552
858,-0.427513,-0.409724,0.023687
859,0.128661,-0.247064,0.041767
860,0.128661,0.04211,0.059847
861,-0.001113,-0.210917,-0.030552
862,-0.316278,-0.156697,-0.048632
863,0.165739,0.548165,0.023687
864,0.332591,0.801193,0.059847
865,0.388209,0.584312,0.041767
866,0.073044,0.132477,-0.012473
867,-0.05673,-0.102477,-0.012473
868,-0.186504,-0.048257,0.096007
869,-0.112348,-0.17477,0.041767
870,0.128661,-0.12055,-0.030552
871,-0.001113,0.150551,-0.084792
872,-0.316278,0.096331,-0.066712
873,-0.167965,0.096331,0.005607
874,0.36967,0.005964,0.023687
875,0.592139,-0.06633,0.023687
876,0.480904,0.078257,0.023687
877,0.5736,0.168624,-0.030552
878,0.406748,-0.283211,-0.048632
879,0.666296,-0.192844,-0.030552
880,0.202817,-0.192844,0.023687
881,-0.260661,-0.337431,0.005607
882,-0.835374,-0.084403,0.023687
883,-0.520209,0.186697,-0.012473
884,-0.334817,0.385505,-0.012473
885,-0.149426,0.421652,0.005607
886,0.091583,0.457798,0.150246
887,0.276974,0.132477,0.077927
888,-0.297739,-0.283211,-0.048632
889,-0.687061,-0.373578,-0.066712
890,-0.779756,-0.355504,0.023687
891,-0.149426,-0.22899,0.041767
892,0.091583,-0.192844,-0.048632
893,-0.001113,-0.102477,-0.066712
894,-0.130887,-0.156697,-0.030552
895,0.054504,-0.319357,-0.066712
896,0.79607,-0.22899,-0.012473
897,0.703374,0.204771,0.096007
898,0.1472,-0.084403,0.077927
899,-0.130887,-0.030183,0.041767
900,0.202817,-0.301284,-0.012473
901,0.017426,-0.138624,0.023687
902,0.184278,0.367431,0.041767
903,0.165739,0.638532,0.096007
904,-0.019652,0.168624,-0.012473
905,-0.631443,0.078257,-0.048632
906,-0.05673,0.078257,-0.048632
907,0.332591,0.403578,-0.012473
908,0.406748,0.222844,-0.012473
909,0.202817,-0.084403,-0.030552
910,-0.2792,-0.06633,-0.048632
911,0.091583,0.150551,-0.012473
912,-0.038191,0.258991,0.059847
913,-0.353356,-0.156697,0.005607
914,-0.408974,-0.301284,0.005607
915,-0.112348,0.385505,0.059847
916,-0.05673,0.186697,0.059847
917,-0.297739,-0.210917,0.005607
918,-0.149426,-0.030183,0.005607
919,0.110122,0.060184,0.041767
920,-0.019652,0.096331,0.059847
921,0.258435,0.620459,0.096007
922,0.091583,0.313211,0.005607
923,-0.038191,-0.156697,-0.048632
924,-0.07527,-0.355504,-0.066712
925,-0.390435,-0.572385,-0.048632
926,-0.520209,-0.482018,-0.012473
927,-0.093809,-0.210917,-0.048632
928,0.36967,0.005964,0.005607
929,0.851687,0.385505,0.059847
930,0.555061,0.186697,-0.012473
931,-0.48313,-0.084403,-0.066712
932,0.110122,-0.138624,-0.066712
933,0.388209,-0.048257,-0.048632
934,-0.390435,0.168624,-0.048632
935,-0.260661,-0.048257,0.041767
936,-0.446052,0.168624,0.114086
937,-0.07527,0.150551,0.077927
938,0.239896,0.222844,0.077927
939,0.833148,0.060184,0.023687
940,0.443826,-0.17477,0.005607
941,-0.297739,-0.445871,-0.030552
942,-0.983687,-0.463945,-0.066712
943,-0.649983,-0.500091,0.005607
944,0.110122,-0.01211,0.096007
945,0.091583,0.548165,0.096007
946,0.239896,0.204771,0.041767
947,0.388209,0.258991,-0.012473
948,0.443826,0.024037,-0.012473
949,0.629217,-0.030183,-0.030552
950,0.666296,-0.030183,-0.030552
951,0.128661,-0.265137,-0.012473
952,-0.816835,-0.572385,-0.048632
953,-0.557287,0.078257,-0.030552
954,0.091583,0.89156,0.041767
955,0.128661,0.638532,0.077927
956,0.536522,0.602385,-0.012473
957,0.165739,0.403578,0.005607
958,-0.149426,0.277064,0.005607
959,-0.112348,0.060184,-0.048632
960,-0.334817,-0.427798,-0.084792
961,-0.242122,-0.482018,0.005607
962,-0.464591,-0.283211,0.041767
963,-0.038191,0.114404,0.005607
964,0.499444,0.385505,-0.030552
965,-0.186504,0.150551,-0.012473
966,-0.48313,-0.445871,-0.066712
967,-0.223583,-0.409724,-0.066712
968,0.314052,-0.06633,0.023687
969,0.221357,-0.06633,0.023687
970,-0.242122,-0.12055,-0.012473
971,-0.408974,0.060184,-0.030552
972,0.165739,0.331285,0.023687
973,0.443826,0.240918,0.077927
974,0.5736,-0.283211,0.023687
975,0.128661,-0.626605,-0.066712
976,-0.242122,-0.536238,-0.066712
977,-0.149426,0.04211,0.005607
978,0.110122,0.04211,0.041767
979,-0.242122,0.331285,0.059847
980,-0.390435,0.240918,0.059847
981,-0.205043,0.132477,0.041767
982,0.462365,-0.01211,0.005607
983,-0.019652,-0.22899,0.005607
984,-0.2792,-0.102477,0.005607
985,0.017426,-0.156697,-0.048632
986,0.388209,0.240918,-0.048632
987,0.1472,0.783119,0.059847
988,-0.390435,-0.283211,-0.030552
989,-0.316278,-0.427798,-0.066712
990,0.054504,0.313211,-0.012473
991,-0.167965,0.512018,-0.012473
992,-0.390435,0.313211,0.005607
993,-0.112348,-0.030183,0.023687
994,0.36967,-0.06633,0.077927
995,0.406748,-0.01211,0.077927
996,-0.038191,0.04211,0.023687
997,0.332591,-0.030183,0.041767
998,0.480904,-0.247064,-0.048632
999,-0.130887,-0.102477,-0.066712
1000,-0.649983,0.150551,0.005607
1001,-0.149426,0.132477,0.023687
1002,-0.167965,-0.102477,0.005607
1003,-0.353356,-0.283211,-0.030552
1004,-0.316278,-0.482018,-0.048632
1005,-0.05673,-0.409724,0.041767
1006,0.35113,-0.265137,0.023687
1007,0.5736,-0.030183,-0.048632
1008,0.962922,0.277064,-0.012473
1009,0.499444,0.963853,0.023687
1010,0.054504,0.674679,-0.030552
1011,0.332591,0.096331,-0.012473
1012,0.35113,0.258991,0.023687
1013,-0.05673,0.078257,0.005607
1014,-0.242122,0.005964,0.041767
1015,-0.612904,0.060184,0.041767
1016,-0.668522,-0.247064,0.059847
1017,-0.427513,-0.355504,0.023687
1018,-0.594365,-0.192844,0.023687
1019,-0.353356,-0.138624,0.041767
1020,-0.001113,-0.102477,0.023687
1021,0.035965,0.078257,-0.012473
1022,-0.038191,-0.138624,0.023687
1023,0.77753,-0.427798,0.005607
1024,0.443826,-0.626605,-0.030552
1025,0.184278,-0.463945,-0.030552
1026,-0.07527,0.060184,-0.012473
1027,-0.242122,0.765046,0.005607
1028,0.35113,0.385505,-0.030552
1029,-0.019652,0.277064,-0.066712
1030,-0.038191,0.710826,0.023687
1031,-0.205043,0.493945,-0.012473
1032,0.1472,0.295138,0.041767
1033,0.110122,0.096331,0.023687
1034,-0.093809,0.222844,0.023687
1035,-0.019652,-0.156697,-0.030552
1036,0.165739,-0.12055,-0.066712
1037,0.184278,-0.138624,-0.012473
1038,0.073044,-0.030183,-0.048632
1039,0.202817,-0.01211,-0.030552
1040,-0.390435,-0.048257,0.041767
1041,-0.297739,-0.102477,0.059847
1042,0.1472,-0.17477,0.077927
1043,-0.167965,-0.518165,-0.030552
1044,-0.835374,-0.536238,-0.084792
1045,-0.297739,0.005964,-0.030552
1046,0.054504,0.240918,-0.012473
1047,0.128661,0.04211,-0.012473
1048,0.073044,-0.247064,0.005607
1049,-0.05673,-0.084403,-0.030552
1050,-0.019652,-0.138624,-0.012473
1051,0.128661,-0.084403,0.041767
1052,0.314052,0.186697,0.059847
1053,0.425287,0.168624,0.059847
1054,0.258435,0.295138,0.041767
1055,-0.05673,0.367431,0.023687
1056,-0.205043,0.186697,-0.030552
1057,-0.464591,-0.192844,-0.030552
1058,-0.48313,-0.138624,-0.012473
1059,0.276974,-0.192844,-0.012473
1060,0.758991,0.078257,0.041767
1061,0.684835,0.060184,0.023687
1062,-0.167965,-0.138624,-0.012473
1063,-0.501669,0.04211,-0.066712
1064,-0.464591,-0.01211,-0.012473
1065,-0.779756,-0.084403,0.041767
1066,0.017426,-0.048257,0.059847
1067,0.295513,-0.102477,-0.012473
1068,0.054504,0.096331,-0.012473
1069,0.054504,0.078257,0.041767
1070,0.165739,0.186697,0.041767
1071,0.184278,0.493945,0.023687
1072,0.110122,0.240918,0.005607
1073,0.36967,-0.01211,-0.048632
1074,0.499444,0.132477,-0.012473
1075,0.073044,-0.247064,-0.012473
1076,0.091583,-0.554311,0.005607
1077,0.073044,-0.427798,0.059847
1078,-0.649983,-0.463945,-0.012473
1079,-0.05673,-0.01211,0.077927
1080,0.332591,0.060184,0.059847
1081,-0.038191,0.186697,-0.012473
1082,-1.132,-0.22899,-0.102872
1083,-0.649983,0.186697,-0.048632
1084,0.295513,0.240918,-0.012473
1085,0.184278,0.186697,-0.030552
1086,-0.019652,0.060184,-0.012473
1087,-0.297739,0.060184,0.005607
1088,0.184278,0.349358,0.005607
1089,0.36967,0.439725,-0.030552
1090,0.073044,0.204771,-0.012473
1091,-0.001113,0.240918,0.041767
1092,0.221357,0.204771,0.059847
1093,0.462365,0.114404,0.023687
1094,0.165739,-0.048257,-0.012473
1095,0.165739,-0.138624,0.005607
1096,0.1472,-0.12055,-0.012473
1097,0.035965,-0.247064,0.005607
1098,0.165739,-0.102477,0.059847
1099,0.184278,-0.084403,0.059847
1100,0.35113,-0.247064,-0.030552
1101,0.035965,-0.084403,-0.012473
1102,-0.186504,0.168624,0.005607
1103,0.128661,0.204771,-0.012473
1104,-0.297739,0.258991,-0.030552
1105,-0.186504,0.005964,0.041767
1106,-0.538748,-0.265137,-0.012473
1107,-0.575826,-0.445871,-0.048632
1108,-0.260661,-0.283211,-0.012473
1109,-0.557287,-0.22899,-0.012473
1110,-0.334817,-0.138624,-0.012473
1111,-0.07527,0.005964,0.077927
1112,0.221357,-0.192844,0.041767
1113,0.314052,0.005964,0.041767
1114,-0.038191,-0.337431,-0.048632
1115,-0.112348,0.349358,0.005607
1116,-0.001113,0.783119,0.077927
1117,0.1472,0.295138,0.005607
1118,0.017426,0.024037,-0.048632
1119,0.091583,0.005964,0.041767
1120,0.073044,-0.030183,0.059847
1121,0.276974,-0.06633,0.005607
1122,0.073044,-0.319357,-0.066712
1123,-0.242122,-0.301284,-0.084792
1124,0.425287,-0.247064,-0.102872
1125,0.425287,0.385505,-0.048632
1126,0.258435,0.439725,0.005607
1127,0.017426,0.222844,0.059847
1128,-0.520209,0.222844,0.023687
1129,-0.353356,0.168624,0.059847
1130,-0.167965,-0.12055,-0.030552
1131,-0.038191,-0.12055,-0.048632
1132,-0.038191,-0.084403,0.005607
1133,0.128661,0.060184,0.096007
1134,0.1472,-0.084403,0.096007
1135,0.295513,-0.102477,0.041767
1136,0.480904,-0.06633,-0.012473
1137,0.388209,-0.102477,-0.030552
1138,-0.05673,0.186697,-0.012473
1139,-0.205043,0.096331,-0.012473
1140,0.073044,-0.048257,-0.048632
1141,-0.260661,-0.12055,0.023687
1142,-1.020765,-0.247064,0.005607
1143,-0.853913,-0.337431,-0.048632
1144,-0.408974,0.186697,0.005607
1145,-0.149426,0.168624,0.005607
1146,0.165739,0.204771,-0.066712
1147,0.443826,0.493945,-0.030552
1148,0.666296,0.457798,-0.030552
1149,0.295513,0.150551,0.059847
1150,-0.093809,-0.12055,0.041767
1151,-0.05673,-0.138624,0.041767
1152,0.073044,-0.210917,0.059847
1153,0.443826,-0.373578,0.096007
1154,1.037078,-0.247064,0.077927
1155,0.536522,-0.427798,-0.030552
1156,-0.520209,0.258991,-0.048632
1157,-0.538748,0.475872,0.005607
1158,-0.093809,-0.030183,0.023687
1159,0.054504,0.132477,0.041767
1160,0.165739,0.493945,-0.012473
1161,0.165739,0.403578,-0.048632
1162,-0.038191,-0.22899,-0.030552
1163,-0.371896,-0.319357,-0.048632
1164,-0.446052,-0.355504,-0.030552
1165,-0.205043,0.005964,0.005607
1166,0.017426,-0.12055,0.023687
1167,0.091583,-0.12055,-0.030552
1168,0.1472,-0.084403,-0.048632
1169,0.35113,0.096331,-0.048632
1170,0.221357,0.132477,-0.048632
1171,0.36967,0.005964,-0.030552
1172,0.128661,0.403578,0.096007
1173,0.425287,0.530092,0.114086
1174,0.258435,0.04211,0.005607
1175,-0.761217,-0.355504,-0.084792
1176,-0.2792,-0.445871,0.041767
1177,-0.112348,-0.355504,0.077927
1178,-0.446052,-0.265137,-0.012473
1179,-0.390435,0.132477,0.005607
1180,-0.408974,0.331285,0.023687
1181,0.017426,0.367431,0.059847
1182,-0.019652,-0.102477,0.005607
1183,-0.242122,-0.283211,0.005607
1184,-0.167965,-0.138624,-0.030552
1185,0.258435,0.096331,-0.066712
1186,0.239896,-0.102477,-0.066712
1187,0.314052,0.078257,-0.066712
1188,0.332591,0.403578,-0.012473
1189,0.221357,0.313211,0.005607
1190,-0.05673,-0.138624,0.059847
1191,-0.112348,-0.12055,0.077927
1192,-0.038191,-0.084403,0.023687
1193,-0.112348,-0.12055,-0.030552
1194,-0.019652,-0.138624,-0.012473
1195,-0.093809,0.168624,-0.030552
1196,-0.205043,-0.084403,-0.030552
1197,-0.167965,-0.048257,-0.030552
1198,0.073044,0.096331,0.023687
1199,0.221357,0.132477,0.023687
1200,0.5736,0.331285,-0.030552
1201,0.425287,0.150551,0.005607
1202,-0.149426,-0.138624,0.041767
1203,-0.353356,-0.17477,-0.030552
1204,-0.557287,-0.265137,-0.084792
1205,-0.594365,-0.301284,-0.066712
1206,0.332591,0.168624,0.023687
1207,0.425287,-0.01211,0.023687
1208,0.314052,-0.06633,0.077927
1209,0.517983,0.04211,0.114086
1210,0.629217,0.403578,0.059847
1211,0.128661,0.457798,0.023687
1212,-0.07527,0.222844,-0.066712
1213,-0.186504,0.060184,-0.048632
1214,-0.928069,-0.06633,-0.048632
1215,-0.242122,-0.283211,-0.030552
1216,0.035965,-0.319357,0.023687
1217,-0.093809,-0.265137,0.005607
1218,-0.557287,-0.156697,-0.012473
1219,-0.07527,0.024037,0.023687
1220,0.128661,0.060184,0.005607
1221,-0.038191,0.150551,0.023687
1222,-0.260661,0.277064,0.005607
1223,-0.334817,-0.102477,0.005607
1224,-0.205043,-0.048257,0.041767
1225,-0.205043,0.150551,0.005607
1226,0.295513,0.421652,0.023687
1227,0.79607,-0.01211,-0.030552
1228,0.443826,-0.265137,-0.030552
1229,-0.05673,-0.301284,0.005607
1230,0.184278,-0.048257,0.005607
1231,0.258435,0.150551,-0.030552
1232,0.202817,0.150551,0.023687
1233,0.017426,0.168624,0.059847
1234,-0.242122,0.024037,-0.030552
1235,-0.149426,-0.030183,0.023687
1236,0.425287,-0.06633,0.023687
1237,0.592139,-0.210917,0.041767
1238,0.239896,0.04211,-0.048632
1239,0.054504,0.132477,-0.066712
1240,-0.872452,-0.01211,0.005607
1241,-0.557287,0.024037,0.059847
1242,-0.501669,-0.12055,0.059847
1243,-0.390435,-0.192844,0.041767
1244,-0.001113,-0.138624,0.023687
1245,0.332591,-0.210917,-0.048632
1246,0.239896,0.005964,-0.048632
1247,0.091583,0.096331,0.023687
1248,-0.019652,-0.01211,0.005607
1249,0.239896,-0.06633,0.023687
1250,0.1472,0.04211,0.005607
1251,-0.019652,-0.102477,-0.030552
1252,-0.07527,0.439725,-0.012473
1253,-0.07527,0.331285,0.005607
1254,-0.205043,0.005964,0.041767
1255,0.128661,-0.12055,0.041767
1256,0.962922,-0.210917,0.023687
1257,1.352243,0.313211,0.041767
1258,0.79607,0.04211,-0.048632
1259,-0.983687,-0.048257,-0.066712
1260,-1.057843,0.078257,-0.030552
1261,-0.724139,0.078257,0.005607
1262,-0.223583,0.186697,0.059847
1263,-0.149426,0.04211,0.005607
1264,-0.093809,-0.084403,0.041767
1265,-0.05673,-0.138624,0.023687
1266,-0.019652,-0.17477,-0.012473
1267,-0.019652,-0.06633,-0.030552
1268,0.110122,0.078257,-0.012473
1269,0.36967,-0.01211,0.005607
1270,0.36967,0.005964,-0.012473
1271,-0.07527,-0.102477,-0.066712
1272,-0.334817,-0.030183,-0.084792
1273,-0.594365,-0.247064,-0.030552
1274,0.443826,0.005964,-0.012473
1275,0.36967,0.313211,0.023687
1276,0.110122,0.421652,0.077927
1277,-0.167965,0.168624,-0.012473
1278,-0.130887,-0.06633,-0.012473
1279,0.36967,-0.138624,0.023687
1280,-0.112348,-0.102477,0.005607
1281,-0.297739,-0.01211,-0.012473
1282,-0.05673,0.114404,0.059847
1283,-0.260661,-0.301284,-0.012473
1284,-0.297739,-0.319357,-0.030552
1285,-0.001113,0.060184,0.005607
1286,0.128661,0.096331,0.005607
1287,-0.186504,0.024037,0.005607
1288,-0.019652,0.204771,0.059847
1289,0.35113,0.240918,0.059847
1290,0.276974,0.078257,0.041767
1291,-0.130887,-0.048257,-0.030552
1292,-0.05673,0.060184,-0.048632
1293,0.054504,-0.084403,-0.012473
1294,0.073044,-0.283211,-0.030552
1295,-0.05673,-0.319357,-0.066712
1296,0.091583,-0.301284,-0.030552
1297,0.295513,-0.156697,0.023687
1298,0.165739,0.186697,0.005607
1299,0.406748,0.222844,-0.012473
1300,0.128661,0.295138,-0.030552
1301,-0.353356,0.024037,-0.030552
1302,-0.779756,-0.17477,-0.030552
1303,0.239896,0.168624,0.023687
1304,0.629217,-0.06633,0.041767
1305,0.555061,0.150551,0.059847
1306,-0.167965,0.475872,0.023687
1307,-0.408974,0.240918,0.005607
1308,-0.167965,0.024037,0.023687
1309,-0.186504,-0.156697,-0.012473
1310,0.091583,-0.337431,-0.030552
1311,-0.038191,-0.301284,-0.030552
1312,-0.186504,0.096331,0.041767
1313,-0.408974,0.186697,-0.030552
1314,-0.001113,0.060184,-0.012473
1315,0.406748,0.078257,0.023687
1316,0.091583,0.005964,0.041767
1317,-0.260661,-0.030183,-0.030552
1318,-0.205043,0.096331,-0.030552
1319,0.110122,-0.030183,-0.012473
1320,-0.001113,-0.17477,-0.012473
1321,-0.205043,-0.12055,0.005607
1322,-0.167965,-0.01211,0.023687
1323,-0.093809,0.024037,0.023687
1324,-0.001113,-0.138624,-0.012473
1325,0.091583,-0.17477,0.005607
1326,-0.038191,-0.156697,0.023687
1327,0.054504,-0.030183,-0.030552
1328,0.035965,0.114404,-0.048632
1329,-0.001113,0.204771,0.023687
1330,-0.019652,0.04211,0.005607
1331,0.035965,0.060184,0.023687
1332,-0.001113,0.150551,-0.012473
1333,-0.038191,0.078257,0.005607
1334,-0.001113,-0.030183,-0.066712
1335,-0.019652,0.005964,-0.012473
1336,0.035965,0.114404,0.005607
1337,0.091583,0.060184,0.023687
1338,0.184278,0.005964,-0.012473
1339,0.258435,0.005964,0.005607
1340,0.017426,0.060184,0.005607
1341,-0.112348,0.150551,-0.030552
1342,-0.093809,0.114404,-0.030552
1343,-0.112348,-0.17477,-0.012473
1344,-0.353356,-0.301284,-0.012473
1345,-0.167965,-0.22899,-0.030552
1346,0.091583,0.078257,0.005607
1347,0.128661,0.060184,-0.012473
1348,-0.001113,0.005964,0.005607
1349,0.054504,0.005964,0.023687
1350,-0.019652,0.078257,0.023687
1351,-0.019652,0.060184,0.059847
1352,-0.001113,0.060184,-0.012473
1353,0.035965,0.024037,0.023687
1354,0.128661,0.024037,0.023687
1355,0.091583,0.005964,0.023687
1356,0.017426,0.005964,-0.012473
1357,-0.07527,-0.030183,0.005607
1358,-0.05673,0.005964,-0.012473
1359,-0.05673,0.005964,0.005607
1360,-0.038191,0.024037,-0.012473
1361,-0.001113,0.024037,-0.012473
1362,-0.019652,0.024037,-0.048632
1363,-0.038191,-0.030183,-0.030552
1364,-0.019652,-0.01211,0.005607
1365,-0.019652,0.005964,-0.012473
1366,-0.001113,-0.048257,0.023687
1367,0.035965,-0.048257,0.023687
1368,-0.019652,-0.06633,0.023687
1369,-0.001113,0.060184,0.023687
1370,-0.001113,0.078257,0.023687
1371,-0.001113,0.005964,0.041767
1372,0.017426,-0.01211,0.005607
1373,-0.019652,-0.06633,-0.030552
1374,-0.001113,0.024037,0.023687
1375,0.017426,0.04211,0.005607
1376,-0.019652,-0.01211,-0.030552
1377,-0.019652,-0.06633,-0.048632
1378,-0.019652,-0.12055,-0.030552
1379,0.017426,-0.084403,0.023687
1380,-0.019652,-0.12055,-0.030552
1381,0.017426,0.132477,0.005607
1382,0.017426,0.150551,0.005607
1383,0.017426,0.186697,0.005607
1384,-0.001113,0.168624,0.023687
1385,-0.001113,0.024037,0.005607
1386,0.035965,0.060184,0.023687
1387,0.054504,0.04211,0.005607
1388,0.035965,-0.01211,0.041767
1389,-0.019652,-0.048257,0.059847
1390,-0.019652,-0.01211,0.023687
1391,-0.001113,0.024037,-0.030552
1392,-0.001113,-0.030183,-0.048632
1393,-0.019652,-0.048257,-0.048632
1394,-0.001113,-0.030183,-0.048632
1395,0.017426,0.024037,-0.012473
1396,0.035965,0.005964,-0.012473
1397,-0.001113,-0.01211,-0.012473
1398,-0.001113,-0.01211,-0.030552
1399,-0.001113,-0.030183,0.005607
1400,-0.001113,0.005964,0.005607
1401,0.017426,0.005964,0.005607
1402,0.017426,-0.01211,0.023687
1403,-0.001113,-0.01211,0.023687
1404,0.017426,-0.01211,0.023687
1405,-0.001113,-0.01211,0.005607
1406,-0.019652,0.005964,0.023687
1407,-0.001113,0.005964,0.041767
1408,-0.001113,-0.01211,0.005607
1409,-0.038191,-0.048257,0.023687
1410,-0.001113,-0.030183,0.005607
1411,-0.001113,-0.030183,-0.012473
1412,-0.001113,0.096331,0.005607
1413,-0.001113,0.024037,-0.012473
1414,-0.019652,-0.01211,0.005607
1415,-0.001113,0.005964,0.005607
1416,-0.019652,0.005964,0.005607
1417,-0.019652,0.005964,0.023687
1418,-0.001113,0.005964,-0.012473
1419,-0.001113,0.005964,0.023687
1420,-0.019652,0.005964,0.005607
1421,-0.019652,0.005964,0.023687
1422,-0.001113,0.005964,0.005607
1423,-0.001113,-0.01211,0.005607
1424,-0.019652,0.005964,0.023687
1425,-0.001113,0.005964,0.005607
1426,-0.001113,-0.01211,0.005607
1427,-0.001113,0.005964,0.005607
1428,-0.05673,-0.030183,0.005607
1429,-0.001113,-0.030183,-0.030552
1430,-0.001113,-0.01211,-0.030552
1431,-0.001113,0.005964,-0.012473
1432,-0.001113,0.005964,-0.012473
1433,-0.001113,-0.01211,-0.048632
1434,-0.019652,-0.01211,-0.030552
1435,-0.001113,-0.01211,-0.012473
1436,-0.001113,-0.030183,-0.012473
1437,-0.001113,-0.01211,0.005607
1438,-0.019652,0.005964,0.023687
1439,-0.001113,0.005964,0.023687
1440,-0.001113,0.005964,0.005607
1441,-0.001113,0.005964,0.005607
1442,-0.019652,-0.01211,0.023687
1443,-0.038191,0.005964,0.005607
1444,-0.019652,0.005964,-0.012473
1445,-0.038191,-0.030183,0.041767
1446,-0.001113,-0.06633,0.005607
1447,-0.001113,-0.06633,-0.030552
1448,-0.001113,-0.01211,-0.030552
1449,-0.001113,0.078257,-0.012473
1450,-0.001113,0.060184,0.005607
1451,0.017426,0.04211,0.005607
1452,-0.001113,0.005964,0.023687
1453,0.017426,0.024037,0.005607
1454,-0.001113,-0.01211,-0.012473
1455,0.017426,0.005964,0.023687
1456,0.017426,0.005964,0.041767
1457,0.017426,-0.01211,0.023687
1458,-0.019652,0.005964,0.005607
1459,-0.001113,0.024037,-0.012473
1460,-0.019652,0.005964,0.005607
1461,-0.019652,0.005964,0.005607
1462,-0.019652,0.024037,-0.012473
1463,0.017426,0.005964,0.023687
1464,-0.001113,0.005964,0.023687
1465,-0.019652,-0.030183,-0.030552
1466,-0.019652,-0.01211,-0.048632
1467,-0.001113,-0.01211,-0.012473
1468,-0.019652,-0.01211,-0.030552
1469,-0.001113,0.005964,-0.030552
1470,-0.001113,0.005964,0.023687
1471,0.017426,0.005964,0.005607
1472,-0.001113,-0.01211,0.005607
1473,-0.001113,0.024037,0.041767
1474,0.035965,0.024037,0.059847
1475,-0.001113,0.024037,-0.012473
1476,-0.019652,-0.01211,0.005607
1477,-0.001113,0.005964,0.023687
1478,-0.001113,0.005964,0.041767
1479,-0.019652,0.005964,0.005607
1480,-0.019652,-0.01211,0.005607
1481,-0.001113,-0.01211,0.023687
1482,-0.019652,-0.01211,-0.012473
1483,-0.001113,-0.01211,-0.012473
1484,-0.001113,0.005964,0.041767
1485,-0.019652,0.024037,0.005607
1486,-0.038191,0.005964,-0.012473
1487,-0.001113,0.005964,-0.012473
1488,-0.019652,0.005964,-0.012473
1489,-0.019652,0.005964,-0.012473
1490,0.017426,0.024037,-0.030552
1491,0.017426,0.005964,-0.012473
1492,0.017426,0.005964,0.005607
1493,0.017426,0.005964,-0.012473
1494,0.017426,-0.01211,0.005607
1495,-0.001113,0.024037,0.041767
1496,0.017426,0.005964,0.059847
1497,-0.001113,0.005964,0.023687
1498,-0.001113,0.005964,0.059847
1499,0.017426,0.005964,0.059847
1500,0.017426,0.005964,0.023687
1501,0.017426,-0.01211,0.005607
1502,-0.019652,-0.01211,0.059847
1503,0.017426,0.024037,0.005607
1504,-0.019652,0.005964,-0.030552
1505,-0.001113,0.005964,-0.030552
1506,-0.001113,0.024037,0.005607
1507,-0.001113,0.024037,0.005607
1508,-0.001113,0.005964,-0.012473
1509,-0.001113,-0.01211,0.023687
1510,0.017426,0.005964,0.023687
1511,-0.001113,0.005964,-0.012473
1512,-0.001113,0.005964,-0.012473
1513,-0.001113,-0.01211,-0.012473
1514,-0.001113,0.005964,0.005607
1515,0.017426,0.024037,0.005607
1516,-0.001113,0.024037,0.041767
1517,-0.001113,0.005964,0.041767
1518,-0.001113,0.005964,0.005607
1519,0.017426,-0.01211,0.023687
1520,-0.001113,0.005964,0.005607
1521,-0.019652,0.005964,-0.012473
1522,-0.001113,0.005964,-0.012473
1523,-0.019652,-0.01211,-0.012473
1524,-0.019652,0.005964,-0.012473
1525,0.017426,0.024037,-0.030552
1526,-0.001113,-0.01211,-0.012473
1527,-0.001113,0.005964,0.023687
1528,0.017426,0.024037,-0.030552
1529,-0.001113,0.005964,-0.012473
1530,-0.001113,0.005964,0.005607
1531,-0.001113,0.005964,0.023687
1532,0.017426,0.005964,0.023687
1533,-0.001113,0.005964,0.005607
1534,-0.001113,0.005964,0.023687
1535,-0.001113,-0.01211,0.023687
1536,-0.001113,0.024037,-0.012473
1537,-0.001113,-0.01211,-0.012473
1538,0.017426,-0.01211,0.023687
1539,-0.019652,0.005964,0.005607
1540,0.017426,0.005964,0.005607
1541,-0.001113,0.005964,0.005607
1542,-0.019652,-0.01211,-0.012473
1543,-0.001113,0.024037,-0.012473
1544,-0.001113,0.005964,-0.048632
1545,-0.001113,0.005964,0.005607
1546,-0.001113,0.005964,-0.012473
1547,-0.001113,0.005964,-0.048632
1548,-0.001113,0.005964,-0.048632
1549,-0.001113,-0.01211,-0.012473
1550,-0.001113,-0.01211,-0.012473
1551,-0.001113,0.005964,0.005607
1552,-0.019652,0.024037,0.023687
1553,0.017426,0.024037,0.041767
1554,-0.001113,0.005964,0.005607
1555,-0.001113,0.005964,0.023687
1556,0.017426,0.04211,0.059847
1557,0.017426,0.04211,0.077927
1558,0.017426,0.024037,0.077927
1559,0.017426,0.04211,0.059847
1560,-0.001113,0.005964,0.041767
1561,-0.001113,0.005964,0.005607
1562,0.017426,0.005964,0.005607
1563,0.017426,0.005964,0.023687
1564,-0.001113,0.005964,-0.012473
1565,-0.019652,0.005964,-0.012473
1566,-0.001113,0.005964,0.005607
1567,-0.019652,0.005964,-0.012473
1568,-0.019652,0.005964,-0.012473
1569,-0.001113,0.005964,0.005607
1570,-0.001113,0.005964,0.005607
1571,-0.001113,0.005964,0.023687
1572,-0.001113,-0.01211,-0.012473
1573,-0.019652,0.005964,0.023687
1574,-0.001113,0.005964,0.005607
1575,-0.001113,0.005964,-0.012473
1576,-0.001113,0.024037,-0.012473
1577,0.017426,0.005964,0.023687
1578,0.017426,-0.01211,-0.012473
1579,-0.019652,0.024037,-0.030552
1580,-0.001113,0.024037,0.005607
1581,0.017426,0.024037,0.023687
1582,-0.001113,0.005964,-0.048632
1583,-0.019652,-0.030183,-0.012473
1584,-0.001113,0.005964,0.023687
1585,-0.019652,-0.01211,-0.030552
1586,-0.019652,-0.01211,-0.030552
1587,-0.001113,-0.01211,-0.012473
1588,-0.001113,0.005964,0.023687
1589,-0.001113,-0.01211,0.005607
1590,0.017426,0.005964,0.005607
1591,-0.001113,-0.01211,0.005607
1592,-0.019652,-0.01211,0.005607
1593,-0.001113,-0.030183,0.023687
1594,-0.001113,0.005964,0.041767
1595,0.035965,0.005964,0.041767
1596,0.017426,0.04211,0.005607
1597,-0.001113,0.024037,-0.048632
1598,-0.001113,0.024037,-0.012473
1599,0.017426,0.024037,-0.012473
1600,-0.001113,0.024037,-0.030552
1601,-0.001113,0.005964,-0.012473
1602,-0.001113,0.005964,0.005607
1603,-0.019652,0.005964,-0.048632
1604,-0.001113,-0.01211,0.005607
1605,-0.001113,0.005964,-0.012473
1606,-0.001113,0.005964,0.023687
1607,-0.001113,0.005964,-0.012473
1608,-0.019652,0.024037,0.023687
1609,-0.019652,0.005964,0.023687
1610,0.017426,-0.01211,0.023687
1611,0.017426,0.005964,0.005607
1612,-0.001113,0.005964,0.005607
1613,-0.001113,-0.01211,-0.012473
1614,-0.001113,0.005964,-0.012473
1615,-0.019652,-0.01211,-0.030552
1616,-0.001113,-0.01211,-0.012473
1617,-0.019652,-0.01211,-0.012473
1618,-0.019652,0.005964,-0.012473
1619,-0.001113,0.024037,0.023687
1620,-0.019652,-0.01211,0.023687
1621,-0.019652,0.005964,0.005607
1622,-0.001113,-0.01211,0.023687
1623,-0.001113,-0.01211,0.041767
1624,-0.001113,0.005964,0.023687
1625,-0.001113,0.005964,0.077927
1626,-0.001113,0.005964,0.041767
1627,-0.001113,0.005964,0.005607
1628,-0.001113,0.005964,0.005607
1629,-0.001113,0.005964,0.005607
1630,-0.019652,0.005964,0.023687
1631,-0.019652,0.005964,0.005607
1632,0.017426,-0.01211,-0.012473
1633,0.017426,0.005964,-0.012473
1634,-0.001113,0.005964,0.023687
1635,-0.001113,-0.01211,-0.012473
1636,-0.019652,0.005964,-0.012473
1637,-0.001113,0.005964,-0.012473
1638,-0.001113,-0.01211,-0.048632
1639,-0.001113,0.005964,-0.030552
1640,-0.019652,-0.030183,-0.012473
1641,-0.001113,0.005964,0.041767
1642,0.017426,0.005964,0.023687
1643,0.017426,-0.01211,0.023687
1644,-0.038191,0.024037,0.041767
1645,0.017426,0.024037,0.023687
1646,0.017426,0.005964,-0.012473
1647,0.017426,0.005964,0.005607
1648,-0.001113,-0.030183,-0.012473
1649,-0.001113,0.005964,-0.030552
1650,-0.001113,-0.01211,-0.030552
1651,0.017426,0.005964,-0.030552
1652,-0.001113,0.005964,-0.030552
1653,-0.001113,0.005964,-0.012473
1654,-0.001113,0.005964,0.005607
1655,-0.001113,0.024037,0.023687
1656,0.035965,0.005964,0.041767
1657,-0.001113,0.005964,0.023687
1658,0.017426,0.005964,0.041767
1659,-0.001113,0.005964,0.041767
1660,0.017426,-0.01211,0.005607
1661,-0.001113,-0.030183,0.005607
1662,-0.001113,0.005964,0.023687
1663,-0.019652,-0.01211,-0.012473
1664,0.017426,0.005964,0.023687
1665,0.017426,-0.01211,0.041767
1666,-0.001113,0.005964,0.023687
1667,0.017426,-0.01211,-0.030552
1668,-0.001113,0.005964,-0.030552
1669,-0.001113,-0.01211,0.005607
1670,-0.001113,0.024037,-0.012473
1671,-0.019652,0.005964,-0.012473
1672,-0.001113,0.005964,0.005607
1673,0.035965,0.005964,-0.048632
1674,0.017426,-0.01211,-0.012473
1675,0.017426,0.024037,0.041767
1676,0.017426,0.005964,0.041767
1677,0.017426,0.024037,0.023687
1678,-0.001113,0.005964,0.023687
1679,0.017426,0.005964,0.023687
1680,-0.001113,-0.01211,-0.012473
1681,-0.001113,0.005964,-0.012473
1682,-0.019652,0.005964,0.023687
1683,0.017426,0.005964,-0.012473
1684,-0.001113,-0.030183,-0.012473
1685,-0.019652,0.005964,-0.012473
1686,0.017426,0.005964,0.005607
1687,-0.001113,0.005964,-0.012473
1688,-0.001113,0.005964,-0.030552
1689,-0.001113,0.005964,-0.012473
1690,-0.001113,0.005964,-0.012473
1691,0.017426,-0.01211,-0.048632
1692,-0.001113,0.005964,-0.012473
1693,0.017426,0.024037,0.005607
1694,0.017426,0.005964,0.005607
1695,-0.001113,0.005964,-0.030552
1696,-0.001113,0.005964,0.041767
1697,-0.001113,0.005964,0.041767
1698,-0.001113,0.005964,0.059847
1699,0.017426,0.024037,0.077927
1700,0.017426,0.005964,0.096007
1701,-0.019652,0.024037,0.005607
1702,-0.001113,0.005964,-0.012473
1703,-0.001113,-0.01211,-0.030552
1704,-0.001113,0.005964,-0.030552
1705,-0.001113,-0.01211,-0.012473
1706,0.035965,0.005964,0.005607
1707,-0.001113,-0.01211,0.005607
1708,-0.001113,-0.01211,0.005607
1709,0.035965,0.005964,0.005607
1710,0.017426,0.005964,0.023687
1711,-0.001113,-0.01211,0.041767
1712,-0.019652,0.005964,0.023687
1713,-0.001113,0.005964,0.023687
1714,-0.001113,0.005964,0.005607
1715,-0.001113,0.005964,-0.030552
1716,-0.001113,-0.01211,-0.030552
1717,-0.019652,0.005964,-0.012473
1718,-0.019652,-0.01211,-0.012473
1719,0.035965,-0.01211,-0.012473
1720,0.035965,0.005964,-0.012473
1721,-0.001113,-0.01211,0.005607
1722,-0.019652,-0.01211,-0.030552
1723,0.017426,-0.01211,-0.048632
1724,-0.019652,-0.01211,0.005607
1725,0.017426,-0.01211,-0.012473
1726,-0.001113,0.005964,-0.030552
1727,0.017426,0.005964,-0.012473
1728,-0.001113,0.005964,0.005607
1729,-0.001113,0.005964,0.041767
1730,-0.001113,0.005964,0.023687
1731,-0.001113,0.005964,0.041767
1732,-0.019652,-0.01211,0.023687
1733,-0.001113,0.024037,0.023687
1734,-0.001113,-0.01211,0.023687
1735,0.017426,0.005964,0.059847
1736,-0.001113,0.005964,0.041767
1737,-0.001113,0.005964,0.005607
1738,-0.019652,-0.01211,0.005607
1739,-0.001113,-0.01211,-0.012473
1740,-0.001113,0.005964,-0.012473
1741,-0.019652,0.005964,0.005607
1742,0.017426,0.005964,-0.012473
1743,0.017426,0.005964,0.005607
1744,0.035965,0.005964,0.005607
1745,-0.001113,0.005964,0.005607
1746,-0.019652,-0.01211,-0.012473
1747,-0.001113,0.005964,-0.030552
1748,0.017426,-0.030183,-0.012473
1749,-0.001113,0.005964,0.005607
1750,0.017426,0.005964,0.005607
1751,0.035965,-0.01211,-0.012473
1752,-0.001113,-0.01211,0.005607
1753,-0.001113,0.005964,-0.030552
1754,-0.019652,-0.030183,-0.012473
1755,-0.001113,-0.030183,-0.048632
1756,-0.019652,-0.030183,-0.030552
1757,-0.001113,-0.01211,-0.030552
1758,-0.001113,-0.01211,-0.030552
1759,0.017426,0.024037,0.005607
1760,0.017426,0.04211,0.041767
1761,0.017426,0.005964,0.023687
1762,-0.001113,0.005964,0.005607
1763,-0.001113,0.005964,0.005607
1764,-0.001113,-0.01211,0.023687
1765,0.017426,0.005964,-0.012473
1766,-0.001113,0.005964,0.077927
1767,-0.001113,0.024037,0.059847
1768,-0.001113,0.005964,0.023687
1769,-0.001113,0.005964,0.023687
1770,-0.001113,0.024037,0.023687
1771,-0.001113,0.024037,0.005607
1772,-0.001113,0.005964,-0.030552
1773,-0.001113,0.005964,-0.012473
1774,-0.001113,0.005964,-0.030552
1775,0.017426,-0.01211,-0.048632
1776,-0.019652,0.005964,-0.012473
1777,-0.001113,-0.01211,0.005607
1778,0.017426,-0.01211,0.023687
1779,-0.019652,0.005964,0.023687
1780,-0.001113,-0.01211,0.023687
1781,-0.001113,-0.01211,0.023687
1782,0.017426,0.005964,0.023687
1783,-0.001113,0.005964,0.023687
1784,-0.001113,-0.01211,0.023687
1785,-0.001113,0.005964,0.005607
1786,0.035965,0.005964,-0.012473
1787,-0.001113,0.005964,-0.030552
1788,-0.001113,-0.01211,-0.030552
1789,-0.001113,-0.01211,-0.012473
1790,-0.001113,0.005964,-0.048632
1791,-0.001113,0.005964,-0.030552
1792,-0.019652,-0.048257,-0.030552
1793,-0.019652,0.005964,-0.030552
1794,0.017426,0.005964,0.005607
1795,-0.019652,-0.01211,0.023687
1796,0.017426,0.024037,0.023687
1797,0.017426,0.024037,0.041767
1798,-0.019652,0.005964,0.041767
1799,-0.001113,0.005964,0.023687
1800,-0.001113,0.005964,0.005607
1801,-0.001113,-0.01211,0.023687
1802,0.017426,0.024037,0.005607
1803,-0.001113,-0.01211,-0.012473
1804,-0.001113,0.005964,-0.030552
1805,-0.001113,0.005964,-0.012473
1806,-0.001113,-0.01211,-0.012473
1807,-0.001113,0.005964,-0.030552
1808,-0.001113,-0.01211,-0.012473
1809,-0.001113,-0.01211,0.023687
1810,-0.019652,0.005964,0.023687
1811,0.017426,0.005964,0.041767
1812,0.017426,0.005964,0.023687
1813,0.017426,0.005964,0.023687
1814,-0.019652,-0.01211,0.077927
1815,-0.001113,0.005964,0.005607
1816,0.017426,0.005964,0.023687
1817,-0.001113,-0.01211,0.005607
1818,-0.001113,0.005964,0.005607
1819,-0.001113,-0.01211,0.023687
1820,-0.001113,0.005964,0.005607
1821,-0.001113,0.005964,0.005607
1822,-0.001113,0.005964,-0.030552
1823,-0.001113,-0.01211,0.005607
1824,-0.019652,0.024037,-0.048632
1825,-0.001113,0.024037,-0.048632
1826,-0.001113,0.005964,0.005607
1827,0.017426,0.005964,0.005607
1828,0.017426,-0.01211,-0.012473
1829,-0.001113,0.005964,0.005607
1830,-0.001113,0.005964,0.005607
1831,-0.001113,0.005964,0.023687
1832,-0.001113,-0.01211,0.005607
1833,-0.001113,0.005964,0.023687
1834,-0.001113,-0.01211,0.023687
1835,-0.019652,0.005964,-0.012473
1836,-0.001113,0.005964,0.005607
1837,-0.001113,0.005964,-0.012473
1838,-0.001113,-0.01211,-0.030552
1839,-0.001113,0.005964,-0.048632
1840,-0.019652,-0.01211,-0.030552
1841,-0.001113,0.005964,-0.030552
1842,-0.001113,0.005964,-0.012473
1843,-0.001113,0.005964,0.005607
1844,-0.001113,0.005964,0.059847
1845,-0.001113,0.005964,0.005607
1846,-0.001113,-0.01211,0.005607
1847,-0.001113,0.005964,0.059847
1848,-0.001113,0.005964,0.023687
1849,-0.019652,0.005964,-0.012473
1850,-0.001113,0.024037,0.005607
1851,0.017426,0.005964,0.005607
1852,-0.019652,0.005964,0.005607
1853,-0.019652,-0.01211,-0.012473
1854,0.017426,0.005964,0.041767
1855,-0.001113,-0.01211,0.041767
1856,-0.001113,0.005964,0.023687
1857,0.017426,0.005964,0.005607
1858,0.017426,0.024037,0.023687
1859,-0.001113,0.005964,-0.012473
1860,-0.001113,0.005964,-0.048632
1861,-0.001113,0.005964,-0.030552
1862,-0.001113,-0.01211,-0.012473
1863,-0.001113,0.005964,-0.012473
1864,-0.001113,-0.01211,0.005607
1865,0.017426,-0.01211,0.005607
1866,-0.019652,-0.030183,0.041767
1867,0.017426,0.024037,0.041767
1868,-0.019652,0.024037,0.041767
1869,-0.001113,0.005964,0.041767
1870,-0.001113,-0.01211,0.005607
1871,-0.001113,-0.01211,-0.012473
1872,-0.001113,-0.01211,0.005607
1873,-0.001113,-0.01211,0.005607
1874,-0.001113,-0.01211,-0.030552
1875,-0.019652,0.024037,-0.012473
1876,-0.001113,0.005964,0.023687
1877,-0.001113,0.005964,-0.030552
1878,0.091583,0.005964,-0.030552
1879,-0.019652,0.005964,-0.012473
1880,-0.001113,0.024037,-0.012473
1881,-0.019652,0.005964,-0.030552
1882,-0.001113,0.024037,0.005607
1883,0.017426,0.005964,0.023687
1884,-0.001113,0.04211,0.005607
1885,-0.001113,0.005964,0.005607
1886,-0.001113,0.005964,0.005607
1887,-0.001113,0.005964,0.023687
1888,0.017426,0.024037,0.005607
1889,-0.001113,0.005964,0.077927
1890,-0.019652,0.024037,0.023687
1891,-0.001113,-0.01211,0.005607
1892,-0.001113,0.005964,-0.012473
1893,-0.001113,0.005964,0.005607
1894,-0.001113,0.005964,-0.012473
1895,-0.019652,0.005964,-0.012473
1896,-0.019652,0.005964,0.005607
1897,-0.001113,0.005964,0.005607
1898,-0.019652,0.005964,-0.012473
1899,0.017426,-0.01211,0.005607
1900,-0.038191,0.005964,0.005607
1901,-0.001113,0.005964,0.023687
1902,-0.001113,0.005964,0.005607
1903,-0.001113,-0.01211,0.023687
1904,-0.019652,0.005964,0.023687
1905,0.017426,-0.01211,-0.012473
1906,-0.001113,0.024037,0.023687
1907,0.017426,0.005964,0.005607
1908,0.017426,0.005964,-0.012473
1909,-0.001113,0.005964,-0.012473
1910,-0.019652,0.005964,-0.030552
1911,-0.001113,0.005964,-0.012473
1912,-0.001113,0.005964,-0.012473
1913,0.017426,0.024037,0.005607
1914,-0.001113,0.024037,0.023687
1915,0.017426,0.005964,-0.012473
1916,-0.001113,-0.01211,-0.012473
1917,-0.001113,0.005964,0.005607
1918,-0.001113,0.024037,0.023687
1919,-0.019652,0.005964,0.023687
1920,-0.001113,0.005964,0.005607
1921,-0.001113,0.005964,0.023687
1922,-0.001113,0.024037,0.005607
1923,-0.001113,0.005964,0.005607
1924,-0.001113,0.005964,0.041767
1925,-0.019652,0.005964,0.023687
1926,0.017426,0.005964,0.005607
1927,-0.001113,0.024037,-0.012473
1928,-0.001113,0.005964,-0.030552
1929,-0.001113,0.005964,-0.030552
1930,-0.001113,0.005964,-0.030552
1931,-0.001113,0.005964,0.005607
1932,-0.001113,0.024037,0.005607
1933,-0.019652,-0.01211,-0.048632
1934,-0.038191,-0.01211,0.005607
1935,-0.001113,-0.030183,0.023687
1936,-0.001113,0.005964,0.041767
1937,-0.019652,0.005964,0.005607
1938,-0.001113,0.005964,0.023687
1939,-0.001113,0.005964,0.041767
1940,-0.019652,0.024037,0.023687
1941,-0.001113,0.005964,-0.012473
1942,0.017426,0.024037,0.005607
1943,0.017426,-0.01211,-0.012473
1944,-0.001113,0.005964,0.005607
1945,0.017426,0.024037,-0.012473
1946,-0.001113,0.005964,0.077927
1947,-0.001113,0.005964,0.023687
1948,0.017426,-0.01211,-0.030552
1949,0.017426,0.005964,0.005607
1950,-0.001113,-0.01211,-0.012473
1951,-0.001113,-0.01211,-0.030552
1952,0.017426,-0.01211,0.005607
1953,-0.001113,-0.01211,0.005607
1954,-0.001113,0.005964,0.023687
1955,0.017426,0.005964,0.005607
1956,0.017426,0.005964,0.023687
1957,0.017426,0.005964,0.041767
1958,-0.001113,0.005964,0.023687
1959,-0.038191,0.005964,0.023687
1960,0.017426,0.005964,0.005607
1961,-0.001113,-0.01211,0.005607
1962,-0.001113,0.005964,-0.012473
1963,-0.001113,0.005964,-0.012473
1964,-0.019652,0.005964,-0.012473
1965,-0.001113,0.005964,-0.030552
1966,-0.001113,-0.01211,-0.012473
1967,-0.001113,0.005964,0.041767
1968,-0.001113,0.024037,0.005607
1969,0.017426,-0.01211,0.005607
1970,-0.001113,0.005964,0.023687
1971,-0.001113,-0.01211,0.023687
1972,0.017426,-0.01211,-0.012473
1973,0.017426,0.024037,-0.012473
1974,0.017426,0.005964,0.023687
1975,-0.019652,0.005964,0.005607
1976,0.017426,0.005964,-0.012473
1977,-0.001113,0.005964,0.023687
1978,-0.001113,0.005964,0.023687
1979,-0.001113,0.005964,0.023687
1980,-0.001113,0.024037,-0.012473
1981,-0.001113,0.024037,0.005607
1982,0.017426,0.024037,0.005607
1983,-0.001113,-0.01211,-0.030552
1984,-0.001113,0.005964,-0.012473
1985,-0.019652,0.005964,-0.030552
1986,-0.019652,0.005964,-0.012473
1987,-0.019652,0.005964,0.023687
1988,0.017426,0.024037,0.023687
1989,-0.001113,0.024037,0.005607
1990,-0.001113,0.005964,0.023687
1991,-0.001113,0.005964,0.023687
1992,-0.019652,-0.01211,0.005607
1993,0.017426,-0.01211,-0.012473
1994,0.017426,0.005964,0.023687
1995,-0.001113,0.024037,0.005607
1996,-0.019652,-0.01211,-0.012473
1997,0.017426,0.024037,-0.012473
1998,-0.001113,0.005964,-0.030552
1999,-0.001113,0.005964,-0.012473
2000,0.017426,0.005964,-0.030552
2001,-0.001113,0.024037,0.005607
2002,0.017426,0.024037,0.023687
2003,-0.001113,0.005964,-0.030552
2004,-0.001113,-0.01211,-0.012473
2005,-0.001113,0.005964,0.005607
2006,-0.001113,0.005964,0.023687
2007,-0.001113,-0.01211,-0.012473
2008,0.017426,0.024037,0.005607
2009,-0.001113,0.005964,0.023687
2010,0.017426,0.005964,0.005607
2011,-0.019652,-0.01211,-0.012473
2012,0.017426,0.005964,0.005607
2013,-0.001113,0.005964,0.023687
2014,-0.001113,0.024037,-0.012473
2015,-0.001113,0.024037,-0.030552
2016,-0.019652,0.005964,0.005607
2017,-0.001113,0.005964,-0.030552
2018,-0.001113,0.024037,-0.012473
2019,-0.001113,0.024037,-0.012473
2020,-0.038191,0.024037,0.005607
2021,-0.001113,0.005964,0.005607
2022,-0.019652,0.024037,0.023687
2023,-0.001113,0.005964,0.041767
2024,-0.001113,0.005964,0.023687
2025,-0.001113,0.005964,0.023687
2026,-0.001113,-0.01211,0.023687
2027,-0.001113,0.005964,0.023687
2028,0.017426,0.005964,0.005607
2029,-0.019652,-0.01211,0.023687
2030,-0.001113,0.005964,0.005607
2031,-0.001113,0.005964,-0.012473
2032,-0.001113,0.005964,-0.030552
2033,-0.019652,0.005964,-0.012473
2034,-0.019652,-0.01211,-0.012473
2035,-0.019652,-0.030183,-0.030552
2036,-0.001113,-0.01211,-0.012473
2037,-0.001113,0.005964,0.005607
2038,-0.019652,0.024037,-0.012473
2039,-0.001113,0.024037,-0.012473
2040,-0.019652,0.005964,0.005607
2041,-0.001113,0.005964,0.005607
2042,-0.001113,0.024037,0.005607
2043,-0.001113,0.005964,0.005607
2044,0.017426,0.005964,0.023687
2045,0.017426,0.005964,0.041767
2046,0.017426,0.024037,0.005607
2047,0.017426,0.024037,0.023687
2048,-0.001113,-0.030183,0.023687
2049,0.017426,0.005964,0.005607
2050,-0.001113,-0.01211,-0.030552
2051,0.017426,0.005964,-0.030552
2052,0.017426,0.005964,-0.012473
2053,-0.019652,0.005964,-0.012473
2054,-0.001113,0.005964,0.005607
2055,-0.019652,0.005964,0.005607
2056,-0.001113,0.005964,-0.012473
2057,-0.038191,0.005964,0.005607
2058,0.017426,-0.01211,0.005607
2059,-0.019652,0.005964,-0.012473
2060,-0.001113,-0.01211,0.005607
2061,-0.019652,0.005964,0.041767
2062,0.017426,0.005964,0.059847
2063,0.017426,0.024037,0.041767
2064,-0.001113,0.005964,0.005607
2065,0.017426,0.024037,0.023687
2066,-0.001113,0.005964,0.005607
2067,-0.019652,-0.01211,-0.012473
2068,-0.001113,0.024037,0.023687
2069,-0.001113,0.005964,0.005607
2070,-0.001113,0.005964,-0.048632
2071,0.017426,0.005964,-0.012473
2072,0.017426,0.005964,0.005607
2073,-0.019652,0.024037,-0.030552
2074,0.017426,0.005964,0.005607
2075,-0.019652,0.005964,0.023687
2076,0.017426,0.005964,0.023687
2077,0.017426,0.024037,0.005607
2078,-0.001113,0.024037,0.041767
2079,0.017426,0.005964,0.023687
2080,-0.001113,0.005964,-0.012473
2081,0.017426,0.005964,-0.012473
2082,-0.001113,-0.01211,-0.012473
2083,0.017426,0.005964,-0.012473
2084,0.017426,-0.01211,-0.012473
2085,0.017426,0.005964,0.005607
2086,0.017426,0.024037,0.005607
2087,-0.001113,-0.01211,-0.030552
2088,0.017426,0.024037,0.005607
2089,0.017426,0.005964,0.023687
2090,-0.001113,0.024037,0.023687
2091,-0.019652,0.005964,0.005607
2092,-0.001113,0.005964,0.005607
2093,-0.001113,-0.01211,0.023687
2094,-0.001113,0.005964,0.023687
2095,-0.001113,0.005964,0.041767
2096,-0.001113,0.005964,0.041767
2097,0.017426,0.024037,0.023687
2098,-0.019652,0.005964,-0.012473
2099,-0.019652,0.005964,-0.012473
2100,0.017426,0.005964,-0.030552
2101,-0.001113,0.005964,-0.030552
2102,-0.001113,0.005964,-0.030552
2103,0.017426,0.005964,-0.012473
2104,0.017426,0.024037,-0.012473
2105,-0.019652,0.024037,-0.012473
2106,-0.001113,0.005964,-0.012473
2107,-0.001113,0.005964,0.005607
2108,-0.001113,-0.01211,0.005607
2109,-0.001113,-0.01211,0.005607
2110,-0.001113,0.005964,0.023687
2111,-0.001113,0.005964,0.005607
2112,0.017426,0.024037,-0.012473
2113,-0.001113,0.005964,0.023687
2114,0.017426,0.005964,0.005607
2115,-0.001113,0.024037,-0.012473
2116,-0.001113,0.005964,-0.012473
2117,-0.001113,0.005964,0.005607
2118,0.017426,0.005964,0.005607
2119,-0.001113,0.005964,-0.012473
2120,-0.001113,0.005964,0.005607
2121,-0.001113,0.005964,0.023687
2122,-0.019652,0.005964,-0.030552
2123,-0.019652,0.005964,0.005607
2124,-0.001113,0.024037,0.041767
2125,-0.001113,0.005964,0.041767
2126,0.017426,0.04211,0.023687
2127,0.035965,0.005964,0.023687
2128,-0.001113,0.005964,0.005607
2129,-0.001113,0.024037,0.005607
2130,-0.001113,-0.01211,-0.012473
2131,0.017426,0.005964,0.023687
2132,-0.001113,0.005964,0.005607
2133,-0.001113,0.005964,0.005607
2134,-0.001113,0.005964,-0.030552
2135,-0.001113,0.005964,0.005607
2136,-0.001113,0.005964,0.005607
2137,-0.001113,-0.01211,-0.030552
2138,-0.001113,0.005964,0.005607
2139,0.017426,-0.01211,0.005607
2140,-0.019652,0.005964,-0.012473
2141,-0.001113,0.005964,0.023687
2142,-0.001113,0.005964,0.023687
2143,-0.001113,0.005964,0.023687
2144,-0.001113,0.005964,0.005607
2145,-0.001113,0.005964,0.005607
2146,0.017426,0.005964,0.005607
2147,-0.001113,0.024037,0.005607
2148,-0.001113,0.005964,0.023687
2149,-0.001113,-0.01211,0.005607
2150,-0.001113,0.005964,-0.012473
2151,-0.001113,0.005964,-0.012473
2152,-0.001113,0.005964,0.005607
2153,0.017426,0.005964,-0.012473
2154,-0.001113,0.024037,-0.012473
2155,0.017426,0.005964,-0.012473
2156,0.017426,0.005964,0.005607
2157,-0.001113,0.005964,-0.030552
2158,-0.001113,0.005964,0.005607
2159,-0.001113,0.005964,0.005607
2160,-0.001113,0.005964,0.023687
2161,-0.001113,0.024037,-0.012473
2162,0.017426,0.005964,0.023687
2163,-0.001113,0.024037,0.023687
2164,-0.001113,0.005964,0.005607
2165,-0.001113,0.005964,-0.012473
2166,-0.001113,0.005964,0.005607
2167,-0.001113,-0.01211,0.005607
2168,-0.019652,-0.01211,-0.030552
2169,-0.019652,0.005964,-0.066712
2170,-0.001113,-0.01211,-0.012473
2171,-0.001113,0.005964,-0.030552
2172,-0.001113,0.005964,-0.012473
2173,-0.001113,-0.01211,0.005607
2174,0.017426,0.005964,0.023687
2175,0.017426,0.005964,-0.012473
2176,-0.019652,0.005964,0.041767
2177,-0.001113,0.024037,0.059847
2178,-0.001113,0.024037,0.005607
2179,-0.001113,0.024037,0.005607
2180,-0.001113,0.005964,0.023687
2181,-0.019652,0.005964,0.005607
2182,0.017426,0.005964,-0.012473
2183,0.017426,0.024037,0.041767
2184,-0.001113,0.005964,0.005607
2185,-0.001113,0.024037,0.005607
2186,-0.019652,-0.01211,-0.030552
2187,-0.001113,0.005964,-0.012473
2188,-0.001113,0.005964,-0.030552
2189,-0.001113,0.005964,-0.048632
2190,-0.001113,0.005964,-0.012473
2191,0.017426,0.024037,0.023687
2192,-0.001113,0.005964,0.005607
2193,-0.001113,0.024037,0.005607
2194,-0.001113,0.024037,0.005607
2195,-0.019652,0.005964,0.023687
2196,0.017426,-0.01211,-0.012473
2197,0.017426,0.005964,0.023687
2198,0.017426,0.005964,0.041767
2199,-0.019652,-0.01211,0.005607
2200,-0.019652,-0.01211,0.005607
2201,-0.019652,0.005964,0.005607
2202,0.017426,-0.01211,-0.012473
2203,0.017426,0.005964,-0.030552
2204,-0.019652,0.024037,-0.030552
2205,-0.019652,0.005964,0.005607
2206,0.017426,0.005964,-0.012473
2207,-0.001113,0.005964,-0.012473
2208,-0.001113,0.005964,0.005607
2209,-0.019652,-0.01211,0.023687
2210,-0.001113,0.005964,0.005607
2211,-0.001113,0.005964,0.005607
2212,0.017426,-0.01211,0.041767
2213,0.017426,0.024037,0.005607
2214,0.054504,0.005964,0.023687
2215,-0.001113,0.005964,0.023687
2216,-0.001113,0.024037,0.023687
2217,-0.001113,0.005964,-0.012473
2218,0.017426,0.005964,-0.012473
2219,-0.019652,0.005964,0.023687
2220,-0.001113,0.005964,0.005607
2221,0.091583,0.005964,-0.012473
2222,0.035965,0.005964,0.005607
2223,-0.001113,0.024037,0.005607
2224,0.017426,-0.01211,-0.012473
2225,0.017426,0.024037,0.005607
2226,-0.001113,0.005964,0.005607
2227,0.017426,-0.01211,-0.030552
2228,-0.019652,0.005964,-0.012473
2229,-0.001113,-0.01211,0.005607
2230,-0.001113,0.005964,0.005607
2231,-0.001113,-0.01211,0.005607
2232,-0.001113,0.024037,0.023687
2233,-0.019652,0.005964,0.005607
2234,-0.001113,0.005964,-0.012473
2235,-0.001113,0.005964,0.005607
2236,0.017426,0.024037,0.023687
2237,-0.001113,0.005964,0.005607
2238,-0.001113,0.005964,-0.012473
2239,-0.001113,0.005964,0.005607
2240,-0.001113,0.024037,0.023687
2241,-0.001113,0.005964,-0.030552
2242,-0.001113,0.005964,0.005607
2243,-0.001113,0.005964,0.005607
2244,-0.001113,0.005964,0.041767
2245,-0.001113,-0.01211,0.005607
2246,-0.001113,0.024037,0.023687
2247,-0.019652,0.005964,0.023687
2248,-0.001113,0.005964,0.005607
2249,-0.019652,0.005964,0.005607
2250,-0.001113,-0.01211,0.005607
2251,-0.001113,0.024037,-0.012473
2252,-0.019652,0.005964,-0.012473
2253,-0.019652,0.005964,-0.012473
2254,-0.019652,-0.01211,-0.012473
2255,-0.019652,-0.01211,-0.048632
2256,-0.001113,0.005964,-0.012473
2257,-0.001113,0.005964,0.005607
2258,-0.001113,0.005964,-0.012473
2259,-0.019652,-0.01211,0.005607
2260,0.017426,0.005964,0.023687
2261,-0.001113,0.024037,0.023687
2262,-0.001113,0.005964,0.005607
2263,0.017426,0.024037,0.005607
2264,-0.019652,0.005964,0.041767
2265,-0.001113,0.005964,0.005607
2266,0.017426,0.005964,0.005607
2267,-0.019652,0.005964,0.023687
2268,-0.001113,0.005964,0.005607
2269,0.017426,0.005964,0.005607
2270,-0.001113,0.005964,-0.012473
2271,0.017426,0.005964,-0.012473
2272,-0.001113,-0.01211,-0.012473
2273,0.035965,-0.01211,-0.012473
2274,-0.001113,0.005964,-0.030552
2275,-0.019652,0.005964,0.005607
2276,0.017426,-0.01211,0.005607
2277,-0.019652,0.005964,0.023687
2278,0.017426,0.005964,0.023687
2279,-0.001113,0.005964,0.023687
2280,0.017426,0.024037,0.023687
2281,-0.001113,0.024037,0.023687
2282,-0.019652,0.024037,0.005607
2283,-0.001113,0.005964,-0.012473
2284,-0.001113,0.024037,-0.030552
2285,0.017426,0.005964,-0.012473
2286,-0.019652,0.005964,-0.030552
2287,-0.001113,-0.01211,-0.030552
2288,-0.001113,0.005964,-0.012473
2289,0.017426,0.005964,-0.030552
2290,0.017426,0.005964,-0.030552
2291,-0.001113,0.005964,0.005607
2292,-0.001113,-0.01211,0.041767
2293,-0.001113,0.005964,0.023687
2294,-0.001113,0.024037,0.023687
2295,-0.001113,0.024037,0.059847
2296,0.017426,0.005964,0.023687
2297,-0.001113,0.024037,0.005607
2298,-0.019652,0.005964,0.023687
2299,0.017426,0.005964,0.005607
2300,-0.001113,0.005964,-0.012473
2301,-0.001113,-0.01211,-0.012473
2302,-0.019652,0.005964,0.005607
2303,0.017426,0.005964,-0.012473
2304,-0.001113,-0.01211,-0.012473
2305,-0.001113,-0.01211,-0.012473
2306,-0.001113,0.005964,-0.030552
2307,0.017426,-0.01211,-0.030552
2308,-0.019652,0.005964,-0.012473
2309,-0.001113,0.005964,0.005607
2310,0.017426,-0.01211,0.023687
2311,0.017426,0.024037,0.005607
2312,0.017426,-0.01211,0.005607
2313,0.017426,0.005964,0.005607
2314,-0.001113,-0.01211,-0.012473
2315,-0.001113,0.005964,0.023687
2316,-0.001113,-0.01211,0.005607
2317,-0.001113,0.005964,-0.012473
2318,0.017426,0.024037,-0.012473
2319,-0.019652,0.024037,-0.012473
2320,-0.019652,0.005964,0.023687
2321,0.017426,0.005964,0.005607
2322,0.035965,0.005964,-0.012473
2323,-0.001113,0.005964,0.041767
2324,-0.001113,0.024037,0.005607
2325,-0.019652,0.005964,-0.012473
2326,-0.001113,0.005964,0.023687
2327,-0.019652,0.005964,0.041767
2328,0.017426,0.024037,0.041767
2329,-0.019652,-0.030183,0.005607
2330,-0.001113,0.005964,0.023687
2331,0.017426,-0.01211,0.005607
2332,-0.001113,0.005964,-0.012473
2333,-0.019652,0.005964,0.005607
2334,-0.001113,0.005964,0.005607
2335,0.017426,0.005964,-0.012473
2336,-0.001113,0.024037,-0.012473
2337,-0.001113,0.005964,0.005607
2338,-0.001113,0.005964,-0.012473
2339,-0.001113,0.005964,-0.030552
2340,-0.019652,0.005964,0.023687
2341,-0.001113,0.005964,0.023687
2342,-0.001113,-0.01211,-0.012473
2343,0.017426,0.005964,0.005607
2344,-0.019652,0.005964,0.023687
2345,-0.001113,0.005964,-0.012473
2346,-0.001113,0.005964,0.005607
2347,-0.001113,-0.01211,0.023687
2348,-0.001113,-0.01211,0.023687
2349,-0.019652,0.005964,-0.030552
2350,-0.019652,0.005964,0.041767
2351,-0.001113,0.005964,0.005607
2352,-0.019652,0.005964,-0.012473
2353,-0.001113,-0.01211,-0.030552
2354,-0.001113,0.005964,-0.030552
2355,-0.001113,0.005964,-0.030552
2356,-0.001113,0.005964,-0.048632
2357,-0.001113,0.005964,-0.012473
2358,0.017426,0.005964,0.023687
2359,-0.001113,0.005964,-0.012473
2360,0.017426,0.005964,0.005607
2361,-0.001113,0.005964,0.041767
2362,-0.001113,0.005964,0.023687
2363,0.017426,0.005964,0.005607
2364,-0.001113,0.005964,0.023687
2365,-0.001113,0.024037,0.005607
2366,-0.001113,0.005964,-0.012473
2367,-0.001113,0.024037,-0.030552
2368,-0.001113,0.005964,-0.012473
2369,0.017426,0.024037,0.005607
2370,-0.001113,0.005964,-0.012473
2371,0.017426,0.005964,0.023687
2372,-0.001113,0.024037,0.005607
2373,-0.001113,0.005964,0.005607
2374,-0.001113,0.024037,0.023687
2375,-0.001113,0.024037,0.041767
2376,-0.001113,0.024037,0.041767
2377,-0.001113,0.005964,0.023687
2378,-0.001113,0.024037,0.005607
2379,0.017426,0.005964,0.023687
2380,-0.019652,0.005964,0.005607
2381,-0.019652,0.005964,0.023687
2382,-0.001113,0.005964,0.023687
2383,-0.001113,0.005964,-0.012473
2384,-0.001113,0.005964,-0.012473
2385,-0.001113,0.005964,-0.048632
2386,0.017426,-0.01211,-0.030552
2387,-0.019652,-0.01211,-0.030552
2388,-0.001113,0.005964,-0.012473
2389,0.017426,-0.01211,0.005607
2390,-0.001113,0.024037,-0.012473
2391,0.035965,0.024037,0.023687
2392,-0.001113,0.024037,0.005607
2393,-0.001113,0.024037,0.023687
2394,-0.001113,0.005964,0.005607
2395,-0.001113,0.005964,0.005607
2396,-0.001113,-0.01211,0.005607
2397,-0.001113,-0.01211,0.005607
2398,-0.001113,-0.01211,-0.048632
2399,-0.001113,-0.01211,0.005607
2400,-0.001113,-0.01211,-0.012473
2401,0.017426,0.005964,-0.012473
2402,-0.038191,0.005964,-0.012473
2403,-0.001113,0.005964,-0.012473
2404,-0.019652,0.005964,-0.012473
2405,-0.001113,-0.01211,-0.012473
2406,-0.001113,-0.01211,0.005607
2407,-0.019652,0.005964,0.005607
2408,-0.001113,-0.01211,-0.048632
2409,-0.001113,0.005964,-0.030552
2410,-0.001113,0.024037,0.023687
2411,0.017426,0.005964,0.041767
2412,-0.001113,0.024037,0.023687
2413,-0.001113,0.024037,0.059847
2414,-0.001113,0.024037,0.059847
2415,0.017426,0.024037,0.023687
2416,0.017426,0.024037,0.041767
2417,-0.001113,0.005964,0.005607
2418,-0.001113,0.005964,0.005607
2419,-0.019652,0.005964,-0.030552
2420,-0.001113,0.005964,-0.012473
2421,-0.001113,-0.01211,-0.030552
2422,-0.001113,-0.01211,-0.012473
2423,0.017426,0.005964,-0.012473
2424,-0.019652,0.024037,0.023687
2425,-0.001113,0.024037,-0.066712
2426,-0.019652,0.024037,0.005607
2427,-0.019652,0.005964,0.005607
2428,-0.001113,-0.01211,0.023687
2429,-0.001113,0.005964,-0.030552
2430,0.017426,0.005964,0.005607
2431,0.017426,0.024037,0.041767
2432,-0.001113,0.005964,0.041767
2433,-0.019652,0.005964,0.005607
2434,-0.001113,0.005964,0.005607
2435,-0.001113,0.024037,-0.012473
2436,-0.001113,0.005964,-0.012473
2437,-0.001113,-0.01211,-0.030552
2438,-0.019652,0.005964,-0.048632
2439,-0.019652,0.005964,-0.012473
2440,-0.001113,0.024037,-0.012473
2441,-0.001113,0.024037,-0.012473
2442,0.017426,0.024037,0.041767
2443,-0.001113,-0.01211,-0.012473
2444,0.017426,0.005964,0.005607
2445,-0.001113,0.005964,0.005607
2446,-0.001113,0.005964,0.005607
2447,-0.001113,0.005964,-0.012473
2448,-0.001113,0.005964,0.005607
2449,-0.019652,-0.01211,-0.012473
2450,-0.001113,0.024037,-0.012473
2451,-0.001113,0.005964,-0.030552
2452,-0.019652,0.005964,0.023687
2453,-0.001113,0.024037,0.005607
2454,-0.001113,0.005964,0.005607
2455,-0.001113,-0.01211,0.023687
2456,-0.001113,0.005964,0.005607
2457,-0.001113,0.005964,-0.012473
2458,0.017426,0.005964,-0.012473
2459,0.017426,0.005964,0.023687
2460,0.017426,0.024037,-0.030552
2461,0.017426,0.024037,0.005607
2462,-0.001113,0.024037,0.023687
2463,0.017426,-0.01211,0.023687
2464,-0.019652,0.024037,0.005607
2465,-0.001113,0.024037,0.005607
2466,0.017426,-0.01211,0.023687
2467,-0.001113,-0.01211,0.005607
2468,-0.019652,0.005964,-0.030552
2469,-0.001113,0.005964,-0.012473
2470,-0.001113,0.005964,-0.012473
2471,-0.019652,-0.01211,-0.012473
2472,-0.001113,0.024037,-0.012473
2473,-0.001113,0.005964,-0.012473
2474,-0.019652,-0.01211,-0.030552
2475,-0.001113,0.024037,-0.012473
2476,0.017426,0.005964,0.023687
2477,0.017426,0.005964,0.041767
2478,-0.001113,0.005964,0.005607
2479,0.017426,-0.01211,0.023687
2480,-0.001113,0.024037,0.023687
2481,0.035965,0.024037,0.005607
2482,-0.001113,0.005964,0.023687
2483,0.017426,0.005964,0.023687
2484,-0.001113,-0.01211,0.005607
2485,-0.019652,0.005964,-0.012473
2486,-0.001113,0.005964,-0.030552
2487,-0.019652,0.005964,0.005607
2488,0.017426,0.005964,-0.030552
2489,-0.001113,0.005964,-0.030552
2490,-0.001113,0.005964,-0.012473
2491,-0.001113,0.005964,-0.012473
2492,-0.001113,0.005964,-0.030552
2493,-0.001113,0.005964,0.005607
2494,-0.001113,0.024037,0.023687
2495,-0.001113,-0.01211,0.005607
2496,-0.001113,0.005964,0.005607
2497,-0.001113,0.024037,0.023687
2498,-0.001113,0.024037,0.005607
2499,-0.001113,0.005964,0.005607
2500,-0.001113,0.005964,0.005607
2501,0.017426,0.005964,0.005607
2502,-0.019652,0.005964,-0.012473
2503,-0.001113,-0.01211,-0.012473
2504,0.017426,0.024037,0.023687
2505,-0.001113,0.005964,-0.012473
2506,-0.038191,0.005964,-0.030552
2507,-0.001113,-0.01211,-0.012473
2508,0.017426,0.024037,0.005607
2509,0.017426,0.024037,-0.012473
2510,-0.001113,0.005964,0.005607
2511,0.017426,0.005964,0.005607
2512,-0.001113,-0.01211,0.023687
2513,-0.019652,0.005964,0.023687
2514,-0.019652,-0.01211,0.023687
2515,-0.001113,0.005964,0.023687
2516,-0.019652,-0.01211,0.005607
2517,-0.001113,0.005964,0.005607
2518,-0.001113,0.005964,0.023687
2519,-0.001113,0.005964,-0.012473
2520,0.091583,-0.01211,-0.012473
2521,-0.001113,0.005964,-0.012473
2522,-0.001113,-0.01211,-0.030552
2523,0.017426,0.005964,-0.012473
2524,-0.001113,0.005964,-0.012473
2525,-0.019652,0.005964,0.005607
2526,0.017426,0.005964,-0.030552
2527,-0.001113,0.024037,0.005607
2528,0.017426,0.005964,0.041767
2529,-0.001113,0.005964,0.041767
2530,-0.001113,0.005964,0.005607
2531,-0.019652,0.005964,0.005607
2532,0.017426,-0.01211,0.005607
2533,-0.001113,0.005964,-0.012473
2534,-0.019652,0.005964,-0.012473
2535,-0.001113,0.005964,0.023687
2536,0.017426,-0.01211,0.023687
2537,-0.001113,0.005964,-0.012473
2538,-0.001113,0.005964,-0.012473
2539,-0.001113,0.005964,-0.012473
2540,-0.001113,0.005964,-0.012473
2541,-0.001113,0.005964,-0.012473
2542,0.017426,0.005964,0.023687
2543,-0.019652,0.005964,0.023687
2544,-0.019652,0.005964,0.023687
2545,0.017426,0.005964,0.023687
2546,0.017426,0.024037,0.023687
2547,0.017426,0.024037,0.023687
2548,-0.001113,0.005964,0.005607
2549,-0.001113,0.005964,0.023687
2550,0.017426,0.005964,0.005607
2551,0.017426,0.024037,-0.012473
2552,0.017426,0.024037,-0.030552
2553,-0.001113,0.005964,0.005607
2554,-0.019652,-0.01211,0.005607
2555,-0.001113,0.005964,-0.030552
2556,-0.019652,0.005964,-0.012473
2557,0.035965,0.005964,-0.012473
2558,-0.019652,0.005964,0.005607
2559,-0.019652,-0.030183,-0.012473
2560,0.017426,0.005964,-0.012473
2561,-0.001113,-0.01211,-0.012473
2562,-0.001113,-0.01211,0.005607
2563,-0.001113,-0.01211,0.023687
2564,-0.001113,-0.01211,0.005607
2565,-0.019652,0.024037,-0.012473
2566,-0.001113,-0.01211,0.005607
2567,-0.038191,0.024037,0.005607
2568,0.017426,0.005964,0.005607
2569,0.017426,0.024037,0.041767
2570,-0.001113,0.024037,0.023687
2571,0.017426,-0.01211,-0.012473
2572,-0.001113,0.005964,-0.012473
2573,-0.038191,0.024037,0.041767
2574,-0.001113,0.005964,0.023687
2575,0.017426,0.005964,0.005607
2576,-0.001113,0.005964,0.005607
2577,-0.001113,0.005964,0.023687
2578,-0.001113,0.005964,0.005607
2579,-0.019652,0.005964,0.023687
2580,-0.001113,0.024037,0.023687
2581,-0.001113,0.005964,0.023687
2582,-0.001113,0.005964,-0.030552
2583,-0.001113,0.005964,-0.048632
2584,-0.001113,-0.01211,-0.012473
2585,0.017426,-0.01211,0.005607
2586,-0.038191,0.005964,-0.012473
2587,-0.001113,-0.01211,-0.012473
2588,-0.001113,-0.01211,-0.030552
2589,-0.001113,-0.01211,-0.012473
2590,-0.001113,0.005964,0.005607
2591,-0.001113,-0.01211,0.023687
2592,-0.019652,0.005964,-0.012473
2593,0.017426,0.005964,0.023687
2594,-0.001113,0.005964,0.023687
2595,-0.001113,0.024037,0.041767
2596,-0.001113,0.024037,0.005607
2597,-0.001113,0.005964,0.023687
2598,-0.019652,0.005964,0.023687
2599,-0.001113,0.024037,-0.012473
2600,-0.001113,0.005964,0.005607
2601,0.017426,-0.01211,0.023687
2602,0.017426,0.005964,-0.012473
2603,-0.001113,0.005964,-0.030552
2604,0.017426,0.005964,-0.012473
2605,-0.001113,0.024037,-0.012473
2606,0.017426,0.005964,-0.030552
2607,0.017426,0.005964,0.005607
2608,0.017426,0.005964,0.023687
2609,-0.001113,0.005964,0.023687
2610,0.017426,0.005964,0.023687
2611,-0.019652,-0.01211,0.023687
2612,0.017426,0.005964,0.041767
2613,0.017426,0.024037,0.023687
2614,-0.001113,0.005964,0.005607
2615,-0.001113,0.005964,0.023687
2616,0.017426,0.024037,0.023687
2617,-0.019652,0.024037,-0.030552
2618,-0.001113,0.024037,-0.030552
2619,0.017426,-0.01211,-0.012473
2620,0.017426,0.005964,-0.012473
2621,-0.001113,-0.01211,-0.012473
2622,-0.019652,0.005964,0.005607
2623,-0.001113,0.005964,-0.030552
2624,-0.019652,0.005964,-0.012473
2625,-0.019652,0.005964,0.023687
2626,-0.001113,-0.01211,0.023687
2627,0.017426,0.005964,0.005607
2628,-0.001113,0.005964,0.023687
2629,-0.001113,0.005964,0.023687
2630,-0.001113,0.024037,0.005607
2631,-0.001113,0.005964,-0.030552
2632,-0.019652,0.005964,0.041767
2633,-0.001113,-0.01211,0.005607
2634,-0.019652,0.005964,-0.012473
2635,-0.019652,0.005964,-0.012473
2636,-0.001113,-0.01211,0.005607
2637,-0.001113,-0.01211,-0.012473
2638,-0.001113,0.005964,-0.012473
2639,0.017426,0.005964,-0.012473
2640,0.017426,0.005964,-0.012473
2641,-0.001113,0.024037,0.005607
2642,-0.001113,0.024037,0.023687
2643,-0.001113,0.024037,0.023687
2644,-0.001113,0.005964,0.023687
2645,-0.001113,0.005964,0.005607
2646,0.017426,0.005964,0.023687
2647,-0.001113,0.005964,0.023687
2648,-0.001113,0.024037,-0.012473
2649,-0.001113,-0.01211,-0.012473
2650,-0.019652,0.005964,0.005607
2651,0.017426,-0.01211,-0.012473
2652,0.017426,-0.030183,-0.030552
2653,-0.001113,0.024037,-0.012473
2654,-0.001113,0.024037,0.005607
2655,-0.019652,-0.01211,-0.012473
2656,-0.001113,0.024037,0.005607
2657,-0.001113,0.005964,0.005607
2658,-0.001113,0.005964,-0.030552
2659,-0.001113,0.024037,0.005607
2660,-0.001113,0.024037,0.023687
2661,-0.001113,0.005964,0.023687
2662,-0.019652,0.005964,-0.012473
2663,0.017426,0.005964,0.005607
2664,-0.001113,0.024037,0.005607
2665,-0.001113,-0.01211,0.005607
2666,-0.038191,0.005964,-0.012473
2667,-0.019652,0.005964,-0.012473
2668,0.017426,0.005964,0.005607
2669,0.017426,0.005964,-0.012473
2670,-0.001113,0.005964,-0.012473
2671,-0.001113,0.005964,0.005607
2672,-0.019652,0.005964,0.005607
2673,-0.019652,0.005964,0.005607
2674,-0.001113,0.005964,0.023687
2675,0.017426,0.024037,0.023687
2676,-0.001113,0.005964,0.005607
2677,-0.001113,0.005964,0.005607
2678,-0.001113,0.005964,0.005607
2679,-0.001113,-0.01211,0.005607
2680,-0.001113,0.024037,0.005607
2681,-0.001113,0.005964,0.023687
2682,-0.001113,-0.01211,0.023687
2683,-0.001113,0.005964,-0.012473
2684,-0.001113,0.005964,-0.012473
2685,-0.001113,-0.01211,0.005607
2686,0.017426,0.005964,-0.012473
2687,-0.019652,-0.01211,-0.048632
2688,0.017426,0.005964,-0.012473
2689,-0.001113,0.005964,-0.030552
2690,-0.001113,0.005964,-0.012473
2691,-0.001113,0.005964,0.005607
2692,-0.001113,-0.01211,0.023687
2693,-0.001113,0.024037,0.005607
2694,-0.001113,0.024037,0.005607
2695,-0.001113,0.024037,0.005607
2696,-0.001113,0.005964,0.005607
2697,-0.001113,0.005964,-0.012473
2698,-0.001113,0.005964,0.023687
2699,0.035965,0.005964,0.005607
2700,-0.001113,0.005964,0.005607
2701,-0.001113,0.005964,-0.012473
2702,-0.001113,0.024037,0.041767
2703,-0.001113,0.024037,0.023687
2704,-0.001113,0.005964,0.005607
2705,-0.001113,0.024037,0.005607
2706,-0.001113,0.005964,0.005607
2707,-0.001113,0.024037,-0.012473
2708,-0.019652,0.005964,0.005607
2709,0.017426,-0.01211,0.005607
2710,-0.001113,0.005964,0.005607
2711,-0.001113,-0.01211,-0.012473
2712,-0.038191,-0.01211,0.005607
2713,-0.001113,-0.01211,0.041767
2714,-0.001113,0.005964,0.023687
2715,-0.019652,0.005964,0.005607
2716,-0.001113,0.024037,0.041767
2717,-0.019652,-0.01211,0.023687
2718,-0.001113,0.024037,0.005607
2719,-0.001113,0.005964,-0.012473
2720,-0.001113,0.005964,0.005607
2721,-0.001113,0.005964,-0.012473
2722,0.017426,0.005964,-0.012473
2723,-0.019652,0.005964,0.005607
2724,-0.001113,0.024037,-0.012473
2725,-0.001113,0.005964,-0.012473
2726,-0.001113,0.005964,0.023687
2727,-0.019652,0.005964,0.023687
2728,-0.001113,0.005964,0.023687
2729,-0.001113,0.005964,0.005607
2730,0.017426,0.005964,0.023687
2731,-0.001113,0.005964,-0.012473
2732,0.017426,-0.01211,-0.012473
2733,-0.001113,-0.01211,0.005607
2734,0.017426,0.005964,0.005607
2735,0.017426,0.024037,-0.012473
2736,-0.019652,0.005964,-0.012473
2737,-0.019652,0.024037,-0.030552
2738,-0.001113,0.005964,-0.012473
2739,-0.001113,0.005964,-0.048632
2740,-0.001113,0.005964,-0.012473
2741,-0.001113,-0.01211,-0.012473
2742,-0.001113,0.005964,-0.048632
2743,-0.019652,0.024037,0.005607
2744,-0.001113,0.005964,0.023687
2745,0.017426,0.024037,0.041767
2746,-0.001113,-0.01211,0.023687
2747,0.017426,-0.01211,0.023687
2748,-0.001113,0.005964,0.041767
2749,0.017426,0.005964,0.023687
2750,-0.001113,0.005964,0.005607
2751,0.017426,0.024037,0.023687
2752,0.017426,0.024037,-0.012473
2753,-0.019652,0.024037,0.005607
2754,-0.001113,0.024037,-0.012473
2755,-0.001113,0.024037,0.005607
2756,-0.001113,0.024037,-0.030552
2757,0.017426,0.005964,-0.012473
2758,-0.001113,0.005964,-0.012473
2759,-0.001113,0.04211,0.005607
2760,-0.001113,0.04211,-0.030552
2761,-0.001113,0.005964,0.005607
2762,0.017426,0.005964,0.023687
2763,-0.001113,0.005964,0.005607
2764,-0.019652,0.005964,0.005607
2765,-0.019652,0.005964,0.023687
2766,-0.019652,-0.01211,0.005607
2767,-0.001113,0.024037,0.005607
2768,-0.019652,0.005964,0.041767
2769,-0.038191,0.005964,0.005607
2770,-0.001113,0.005964,-0.012473
2771,-0.001113,0.024037,-0.012473
2772,-0.001113,0.005964,0.005607
2773,-0.001113,0.005964,-0.030552
2774,0.017426,0.005964,-0.012473
2775,-0.019652,0.005964,0.005607
2776,-0.001113,0.024037,0.023687
2777,-0.001113,0.005964,-0.012473
2778,-0.001113,0.005964,0.005607
2779,-0.001113,0.005964,-0.012473
2780,-0.001113,0.005964,0.005607
2781,-0.001113,0.005964,-0.030552
2782,-0.001113,0.005964,0.005607
2783,-0.001113,-0.01211,0.023687
2784,-0.001113,0.005964,0.005607
2785,-0.001113,0.005964,-0.012473
2786,-0.001113,0.005964,0.005607
2787,0.017426,0.005964,0.005607
2788,-0.001113,0.005964,-0.012473
2789,0.017426,0.005964,-0.012473
2790,0.017426,0.005964,0.005607
2791,-0.001113,0.005964,-0.030552
2792,-0.001113,-0.01211,-0.012473
2793,-0.001113,-0.01211,-0.012473
2794,-0.001113,0.005964,0.023687
2795,-0.001113,0.005964,-0.012473
2796,-0.001113,0.005964,0.005607
2797,0.017426,0.005964,0.005607
2798,-0.019652,-0.01211,-0.030552
2799,-0.001113,0.005964,0.005607
2800,-0.038191,0.024037,0.023687
2801,-0.001113,0.005964,0.005607
2802,-0.001113,0.005964,-0.012473
2803,-0.019652,0.005964,0.005607
2804,0.017426,0.024037,0.041767
2805,0.017426,0.024037,0.023687
2806,-0.001113,0.005964,0.005607
2807,-0.019652,0.005964,0.023687
2808,-0.019652,0.024037,0.005607
2809,-0.001113,0.005964,0.005607
2810,0.017426,-0.01211,0.005607
2811,-0.019652,0.024037,0.041767
2812,-0.001113,0.005964,-0.012473
2813,-0.019652,0.024037,-0.012473
2814,-0.001113,-0.01211,0.005607
2815,-0.001113,0.024037,0.023687
2816,0.017426,0.005964,0.005607
2817,0.017426,0.005964,0.023687
2818,-0.001113,0.005964,0.005607
2819,-0.001113,0.005964,-0.012473
2820,0.017426,0.024037,-0.012473
2821,-0.001113,-0.01211,0.005607
2822,-0.001113,0.005964,0.005607
2823,-0.001113,0.005964,-0.012473
2824,-0.001113,0.024037,-0.012473
2825,-0.001113,0.024037,0.023687
2826,-0.001113,0.005964,-0.030552
2827,-0.001113,0.005964,0.005607
2828,-0.001113,0.005964,0.023687
2829,-0.001113,0.005964,0.023687
2830,0.017426,0.005964,0.077927
2831,-0.038191,0.005964,0.023687
2832,-0.001113,0.005964,0.005607
2833,-0.001113,0.005964,-0.012473
2834,-0.001113,0.005964,0.005607
2835,-0.001113,0.005964,0.005607
2836,-0.001113,0.005964,-0.012473
2837,-0.019652,-0.01211,-0.030552
2838,-0.019652,0.005964,-0.012473
2839,-0.001113,0.024037,-0.030552
2840,-0.001113,-0.01211,-0.012473
2841,0.017426,-0.01211,0.005607
2842,0.017426,0.005964,0.041767
2843,-0.001113,0.005964,0.005607
2844,-0.001113,0.005964,0.023687
2845,-0.019652,0.024037,0.023687
2846,-0.001113,0.024037,0.041767
2847,-0.019652,0.024037,0.023687
2848,0.017426,-0.01211,0.005607
2849,-0.001113,0.005964,0.023687
2850,-0.001113,0.005964,0.005607
2851,0.017426,0.005964,-0.012473
2852,-0.019652,0.005964,0.023687
2853,-0.001113,-0.01211,-0.012473
2854,-0.001113,0.005964,-0.012473
2855,-0.019652,0.005964,-0.048632
2856,0.017426,0.005964,-0.012473
2857,0.017426,0.005964,-0.012473
2858,-0.001113,0.005964,-0.012473
2859,-0.001113,0.024037,-0.012473
2860,0.017426,0.005964,0.023687
2861,-0.019652,-0.01211,-0.012473
2862,-0.001113,0.024037,0.005607
2863,-0.001113,0.024037,0.041767
2864,-0.001113,0.005964,0.023687
2865,-0.019652,0.005964,0.023687
2866,-0.019652,0.005964,0.023687
2867,-0.001113,0.005964,0.005607
2868,-0.001113,0.096331,-0.012473
2869,-0.001113,0.005964,-0.030552
2870,-0.001113,0.005964,0.005607
2871,-0.001113,0.005964,0.005607
2872,-0.001113,0.005964,0.005607
2873,-0.001113,0.005964,0.023687
2874,-0.001113,0.024037,0.005607
2875,0.017426,0.005964,-0.012473
2876,-0.001113,0.005964,0.005607
2877,-0.001113,-0.01211,0.023687
2878,-0.001113,0.005964,0.005607
2879,-0.001113,0.005964,0.005607
2880,0.017426,0.005964,-0.012473
2881,-0.001113,-0.01211,-0.030552
2882,-0.001113,0.005964,0.005607
2883,-0.019652,0.005964,0.005607
2884,-0.001113,-0.01211,-0.012473
2885,-0.019652,-0.01211,-0.030552
2886,0.017426,0.005964,-0.030552
2887,-0.001113,0.005964,-0.012473
2888,-0.019652,0.005964,-0.030552
2889,-0.001113,0.024037,-0.012473
2890,0.017426,0.005964,-0.030552
2891,0.017426,0.005964,-0.012473
2892,-0.001113,-0.01211,-0.048632
2893,-0.001113,0.005964,-0.030552
2894,-0.001113,0.024037,0.023687
2895,-0.019652,0.024037,0.059847
2896,-0.001113,0.005964,0.005607
2897,-0.019652,0.024037,0.041767
2898,0.017426,0.005964,0.059847
2899,-0.019652,0.005964,0.023687
2900,-0.001113,-0.01211,0.023687
2901,0.017426,0.005964,0.023687
2902,-0.001113,0.005964,0.023687
2903,0.017426,0.04211,-0.012473
2904,-0.019652,0.024037,0.005607
2905,-0.001113,0.024037,0.023687
2906,0.017426,0.005964,-0.012473
2907,0.017426,0.005964,0.005607
2908,0.035965,-0.01211,-0.012473
2909,-0.001113,0.005964,-0.030552
2910,-0.019652,0.005964,-0.012473
2911,-0.001113,-0.01211,0.005607
2912,-0.001113,0.096331,0.023687
2913,0.017426,0.005964,0.005607
2914,0.017426,0.024037,0.041767
2915,-0.001113,0.005964,0.041767
2916,-0.001113,0.024037,0.023687
2917,-0.001113,0.005964,0.005607
2918,-0.001113,0.024037,0.023687
2919,-0.019652,-0.01211,0.005607
2920,-0.001113,0.005964,0.005607
2921,0.017426,0.005964,-0.030552
2922,-0.001113,0.024037,-0.012473
2923,-0.001113,-0.01211,-0.030552
2924,-0.001113,0.005964,-0.030552
2925,-0.001113,0.005964,-0.012473
2926,-0.001113,0.024037,0.005607
2927,0.017426,0.005964,0.005607
2928,-0.001113,0.005964,0.005607
2929,0.017426,0.005964,0.023687
2930,-0.001113,0.005964,0.005607
2931,0.017426,0.024037,0.005607
2932,-0.019652,0.005964,0.041767
2933,-0.019652,-0.01211,0.023687
2934,-0.001113,0.024037,0.005607
2935,-0.001113,0.005964,-0.012473
2936,-0.001113,-0.01211,0.005607
2937,-0.001113,0.005964,-0.012473
2938,-0.001113,-0.01211,-0.030552
2939,0.035965,-0.01211,-0.012473
2940,-0.001113,-0.01211,-0.012473
2941,-0.001113,0.005964,-0.048632
2942,-0.001113,0.024037,0.005607
2943,-0.001113,0.005964,0.005607
2944,-0.001113,0.005964,-0.012473
2945,-0.001113,0.005964,0.005607
2946,0.017426,0.024037,0.023687
2947,-0.001113,-0.01211,0.041767
2948,-0.001113,0.005964,0.005607
2949,-0.019652,-0.01211,0.023687
2950,-0.001113,0.005964,0.023687
2951,-0.001113,-0.01211,0.005607
2952,-0.001113,0.005964,-0.012473
2953,-0.001113,0.024037,-0.012473
2954,-0.001113,0.005964,0.005607
2955,-0.001113,0.005964,-0.012473
2956,-0.001113,0.005964,-0.012473
2957,-0.001113,0.005964,0.005607
2958,-0.001113,0.005964,0.005607
2959,-0.001113,0.005964,0.005607
2960,0.017426,0.005964,0.005607
2961,-0.001113,0.005964,0.041767
2962,-0.001113,0.024037,0.005607
2963,-0.001113,0.005964,0.005607
2964,-0.019652,0.005964,0.005607
2965,-0.019652,-0.01211,0.005607
2966,-0.001113,0.005964,-0.012473
2967,-0.001113,0.005964,0.023687
2968,-0.019652,0.005964,-0.012473
2969,-0.001113,0.005964,-0.030552
2970,-0.001113,-0.01211,-0.030552
2971,-0.001113,-0.01211,-0.012473
2972,-0.001113,0.005964,-0.012473
2973,-0.001113,0.005964,0.005607
2974,-0.019652,0.005964,0.005607
2975,-0.001113,0.005964,-0.030552
2976,-0.019652,0.005964,-0.012473
2977,0.017426,0.005964,0.005607
2978,0.017426,0.005964,0.041767
2979,-0.001113,0.024037,0.041767
2980,-0.001113,0.024037,0.023687
2981,-0.001113,0.005964,0.023687
2982,-0.001113,0.024037,0.023687
2983,-0.001113,0.005964,0.023687
2984,0.017426,0.024037,0.041767
2985,-0.019652,0.024037,0.005607
2986,-0.001113,0.005964,0.005607
2987,-0.001113,-0.01211,0.005607
2988,-0.001113,0.005964,0.005607
2989,-0.001113,0.024037,-0.012473
2990,-0.001113,0.005964,-0.012473
2991,-0.001113,0.005964,-0.012473
2992,0.017426,0.005964,-0.012473
2993,-0.001113,0.024037,-0.012473
2994,-0.001113,0.005964,0.005607
2995,-0.019652,-0.01211,0.023687
2996,-0.019652,-0.01211,0.023687
2997,-0.001113,0.005964,0.005607
2998,0.017426,0.005964,0.005607
2999,-0.001113,-0.01211,0.023687
3000,-0.001113,0.005964,0.005607
3001,-0.001113,0.005964,-0.012473
3002,-0.001113,0.005964,0.005607
3003,-0.019652,0.024037,-0.012473
3004,-0.001113,0.024037,-0.030552
3005,-0.001113,0.005964,-0.012473
3006,-0.001113,-0.01211,-0.030552
3007,0.017426,0.024037,-0.030552
3008,-0.001113,0.024037,-0.012473
3009,-0.001113,0.005964,-0.012473
3010,-0.019652,0.024037,-0.012473
3011,-0.001113,0.024037,0.005607
3012,-0.019652,-0.01211,0.023687
3013,-0.019652,0.024037,0.041767
3014,0.017426,0.005964,0.023687
3015,-0.001113,0.024037,0.023687
3016,-0.019652,0.024037,0.023687
3017,0.017426,0.005964,0.023687
3018,0.017426,0.024037,0.005607
3019,0.017426,0.005964,0.023687
3020,-0.019652,0.024037,0.005607
3021,-0.019652,-0.01211,0.005607
3022,-0.001113,0.005964,-0.012473
3023,-0.001113,0.005964,0.005607
3024,-0.038191,0.005964,-0.030552
3025,-0.019652,0.005964,0.005607
3026,-0.019652,0.024037,0.005607
3027,-0.019652,-0.01211,0.023687
3028,-0.001113,-0.01211,0.077927
3029,-0.001113,0.024037,0.005607
3030,-0.001113,0.024037,0.005607
3031,-0.001113,0.005964,-0.012473
3032,-0.001113,-0.01211,0.005607
3033,-0.001113,0.005964,0.005607
3034,-0.001113,-0.01211,-0.012473
3035,-0.001113,0.005964,-0.012473
3036,-0.019652,-0.01211,-0.030552
3037,-0.001113,0.005964,0.023687
3038,0.017426,0.005964,-0.012473
3039,-0.001113,0.005964,-0.012473
3040,0.017426,-0.01211,0.005607
3041,-0.001113,0.024037,-0.012473
3042,-0.001113,-0.01211,0.005607
3043,-0.001113,0.005964,0.023687
3044,-0.001113,0.005964,0.041767
3045,0.035965,0.005964,0.023687
3046,-0.001113,0.005964,0.005607
3047,-0.001113,0.005964,0.023687
3048,-0.019652,-0.01211,0.005607
3049,-0.019652,0.005964,-0.012473
3050,-0.019652,0.005964,0.005607
3051,0.017426,0.024037,-0.012473
3052,-0.001113,0.024037,-0.012473
3053,0.017426,0.024037,-0.030552
3054,-0.001113,-0.01211,-0.012473
3055,-0.019652,-0.01211,-0.012473
3056,-0.001113,0.005964,-0.012473
3057,0.017426,-0.01211,0.005607
3058,0.017426,-0.01211,0.005607
3059,0.035965,0.024037,0.005607
3060,-0.001113,0.005964,0.005607
3061,-0.019652,-0.01211,0.041767
3062,-0.019652,0.005964,0.023687
3063,-0.001113,0.005964,0.005607
3064,-0.001113,0.005964,0.023687
3065,-0.001113,0.024037,0.005607
3066,0.017426,0.005964,0.023687
3067,-0.019652,0.005964,-0.012473
3068,0.017426,0.005964,-0.012473
3069,-0.019652,0.005964,-0.012473
3070,-0.001113,-0.01211,-0.030552
3071,-0.001113,0.024037,-0.012473
3072,-0.001113,0.005964,0.005607
3073,-0.001113,0.005964,-0.030552
3074,-0.001113,0.024037,0.005607
3075,-0.001113,-0.01211,0.023687
3076,-0.001113,0.024037,-0.012473
3077,-0.001113,0.005964,0.005607
3078,-0.001113,-0.01211,0.023687
3079,-0.001113,0.005964,0.041767
3080,-0.038191,0.005964,0.005607
3081,-0.001113,-0.01211,0.023687
3082,-0.001113,0.005964,-0.012473
3083,0.017426,0.005964,-0.012473
3084,-0.019652,0.024037,-0.048632
3085,-0.001113,0.005964,-0.012473
3086,-0.019652,-0.01211,-0.012473
3087,0.017426,0.024037,-0.012473
3088,-0.001113,0.024037,0.005607
3089,-0.001113,0.005964,0.023687
3090,-0.001113,0.024037,0.005607
3091,0.017426,0.005964,0.005607
3092,-0.038191,0.024037,0.041767
3093,0.017426,0.005964,0.041767
3094,-0.001113,0.005964,0.023687
3095,0.017426,-0.01211,0.041767
3096,-0.001113,0.005964,0.005607
3097,0.017426,0.024037,0.005607
3098,0.017426,0.005964,0.005607
3099,-0.019652,0.005964,0.005607
3100,0.017426,-0.01211,0.005607
3101,-0.019652,0.005964,-0.030552
3102,0.017426,0.005964,-0.012473
3103,-0.001113,0.005964,0.005607
3104,-0.001113,0.024037,-0.012473
3105,-0.019652,-0.01211,0.005607
3106,0.017426,0.005964,0.023687
3107,0.017426,0.005964,-0.012473
3108,-0.001113,0.005964,0.023687
3109,-0.001113,0.005964,0.023687
3110,0.017426,0.005964,0.041767
3111,-0.001113,0.024037,0.005607
3112,0.017426,0.024037,0.005607
3113,-0.001113,0.005964,0.023687
3114,-0.001113,0.005964,0.005607
3115,-0.001113,0.005964,-0.012473
3116,-0.001113,0.005964,0.005607
3117,-0.019652,0.005964,0.005607
3118,-0.019652,0.024037,-0.012473
3119,-0.019652,0.005964,-0.030552
3120,-0.001113,0.024037,0.005607
3121,-0.001113,0.024037,-0.012473
3122,0.017426,0.005964,0.005607
3123,-0.001113,0.024037,0.005607
3124,-0.019652,0.005964,0.041767
3125,-0.001113,0.005964,0.023687
3126,0.017426,0.005964,0.005607
3127,-0.001113,0.005964,0.041767
3128,-0.019652,-0.01211,0.023687
3129,-0.001113,0.024037,0.023687
3130,-0.001113,0.024037,0.059847
3131,-0.001113,0.024037,0.005607
3132,-0.001113,-0.01211,0.005607
3133,0.017426,0.005964,-0.030552
3134,-0.001113,0.005964,-0.012473
3135,0.017426,-0.01211,-0.012473
3136,-0.001113,0.005964,-0.030552
3137,-0.001113,0.005964,0.005607
3138,0.017426,0.005964,-0.030552
3139,-0.019652,0.005964,-0.012473
3140,-0.019652,0.04211,-0.012473
3141,-0.019652,0.005964,0.023687
3142,-0.001113,0.005964,0.005607
3143,-0.038191,0.005964,0.023687
3144,0.017426,-0.01211,0.005607
3145,0.017426,0.005964,0.005607
3146,-0.001113,-0.01211,0.005607
3147,-0.001113,0.005964,0.023687
3148,-0.001113,0.005964,-0.012473
3149,-0.019652,0.005964,-0.012473
3150,0.017426,-0.01211,-0.030552
3151,-0.001113,0.005964,-0.012473
3152,0.017426,0.005964,-0.030552
3153,-0.019652,0.005964,-0.048632
3154,0.017426,0.005964,-0.030552
3155,0.017426,0.005964,0.005607
3156,0.017426,0.005964,-0.012473
3157,-0.001113,0.005964,-0.012473
3158,-0.001113,0.005964,0.005607
3159,-0.001113,0.005964,0.023687
3160,-0.001113,0.024037,0.005607
3161,-0.019652,0.005964,0.059847
3162,-0.001113,0.024037,0.059847
3163,-0.001113,0.024037,0.023687
3164,-0.001113,0.024037,0.041767
3165,0.017426,0.005964,0.041767
3166,-0.019652,0.005964,0.005607
3167,-0.001113,0.005964,0.005607
3168,-0.001113,0.024037,-0.012473
3169,0.017426,0.005964,-0.012473
3170,-0.001113,0.024037,-0.030552
3171,-0.001113,0.005964,0.005607
3172,-0.001113,-0.01211,0.023687
3173,0.017426,0.005964,-0.030552
3174,-0.001113,0.005964,0.005607
3175,-0.001113,0.005964,0.023687
3176,-0.001113,0.005964,0.041767
3177,0.017426,0.005964,0.005607
3178,-0.001113,0.024037,0.023687
3179,0.017426,0.005964,0.023687
3180,0.017426,0.005964,0.005607
3181,-0.001113,-0.01211,-0.012473
3182,-0.001113,0.024037,0.005607
3183,-0.019652,0.005964,-0.012473
3184,-0.001113,0.005964,-0.030552
3185,-0.019652,0.005964,-0.030552
3186,-0.001113,0.005964,-0.030552
3187,-0.019652,0.024037,-0.012473
3188,-0.001113,0.005964,0.005607
3189,-0.001113,0.005964,0.023687
3190,-0.001113,0.024037,0.041767
3191,-0.019652,-0.030183,0.023687
3192,-0.001113,0.005964,0.005607
3193,-0.001113,0.005964,0.023687
3194,-0.001113,0.005964,0.005607
3195,0.017426,0.005964,0.005607
3196,-0.001113,0.024037,0.023687
3197,-0.001113,0.005964,-0.012473
3198,-0.001113,-0.01211,-0.012473
3199,-0.001113,-0.030183,-0.030552
3200,-0.001113,0.005964,0.023687
3201,-0.019652,0.005964,-0.012473
3202,-0.001113,0.005964,-0.048632
3203,0.017426,0.005964,0.005607
3204,-0.001113,0.024037,-0.012473
3205,0.017426,0.005964,-0.012473
3206,-0.019652,0.005964,0.023687
3207,-0.001113,-0.01211,0.023687
3208,0.017426,0.005964,-0.012473
3209,-0.001113,0.005964,0.005607
3210,-0.001113,-0.030183,0.041767
3211,0.017426,0.005964,0.005607
3212,-0.001113,0.005964,0.005607
3213,-0.019652,-0.01211,0.005607
3214,-0.001113,0.005964,0.005607
3215,-0.001113,0.005964,-0.030552
3216,-0.001113,-0.01211,-0.030552
3217,0.017426,-0.01211,0.005607
3218,-0.001113,0.005964,-0.030552
3219,-0.001113,0.024037,-0.030552
3220,-0.001113,0.005964,0.005607
3221,0.017426,0.005964,0.005607
3222,-0.001113,0.005964,0.005607
3223,0.017426,-0.01211,0.023687
3224,-0.001113,0.005964,0.023687
3225,-0.001113,0.005964,0.023687
3226,-0.019652,-0.01211,0.005607
3227,-0.001113,0.005964,0.005607
3228,-0.001113,0.005964,0.023687
3229,-0.001113,0.024037,0.005607
3230,-0.001113,0.04211,0.041767
3231,-0.019652,0.024037,0.041767
3232,-0.001113,0.024037,0.023687
3233,-0.001113,-0.01211,-0.012473
3234,-0.001113,0.04211,-0.012473
3235,-0.001113,0.005964,0.005607
3236,-0.001113,0.024037,-0.012473
3237,-0.001113,0.024037,0.005607
3238,0.017426,0.024037,0.023687
3239,-0.001113,0.005964,-0.012473
3240,0.017426,-0.01211,0.005607
3241,-0.001113,0.005964,0.023687
3242,-0.001113,0.024037,0.023687
3243,-0.019652,-0.01211,-0.012473
3244,0.017426,0.005964,0.005607
3245,-0.001113,0.005964,-0.012473
3246,-0.001113,0.005964,-0.012473
3247,-0.001113,0.005964,-0.012473
3248,0.017426,0.024037,0.005607
3249,-0.019652,-0.01211,-0.012473
3250,-0.001113,0.005964,-0.030552
3251,-0.001113,0.005964,0.005607
3252,-0.001113,0.005964,0.005607
3253,-0.001113,0.04211,0.005607
3254,-0.001113,0.005964,0.023687
3255,-0.001113,0.005964,0.041767
3256,-0.001113,0.024037,0.023687
3257,-0.001113,0.005964,0.005607
3258,-0.001113,0.005964,0.005607
3259,0.017426,0.005964,0.023687
3260,-0.019652,0.005964,0.005607
3261,-0.001113,0.005964,0.005607
3262,-0.001113,0.005964,-0.012473
3263,-0.001113,0.005964,-0.030552
3264,-0.001113,0.005964,-0.030552
3265,-0.001113,-0.01211,-0.012473
3266,-0.001113,0.005964,-0.012473
3267,0.017426,0.005964,-0.012473
3268,-0.019652,0.005964,-0.012473
3269,-0.001113,0.005964,-0.012473
3270,0.017426,-0.01211,-0.012473
3271,-0.001113,0.005964,0.023687
3272,-0.001113,0.005964,0.023687
3273,-0.001113,0.005964,0.041767
3274,-0.001113,0.005964,0.005607
3275,-0.001113,0.005964,0.041767
3276,-0.001113,0.024037,0.041767
3277,-0.001113,0.024037,0.023687
3278,-0.001113,0.024037,0.023687
3279,0.017426,0.024037,0.059847
3280,-0.001113,0.024037,0.041767
3281,-0.001113,-0.01211,0.005607
3282,0.017426,0.005964,-0.048632
3283,0.017426,-0.01211,-0.012473
3284,0.017426,0.024037,-0.030552
3285,-0.001113,0.005964,-0.012473
3286,-0.001113,0.005964,0.005607
3287,-0.001113,-0.01211,0.023687
3288,-0.001113,0.005964,0.005607
3289,-0.001113,0.005964,0.023687
3290,-0.019652,0.024037,0.023687
3291,0.017426,0.005964,0.023687
3292,-0.019652,0.005964,0.023687
3293,-0.001113,0.005964,0.023687
3294,-0.001113,0.005964,0.023687
3295,-0.001113,0.005964,-0.030552
3296,-0.001113,0.005964,0.005607
3297,-0.001113,0.005964,-0.012473
3298,-0.019652,-0.01211,-0.012473
3299,-0.001113,0.005964,-0.030552
3300,-0.001113,0.005964,-0.012473
3301,-0.001113,-0.01211,-0.012473
3302,-0.019652,-0.01211,-0.030552
3303,-0.019652,0.024037,-0.012473
3304,-0.001113,0.024037,0.005607
3305,0.017426,0.024037,0.005607
3306,-0.019652,0.005964,0.005607
3307,-0.019652,0.005964,0.023687
3308,-0.001113,0.005964,0.023687
3309,0.017426,0.005964,0.005607
3310,-0.001113,0.005964,0.023687
3311,-0.001113,0.005964,0.005607
3312,-0.001113,-0.01211,0.005607
3313,0.017426,0.005964,-0.030552
3314,-0.001113,0.005964,0.005607
3315,0.035965,-0.01211,-0.012473
3316,-0.001113,0.024037,-0.048632
3317,0.017426,-0.01211,-0.012473
3318,-0.001113,0.005964,-0.012473
3319,-0.001113,-0.01211,-0.030552
3320,-0.001113,-0.01211,-0.012473
3321,-0.019652,0.005964,0.005607
3322,-0.001113,0.005964,0.023687
3323,0.017426,0.005964,-0.012473
3324,-0.019652,0.005964,0.005607
3325,-0.001113,0.005964,0.023687
3326,-0.001113,0.005964,0.023687
3327,0.035965,0.005964,0.041767
3328,-0.001113,0.005964,0.041767
3329,-0.001113,0.005964,0.005607
3330,-0.001113,0.024037,-0.012473
3331,0.017426,0.005964,-0.012473
3332,-0.001113,0.005964,-0.012473
3333,0.017426,0.024037,-0.012473
3334,-0.038191,-0.01211,0.023687
3335,-0.019652,0.005964,0.005607
3336,-0.001113,-0.01211,-0.012473
3337,0.017426,0.005964,0.005607
3338,-0.001113,0.005964,0.023687
3339,-0.001113,0.005964,0.023687
3340,-0.019652,0.005964,0.005607
3341,-0.001113,0.005964,0.005607
3342,-0.019652,0.005964,0.005607
3343,-0.001113,0.024037,0.005607
3344,0.017426,0.024037,0.005607
3345,-0.001113,0.024037,-0.012473
3346,-0.001113,0.005964,0.005607
3347,0.017426,-0.01211,-0.012473
3348,0.017426,0.005964,-0.030552
3349,0.017426,0.005964,-0.012473
3350,-0.019652,0.024037,-0.012473
3351,-0.001113,0.005964,0.005607
3352,-0.001113,0.005964,0.023687
3353,-0.001113,-0.01211,0.041767
3354,0.017426,0.005964,0.005607
3355,-0.019652,0.005964,0.041767
3356,-0.019652,0.005964,0.023687
3357,-0.001113,0.005964,0.023687
3358,-0.001113,0.024037,0.005607
3359,-0.001113,0.005964,0.041767
3360,-0.001113,0.005964,0.023687
3361,0.035965,0.024037,-0.012473
3362,-0.001113,0.005964,0.023687
3363,-0.019652,0.04211,0.005607
3364,-0.001113,0.005964,-0.012473
3365,-0.001113,-0.01211,-0.030552
3366,-0.001113,-0.01211,-0.012473
3367,-0.001113,0.024037,-0.030552
3368,-0.001113,0.024037,-0.012473
3369,-0.001113,-0.01211,0.023687
3370,-0.001113,0.005964,0.005607
3371,-0.019652,0.005964,-0.012473
3372,-0.001113,0.005964,0.023687
3373,0.017426,0.005964,0.023687
3374,-0.001113,0.024037,0.005607
3375,-0.001113,0.005964,-0.030552
3376,-0.019652,0.005964,0.023687
3377,-0.001113,0.024037,-0.012473
3378,-0.001113,0.005964,-0.030552
3379,-0.019652,-0.01211,-0.030552
3380,-0.001113,0.005964,-0.012473
3381,-0.001113,0.005964,-0.030552
3382,-0.019652,0.005964,-0.030552
3383,0.017426,0.005964,0.005607
3384,-0.001113,0.005964,0.005607
3385,-0.001113,0.005964,0.023687
3386,-0.001113,-0.01211,0.041767
3387,0.017426,0.005964,0.041767
3388,0.017426,0.024037,0.023687
3389,-0.001113,0.005964,0.023687
3390,-0.001113,0.005964,0.041767
3391,-0.001113,0.024037,0.023687
3392,-0.001113,0.024037,0.005607
3393,0.017426,0.024037,0.023687
3394,0.017426,0.024037,0.005607
3395,-0.019652,0.005964,0.005607
3396,-0.001113,-0.01211,-0.012473
3397,-0.001113,0.005964,-0.012473
3398,-0.001113,-0.01211,-0.030552
3399,-0.019652,-0.01211,-0.030552
3400,-0.001113,0.005964,-0.012473
3401,-0.019652,-0.01211,0.005607
3402,-0.001113,0.005964,-0.012473
3403,0.017426,0.005964,-0.012473
3404,0.017426,0.005964,0.023687
3405,0.017426,0.005964,0.005607
3406,0.017426,0.024037,0.023687
3407,-0.001113,0.005964,0.041767
3408,-0.001113,0.024037,0.005607
3409,-0.001113,-0.01211,0.005607
3410,-0.001113,0.024037,-0.066712
3411,-0.019652,0.005964,0.005607
3412,-0.001113,0.024037,-0.012473
3413,-0.001113,0.005964,-0.012473
3414,-0.001113,0.005964,0.005607
3415,-0.001113,0.005964,-0.012473
3416,0.017426,0.005964,-0.012473
3417,-0.001113,-0.01211,-0.012473
3418,-0.019652,-0.01211,0.005607
3419,-0.001113,-0.030183,0.005607
3420,-0.001113,0.005964,0.005607
3421,-0.001113,0.005964,0.023687
3422,-0.001113,0.005964,0.023687
3423,-0.019652,0.024037,0.005607
3424,0.017426,0.024037,0.041767
3425,0.017426,0.024037,0.005607
3426,-0.019652,0.005964,-0.012473
3427,-0.001113,0.005964,-0.012473
3428,0.017426,0.024037,0.005607
3429,-0.001113,0.024037,-0.012473
3430,-0.001113,0.005964,-0.030552
3431,-0.001113,0.005964,0.005607
3432,-0.001113,0.005964,0.023687
3433,-0.019652,0.024037,-0.012473
3434,0.017426,0.024037,0.005607
3435,-0.001113,-0.01211,0.005607
3436,-0.001113,0.005964,0.023687
3437,-0.019652,0.005964,0.023687
3438,-0.019652,0.005964,0.023687
3439,-0.001113,0.005964,0.023687
3440,-0.001113,0.024037,0.005607
3441,-0.019652,-0.01211,-0.012473
3442,-0.019652,0.005964,0.023687
3443,0.017426,-0.01211,0.005607
3444,0.017426,-0.01211,-0.030552
3445,-0.001113,0.005964,0.005607
3446,-0.019652,0.005964,-0.030552
3447,-0.019652,0.005964,-0.030552
3448,-0.001113,0.005964,-0.012473
3449,-0.001113,0.005964,0.005607
3450,-0.001113,-0.01211,-0.012473
3451,-0.001113,0.024037,-0.012473
3452,0.017426,0.005964,0.023687
3453,-0.001113,0.005964,0.023687
3454,-0.001113,0.005964,0.005607
3455,-0.001113,0.005964,0.041767
3456,-0.019652,0.005964,0.023687
3457,-0.001113,0.005964,-0.012473
3458,-0.001113,0.005964,0.005607
3459,-0.001113,0.005964,0.005607
3460,-0.001113,0.005964,0.005607
3461,-0.001113,0.005964,-0.012473
3462,-0.001113,0.005964,0.005607
3463,-0.001113,0.005964,0.005607
3464,-0.001113,0.024037,-0.030552
3465,-0.001113,0.005964,-0.030552
3466,-0.001113,0.005964,0.005607
3467,0.017426,-0.01211,0.023687
3468,-0.001113,0.005964,0.005607
3469,-0.001113,-0.01211,0.023687
3470,0.017426,0.005964,0.023687
3471,-0.001113,0.005964,-0.012473
3472,-0.019652,0.005964,0.005607
3473,-0.019652,-0.01211,0.005607
3474,0.017426,0.005964,0.005607
3475,-0.019652,0.005964,-0.012473
3476,-0.038191,0.005964,0.023687
3477,-0.001113,0.005964,0.005607
3478,-0.001113,0.005964,0.005607
3479,0.017426,0.005964,0.023687
3480,0.035965,-0.01211,0.005607
3481,0.017426,-0.01211,-0.012473
3482,0.035965,0.005964,0.005607
3483,0.017426,-0.01211,0.023687
3484,0.017426,-0.01211,0.041767
3485,-0.019652,0.024037,0.005607
3486,-0.019652,0.024037,0.005607
3487,-0.001113,0.005964,0.005607
3488,-0.001113,0.005964,-0.012473
3489,-0.001113,0.024037,-0.030552
3490,-0.001113,0.005964,0.005607
3491,0.017426,0.024037,0.005607
3492,-0.001113,0.024037,-0.030552
3493,0.017426,0.005964,-0.030552
3494,0.017426,0.024037,-0.012473
3495,-0.019652,0.005964,-0.012473
3496,0.017426,0.024037,0.005607
3497,-0.001113,0.005964,0.023687
3498,-0.019652,0.005964,0.041767
3499,-0.001113,0.005964,-0.012473
3500,-0.001113,0.005964,0.023687
3501,-0.001113,-0.01211,0.023687
3502,0.017426,0.005964,-0.012473
3503,-0.001113,0.005964,0.005607
3504,-0.001113,0.024037,-0.012473
3505,0.017426,0.005964,-0.012473
3506,-0.001113,-0.01211,-0.012473
3507,0.017426,0.005964,-0.030552
3508,-0.001113,0.005964,-0.012473
3509,0.017426,0.005964,-0.030552
3510,0.017426,0.005964,-0.012473
3511,0.017426,-0.01211,0.005607
3512,-0.001113,0.005964,-0.012473
3513,-0.001113,0.005964,0.005607
3514,-0.001113,0.005964,0.023687
3515,-0.001113,0.005964,0.041767
3516,-0.019652,0.024037,0.005607
3517,-0.001113,0.005964,0.005607
3518,-0.001113,0.024037,0.041767
3519,-0.001113,0.005964,0.023687
3520,-0.019652,0.005964,0.023687
3521,-0.019652,0.005964,0.041767
3522,-0.001113,0.024037,0.023687
3523,-0.001113,0.005964,0.023687
3524,0.017426,0.005964,0.023687
3525,0.017426,0.005964,0.005607
3526,-0.019652,0.005964,0.023687
3527,-0.001113,0.005964,-0.012473
3528,0.017426,0.005964,-0.012473
3529,0.035965,0.005964,0.005607
3530,0.035965,0.005964,-0.012473
3531,-0.001113,0.005964,-0.012473
3532,0.017426,-0.01211,-0.012473
3533,-0.019652,0.005964,0.023687
3534,0.017426,0.024037,0.005607
3535,-0.019652,0.005964,0.005607
3536,0.035965,0.005964,0.005607
3537,-0.001113,0.005964,-0.012473
3538,-0.001113,0.005964,0.023687
3539,-0.001113,0.005964,0.005607
3540,-0.001113,0.024037,-0.012473
3541,0.017426,-0.01211,-0.030552
3542,-0.001113,0.005964,-0.048632
3543,-0.019652,0.005964,-0.030552
3544,-0.001113,-0.01211,-0.030552
3545,-0.001113,-0.01211,-0.012473
3546,-0.001113,0.005964,0.023687
3547,0.017426,0.005964,-0.012473
3548,-0.019652,0.005964,0.023687
3549,-0.001113,0.005964,0.023687
3550,-0.001113,0.005964,0.041767
3551,-0.001113,0.005964,0.023687
3552,-0.019652,0.005964,0.005607
3553,0.017426,0.024037,0.023687
3554,-0.001113,0.005964,0.023687
3555,-0.001113,0.005964,0.005607
3556,-0.019652,0.024037,0.041767
3557,-0.001113,0.005964,-0.012473
3558,-0.019652,0.005964,0.005607
3559,-0.001113,0.005964,-0.012473
3560,0.017426,0.005964,0.005607
3561,-0.001113,0.024037,-0.012473
3562,-0.001113,0.005964,-0.030552
3563,0.017426,0.005964,-0.012473
3564,0.017426,0.005964,0.005607
3565,0.017426,-0.01211,0.005607
3566,-0.001113,0.005964,0.005607
3567,-0.001113,0.024037,0.023687
3568,-0.001113,0.005964,0.023687
3569,-0.001113,-0.01211,0.005607
3570,-0.001113,0.005964,0.023687
3571,-0.001113,0.005964,0.023687
3572,-0.001113,-0.01211,-0.012473
3573,-0.001113,0.005964,-0.012473
3574,-0.001113,-0.01211,0.005607
3575,-0.001113,0.024037,-0.012473
3576,0.017426,0.005964,-0.030552
3577,-0.001113,0.005964,0.005607
3578,-0.001113,0.005964,-0.012473
3579,-0.001113,0.024037,-0.030552
3580,-0.001113,0.005964,0.005607
3581,-0.001113,0.024037,0.005607
3582,-0.001113,0.005964,-0.012473
3583,-0.001113,0.024037,0.005607
3584,-0.019652,0.005964,0.005607
3585,-0.001113,0.024037,0.005607
3586,0.017426,0.024037,0.023687
3587,-0.019652,0.005964,0.005607
3588,-0.001113,0.005964,0.005607
3589,-0.001113,0.005964,-0.012473
3590,-0.001113,0.005964,0.005607
3591,-0.001113,0.024037,0.005607
3592,-0.001113,0.005964,-0.012473
3593,-0.001113,0.024037,-0.012473
3594,-0.001113,0.005964,0.005607
3595,-0.001113,0.005964,0.005607
3596,-0.001113,0.005964,-0.012473
3597,0.017426,0.024037,0.005607
3598,-0.001113,0.005964,0.023687
3599,-0.001113,0.024037,0.023687
3600,-0.001113,0.024037,0.005607
3601,-0.001113,0.005964,0.023687
3602,-0.019652,-0.01211,0.023687
3603,0.017426,-0.01211,-0.012473
3604,-0.019652,-0.01211,0.023687
3605,-0.038191,0.005964,0.023687
3606,-0.001113,0.024037,-0.012473
3607,-0.001113,0.005964,-0.012473
3608,-0.001113,0.024037,-0.030552
3609,-0.001113,0.005964,0.005607
3610,-0.001113,0.005964,0.005607
3611,-0.001113,0.024037,0.023687
3612,0.017426,0.005964,0.023687
3613,0.017426,0.005964,0.005607
3614,-0.001113,0.005964,0.023687
3615,0.017426,0.005964,0.023687
3616,-0.001113,0.005964,0.005607
3617,-0.038191,-0.01211,-0.030552
3618,-0.001113,0.005964,0.005607
3619,-0.019652,0.005964,0.023687
3620,-0.001113,0.005964,0.005607
3621,-0.019652,0.005964,0.005607
3622,-0.001113,0.024037,0.005607
3623,-0.001113,0.005964,0.005607
3624,-0.001113,0.024037,-0.012473
3625,-0.001113,0.005964,-0.030552
3626,-0.019652,0.024037,0.005607
3627,-0.019652,0.005964,-0.012473
3628,-0.001113,0.005964,-0.012473
3629,-0.001113,-0.01211,-0.012473
3630,-0.001113,0.005964,0.005607
3631,-0.001113,-0.01211,-0.012473
3632,0.017426,0.005964,-0.012473
3633,-0.001113,0.005964,0.005607
3634,-0.019652,-0.01211,0.005607
3635,0.017426,0.005964,0.023687
3636,-0.001113,0.005964,0.041767
3637,-0.001113,0.005964,0.023687
3638,-0.001113,0.005964,0.023687
3639,-0.001113,0.024037,0.041767
3640,-0.001113,0.024037,0.023687
3641,0.035965,0.024037,0.005607
3642,-0.001113,0.024037,0.005607
3643,-0.001113,0.005964,0.005607
3644,-0.019652,0.024037,-0.012473
