# Requested Sampling Rate (Hz):,1000
# Actual Sampling Rate (Hz):,999.403
# Requested Duration (s):,5.0
# Actual Duration (s):,5.05
# REST Calibration:,832.0600347222207,831.6700347222207,832.6898611111126
# MAX Calibration:,886.0000,887.0000,888.0000
# Normalization: MVC-based  (x_norm = (x - REST) / (MAX - REST))
sample_idx,EMG1,EMG2,EMG3
0,-0.001113,0.005964,0.005607
1,-0.019652,0.005964,0.005607
2,0.017426,0.005964,0.005607
3,-0.001113,0.005964,0.023687
4,-0.001113,0.005964,-0.030552
5,0.017426,0.005964,0.005607
6,-0.019652,0.005964,0.041767
7,-0.019652,0.005964,0.005607
8,-0.001113,0.024037,-0.030552
9,-0.001113,-0.01211,-0.030552
10,-0.001113,0.005964,-0.012473
11,-0.019652,0.024037,-0.030552
12,-0.001113,0.024037,-0.030552
13,-0.001113,0.005964,-0.012473
14,-0.001113,0.005964,-0.012473
15,-0.001113,0.024037,-0.012473
16,-0.019652,0.005964,0.005607
17,-0.001113,0.005964,0.023687
18,-0.001113,0.005964,-0.030552
19,-0.019652,0.005964,0.005607
20,-0.001113,0.005964,0.023687
21,0.017426,-0.01211,0.023687
22,-0.019652,0.024037,-0.012473
23,-0.001113,-0.01211,0.005607
24,0.035965,0.005964,0.005607
25,0.017426,0.005964,-0.012473
26,-0.001113,-0.01211,-0.012473
27,0.017426,0.005964,0.023687
28,-0.001113,-0.01211,0.005607
29,-0.038191,-0.01211,-0.012473
30,-0.001113,0.024037,-0.012473
31,-0.001113,0.005964,0.005607
32,-0.001113,0.005964,-0.012473
33,-0.001113,0.005964,-0.030552
34,-0.001113,0.005964,0.005607
35,-0.001113,-0.030183,0.023687
36,-0.001113,0.005964,0.005607
37,0.017426,-0.01211,0.023687
38,-0.001113,0.005964,0.023687
39,-0.019652,0.005964,0.023687
40,-0.019652,0.005964,0.023687
41,-0.001113,-0.01211,0.005607
42,-0.001113,0.005964,0.023687
43,-0.001113,0.005964,-0.012473
44,-0.001113,0.005964,-0.012473
45,0.017426,0.005964,0.023687
46,0.017426,0.024037,-0.012473
47,-0.001113,0.005964,-0.012473
48,-0.019652,-0.01211,-0.012473
49,0.035965,0.024037,-0.012473
50,-0.019652,0.005964,-0.012473
51,-0.001113,-0.030183,-0.030552
52,0.017426,0.024037,0.005607
53,-0.001113,0.024037,0.023687
54,0.017426,0.005964,-0.030552
55,-0.019652,-0.01211,0.023687
56,-0.001113,-0.030183,0.005607
57,-0.019652,0.005964,0.005607
58,-0.001113,0.005964,0.005607
59,-0.001113,0.005964,0.005607
60,0.017426,-0.01211,-0.012473
61,-0.019652,0.005964,0.023687
62,0.017426,0.005964,0.023687
63,-0.001113,0.024037,-0.012473
64,-0.001113,0.005964,0.041767
65,-0.001113,0.005964,0.005607
66,-0.019652,0.005964,-0.012473
67,-0.019652,0.005964,-0.012473
68,-0.001113,-0.01211,0.023687
69,0.017426,0.005964,0.005607
70,-0.019652,0.024037,-0.012473
71,-0.001113,0.024037,0.005607
72,-0.001113,0.005964,0.005607
73,-0.019652,0.005964,-0.030552
74,-0.019652,0.024037,0.005607
75,0.017426,-0.01211,0.005607
76,-0.001113,0.005964,0.023687
77,-0.019652,0.024037,0.005607
78,-0.019652,0.005964,0.005607
79,-0.001113,0.005964,0.041767
80,0.017426,0.005964,0.005607
81,-0.001113,-0.01211,-0.012473
82,-0.001113,0.005964,0.023687
83,0.017426,0.005964,0.005607
84,-0.001113,0.024037,-0.012473
85,0.035965,0.024037,-0.030552
86,-0.001113,0.024037,0.023687
87,-0.001113,-0.01211,0.005607
88,-0.001113,-0.01211,-0.012473
89,0.017426,-0.01211,0.005607
90,-0.001113,0.005964,0.005607
91,-0.001113,0.024037,-0.030552
92,-0.019652,0.005964,0.005607
93,-0.001113,0.005964,0.023687
94,-0.019652,-0.01211,0.023687
95,-0.019652,0.005964,0.005607
96,-0.038191,0.005964,0.023687
97,-0.001113,0.005964,0.041767
98,0.017426,0.005964,-0.012473
99,-0.001113,-0.01211,0.023687
100,-0.001113,0.005964,0.023687
101,-0.001113,0.005964,0.005607
102,-0.001113,-0.01211,-0.012473
103,-0.019652,0.005964,0.005607
104,-0.001113,0.024037,-0.012473
105,-0.019652,0.005964,0.005607
106,-0.001113,0.005964,0.005607
107,-0.019652,-0.01211,0.005607
108,-0.001113,0.005964,-0.030552
109,-0.019652,-0.01211,-0.012473
110,-0.001113,0.005964,-0.012473
111,-0.001113,0.005964,0.005607
112,-0.019652,0.005964,0.023687
113,-0.001113,0.005964,0.023687
114,-0.001113,0.005964,0.023687
115,-0.038191,0.005964,0.023687
116,-0.019652,-0.01211,0.005607
117,-0.019652,0.024037,0.041767
118,-0.001113,0.024037,0.023687
119,-0.019652,0.005964,0.005607
120,-0.001113,0.005964,0.005607
121,-0.019652,0.005964,0.023687
122,-0.019652,0.005964,0.005607
123,0.017426,0.005964,-0.012473
124,-0.001113,0.005964,-0.030552
125,-0.001113,0.005964,0.005607
126,-0.001113,0.005964,-0.030552
127,0.017426,-0.01211,0.005607
128,-0.001113,-0.01211,0.005607
129,-0.001113,0.005964,0.023687
130,0.017426,0.005964,-0.012473
131,0.017426,0.005964,0.005607
132,-0.001113,-0.01211,0.023687
133,-0.001113,0.005964,0.023687
134,-0.001113,0.005964,0.005607
135,-0.001113,0.005964,0.005607
136,-0.001113,0.005964,0.023687
137,-0.001113,0.024037,0.005607
138,-0.001113,0.005964,-0.012473
139,-0.019652,0.005964,0.005607
140,0.017426,0.005964,0.005607
141,-0.019652,0.024037,-0.012473
142,-0.001113,-0.01211,-0.030552
143,0.017426,0.024037,-0.012473
144,-0.019652,0.005964,-0.012473
145,0.017426,0.005964,-0.030552
146,0.017426,0.024037,0.005607
147,0.017426,0.005964,0.023687
148,-0.001113,-0.01211,0.005607
149,-0.001113,0.005964,0.005607
150,0.017426,0.024037,0.023687
151,-0.001113,0.005964,0.023687
152,-0.019652,0.005964,0.005607
153,-0.019652,-0.01211,0.023687
154,-0.019652,0.005964,0.005607
155,0.017426,0.005964,0.005607
156,0.017426,0.024037,-0.012473
157,-0.038191,0.005964,0.005607
158,-0.001113,0.024037,-0.012473
159,-0.001113,0.024037,-0.030552
160,-0.019652,0.005964,-0.012473
161,-0.019652,0.024037,0.005607
162,-0.001113,0.005964,-0.030552
163,-0.001113,0.005964,-0.030552
164,-0.001113,-0.01211,-0.012473
165,-0.019652,0.024037,-0.012473
166,-0.019652,0.005964,-0.012473
167,-0.001113,-0.01211,0.005607
168,0.017426,0.005964,0.023687
169,-0.001113,0.024037,0.023687
170,-0.001113,0.024037,0.005607
171,0.017426,-0.01211,0.023687
172,-0.001113,0.005964,0.023687
173,-0.001113,-0.01211,0.005607
174,-0.001113,0.005964,0.005607
175,-0.001113,0.024037,0.005607
176,-0.019652,0.005964,-0.012473
177,-0.001113,0.005964,-0.012473
178,-0.001113,0.005964,-0.030552
179,-0.001113,0.024037,0.005607
180,-0.001113,0.005964,-0.030552
181,-0.019652,0.005964,-0.012473
182,-0.019652,0.005964,0.005607
183,-0.001113,0.024037,-0.012473
184,-0.001113,0.005964,-0.012473
185,-0.019652,-0.01211,0.005607
186,0.017426,0.005964,0.005607
187,-0.001113,0.005964,-0.012473
188,0.017426,0.005964,0.005607
189,0.017426,-0.01211,0.005607
190,-0.001113,0.024037,0.023687
191,0.017426,0.005964,0.005607
192,-0.019652,0.005964,0.005607
193,-0.001113,-0.01211,0.023687
194,0.017426,0.005964,0.005607
195,-0.019652,0.005964,-0.012473
196,0.017426,0.005964,0.005607
197,-0.001113,0.005964,0.005607
198,-0.001113,0.005964,-0.012473
199,-0.001113,0.005964,-0.012473
200,0.017426,0.024037,0.005607
201,0.017426,0.005964,-0.012473
202,-0.001113,0.005964,-0.030552
203,-0.001113,0.005964,-0.012473
204,0.017426,0.005964,0.023687
205,-0.001113,0.005964,-0.030552
206,0.017426,-0.01211,0.023687
207,-0.001113,0.005964,0.023687
208,-0.001113,0.005964,0.041767
209,-0.019652,0.005964,0.005607
210,-0.001113,0.005964,0.023687
211,0.017426,0.005964,0.005607
212,-0.019652,0.005964,0.005607
213,-0.001113,0.005964,-0.012473
214,-0.019652,0.005964,0.005607
215,0.017426,0.005964,0.005607
216,-0.001113,0.005964,-0.048632
217,0.017426,0.005964,-0.012473
218,-0.001113,0.005964,-0.012473
219,-0.001113,0.005964,-0.012473
220,-0.019652,0.005964,-0.012473
221,-0.019652,0.005964,0.005607
222,-0.001113,0.024037,0.023687
223,-0.001113,0.005964,0.005607
224,-0.001113,-0.01211,0.005607
225,0.017426,0.005964,0.023687
226,-0.001113,0.005964,0.005607
227,0.017426,-0.01211,0.077927
228,-0.019652,0.005964,0.041767
229,-0.001113,0.005964,0.005607
230,-0.019652,0.005964,0.005607
231,0.017426,-0.01211,0.005607
232,0.017426,0.005964,0.005607
233,-0.001113,0.005964,-0.012473
234,0.017426,0.024037,-0.030552
235,0.017426,0.024037,0.005607
236,0.017426,0.005964,0.005607
237,-0.019652,0.024037,-0.030552
238,0.035965,0.024037,-0.012473
239,-0.019652,0.005964,0.023687
240,-0.001113,0.005964,-0.030552
241,-0.001113,0.005964,-0.012473
242,-0.001113,-0.01211,-0.012473
243,-0.001113,0.005964,0.023687
244,-0.001113,-0.01211,0.005607
245,-0.001113,-0.01211,0.005607
246,-0.001113,0.005964,0.005607
247,0.017426,0.005964,0.005607
248,-0.001113,-0.01211,-0.012473
249,-0.019652,-0.01211,0.023687
250,0.017426,0.005964,0.023687
251,-0.001113,0.005964,0.005607
252,-0.019652,0.005964,-0.012473
253,-0.001113,0.024037,0.023687
254,-0.001113,0.005964,0.005607
255,-0.001113,0.005964,-0.030552
256,-0.019652,0.005964,0.005607
257,-0.001113,0.005964,0.023687
258,-0.019652,-0.01211,-0.012473
259,-0.019652,0.024037,0.005607
260,-0.019652,0.005964,0.023687
261,-0.038191,0.005964,0.023687
262,-0.038191,0.005964,0.005607
263,-0.038191,-0.01211,0.005607
264,-0.019652,-0.01211,0.005607
265,0.054504,0.005964,0.005607
266,0.035965,0.024037,-0.012473
267,0.035965,0.005964,0.023687
268,0.017426,0.005964,-0.012473
269,0.017426,0.005964,-0.012473
270,0.017426,0.005964,-0.012473
271,0.017426,0.005964,0.023687
272,-0.001113,0.005964,-0.012473
273,-0.001113,-0.01211,-0.012473
274,-0.001113,0.024037,0.023687
275,-0.001113,0.005964,-0.012473
276,-0.001113,0.024037,-0.012473
277,-0.001113,0.024037,0.023687
278,0.035965,0.024037,0.023687
279,-0.001113,0.024037,0.023687
280,-0.019652,0.005964,0.005607
281,-0.001113,0.005964,0.005607
282,-0.001113,-0.01211,0.005607
283,-0.019652,0.024037,0.005607
284,-0.019652,-0.01211,0.005607
285,-0.001113,0.024037,0.005607
286,0.017426,0.005964,-0.012473
287,-0.001113,0.005964,-0.030552
288,-0.001113,-0.01211,-0.066712
289,-0.019652,0.024037,-0.030552
290,-0.001113,0.04211,-0.012473
291,-0.001113,0.005964,-0.012473
292,-0.001113,0.005964,-0.012473
293,-0.001113,-0.01211,0.005607
294,-0.001113,0.005964,0.005607
295,-0.001113,0.005964,0.041767
296,0.017426,0.024037,0.059847
297,-0.001113,-0.01211,0.023687
298,-0.001113,0.005964,0.041767
299,-0.019652,0.005964,0.041767
300,-0.001113,0.024037,0.023687
301,-0.001113,0.005964,0.005607
302,-0.019652,-0.01211,0.005607
303,-0.001113,0.024037,0.041767
304,0.035965,-0.01211,0.023687
305,-0.001113,0.024037,0.023687
306,-0.001113,0.04211,0.023687
307,-0.05673,0.005964,-0.012473
308,-0.038191,0.005964,-0.030552
309,-0.05673,0.005964,-0.048632
310,-0.019652,-0.01211,-0.012473
311,0.035965,0.005964,-0.048632
312,0.073044,-0.030183,-0.084792
313,0.035965,0.005964,-0.066712
314,-0.001113,0.005964,-0.030552
315,0.017426,0.024037,-0.030552
316,-0.001113,-0.01211,0.005607
317,-0.019652,-0.01211,0.023687
318,-0.001113,-0.01211,-0.030552
319,-0.019652,0.005964,-0.048632
320,-0.001113,-0.01211,0.005607
321,-0.001113,0.005964,0.005607
322,-0.001113,0.005964,0.005607
323,0.017426,0.024037,0.041767
324,-0.001113,0.005964,0.041767
325,-0.001113,0.005964,0.041767
326,-0.019652,0.024037,0.059847
327,-0.001113,0.005964,0.023687
328,-0.001113,0.005964,0.023687
329,0.017426,0.04211,0.005607
330,0.017426,0.024037,-0.012473
331,0.017426,0.005964,-0.012473
332,-0.001113,0.024037,0.023687
333,-0.001113,0.04211,-0.030552
334,-0.019652,0.005964,0.005607
335,-0.019652,0.005964,0.041767
336,-0.038191,0.005964,0.023687
337,-0.05673,-0.01211,0.023687
338,-0.038191,0.024037,0.077927
339,-0.019652,0.005964,0.023687
340,0.035965,-0.01211,0.005607
341,0.035965,0.005964,-0.012473
342,0.017426,-0.01211,-0.012473
343,-0.001113,0.005964,-0.030552
344,0.017426,-0.01211,-0.012473
345,-0.001113,0.005964,-0.012473
346,0.035965,0.024037,-0.012473
347,0.017426,0.024037,-0.030552
348,0.054504,0.024037,-0.030552
349,0.035965,0.005964,-0.030552
350,0.017426,-0.01211,-0.048632
351,0.035965,0.005964,-0.030552
352,-0.038191,0.005964,0.005607
353,0.054504,0.005964,0.005607
354,-0.001113,0.005964,-0.030552
355,-0.038191,-0.01211,-0.066712
356,-0.07527,-0.01211,-0.048632
357,-0.07527,-0.01211,-0.066712
358,-0.019652,0.005964,-0.048632
359,0.017426,0.024037,0.005607
360,-0.019652,-0.01211,0.005607
361,-0.019652,0.024037,0.005607
362,-0.001113,0.005964,0.023687
363,-0.019652,0.005964,0.059847
364,-0.019652,-0.01211,0.041767
365,-0.019652,0.024037,0.041767
366,-0.019652,0.005964,0.077927
367,-0.001113,0.024037,0.059847
368,-0.001113,0.005964,0.005607
369,-0.001113,0.024037,0.005607
370,0.017426,0.024037,0.041767
371,-0.001113,0.005964,0.059847
372,0.073044,0.024037,0.005607
373,0.128661,0.04211,0.005607
374,0.128661,0.024037,0.005607
375,0.110122,0.005964,-0.012473
376,0.110122,-0.01211,-0.030552
377,0.035965,0.005964,-0.012473
378,-0.001113,-0.01211,-0.012473
379,-0.07527,0.005964,-0.048632
380,-0.205043,-0.030183,-0.048632
381,-0.167965,-0.01211,-0.030552
382,-0.05673,0.005964,-0.030552
383,-0.038191,0.024037,-0.012473
384,-0.038191,-0.01211,0.005607
385,-0.019652,-0.01211,0.005607
386,-0.038191,-0.01211,-0.012473
387,-0.038191,-0.01211,0.041767
388,-0.019652,0.005964,0.077927
389,-0.001113,0.024037,0.114086
390,-0.001113,0.005964,0.059847
391,-0.001113,0.04211,0.041767
392,-0.001113,0.060184,0.023687
393,-0.019652,0.04211,0.041767
394,-0.038191,0.024037,0.041767
395,-0.038191,0.024037,0.059847
396,-0.038191,0.04211,0.023687
397,-0.038191,0.024037,0.023687
398,-0.05673,0.024037,-0.012473
399,-0.019652,-0.01211,0.023687
400,0.017426,-0.01211,-0.012473
401,0.054504,-0.01211,-0.012473
402,0.054504,0.005964,-0.012473
403,0.035965,0.005964,-0.030552
404,0.035965,-0.01211,-0.012473
405,-0.001113,0.005964,-0.012473
406,0.017426,0.005964,-0.012473
407,0.017426,0.005964,-0.012473
408,0.017426,0.005964,-0.030552
409,-0.019652,0.005964,-0.030552
410,-0.001113,-0.01211,0.005607
411,0.054504,0.005964,-0.012473
412,0.017426,0.005964,-0.012473
413,0.035965,0.005964,-0.030552
414,-0.001113,0.005964,-0.048632
415,-0.038191,-0.030183,-0.084792
416,-0.019652,-0.01211,-0.048632
417,-0.093809,-0.01211,-0.030552
418,0.035965,-0.01211,-0.030552
419,0.035965,0.024037,0.005607
420,0.017426,0.024037,0.059847
421,0.017426,0.04211,0.059847
422,-0.001113,0.024037,0.096007
423,-0.001113,0.024037,0.077927
424,-0.038191,-0.01211,0.059847
425,-0.038191,-0.01211,0.041767
426,-0.038191,0.005964,0.059847
427,-0.019652,0.005964,0.059847
428,0.017426,0.005964,0.005607
429,0.017426,0.024037,-0.012473
430,-0.001113,0.04211,0.023687
431,0.017426,0.04211,-0.012473
432,-0.001113,0.024037,-0.030552
433,-0.05673,0.005964,-0.066712
434,-0.001113,-0.01211,-0.048632
435,-0.019652,-0.01211,-0.066712
436,-0.001113,-0.01211,-0.030552
437,-0.001113,0.005964,0.041767
438,-0.001113,0.005964,0.041767
439,-0.001113,0.024037,0.005607
440,0.017426,0.005964,-0.012473
441,-0.001113,0.005964,-0.030552
442,-0.019652,-0.048257,-0.048632
443,-0.019652,-0.01211,-0.102872
444,-0.019652,-0.048257,-0.084792
445,-0.001113,-0.030183,-0.030552
446,-0.05673,-0.01211,-0.030552
447,0.017426,0.005964,-0.012473
448,0.091583,0.024037,0.023687
449,0.091583,0.04211,0.005607
450,0.091583,0.024037,0.005607
451,0.091583,0.060184,-0.012473
452,0.110122,0.060184,0.041767
453,0.091583,0.04211,0.059847
454,-0.05673,0.005964,0.041767
455,-0.186504,-0.01211,0.077927
456,-0.112348,-0.01211,0.059847
457,-0.038191,0.005964,0.077927
458,-0.038191,-0.030183,0.041767
459,-0.019652,-0.030183,0.041767
460,-0.001113,-0.01211,0.005607
461,-0.001113,-0.030183,0.023687
462,-0.019652,0.005964,-0.012473
463,-0.019652,0.060184,-0.012473
464,-0.019652,0.04211,-0.012473
465,-0.019652,0.024037,-0.012473
466,-0.019652,0.060184,-0.012473
467,-0.019652,0.078257,-0.030552
468,-0.001113,0.005964,-0.048632
469,-0.019652,-0.01211,-0.012473
470,-0.019652,0.005964,0.023687
471,-0.001113,0.060184,0.059847
472,0.073044,0.060184,0.023687
473,0.035965,0.04211,0.041767
474,0.017426,0.024037,0.023687
475,0.017426,0.005964,0.041767
476,-0.001113,0.024037,0.059847
477,-0.019652,0.024037,0.096007
478,0.091583,0.024037,0.059847
479,0.035965,0.04211,0.041767
480,-0.07527,0.024037,0.041767
481,-0.07527,0.005964,0.005607
482,-0.07527,-0.01211,-0.030552
483,0.017426,0.04211,-0.012473
484,-0.001113,0.005964,0.005607
485,-0.038191,-0.048257,-0.012473
486,-0.001113,-0.01211,-0.012473
487,0.017426,0.024037,0.005607
488,-0.001113,0.005964,-0.012473
489,-0.019652,0.005964,-0.030552
490,-0.001113,-0.030183,-0.030552
491,-0.019652,-0.01211,-0.048632
492,0.017426,0.024037,-0.030552
493,-0.001113,0.005964,-0.012473
494,-0.001113,-0.01211,0.005607
495,-0.001113,-0.01211,0.023687
496,-0.019652,-0.01211,-0.030552
497,-0.019652,0.005964,-0.012473
498,-0.001113,-0.01211,0.005607
499,0.035965,-0.01211,-0.012473
500,0.035965,-0.030183,0.005607
501,0.017426,-0.030183,0.005607
502,-0.019652,-0.084403,0.005607
503,-0.038191,-0.084403,0.023687
504,-0.05673,-0.084403,0.041767
505,-0.07527,-0.048257,0.023687
506,-0.093809,-0.048257,-0.012473
507,-0.019652,-0.01211,-0.030552
508,0.073044,0.078257,0.005607
509,0.054504,0.04211,0.005607
510,0.035965,0.024037,0.005607
511,0.035965,0.024037,0.023687
512,-0.001113,0.078257,0.023687
513,0.035965,0.150551,-0.012473
514,0.017426,0.078257,0.005607
515,-0.019652,0.024037,-0.030552
516,-0.019652,0.150551,-0.012473
517,0.017426,0.096331,-0.030552
518,0.035965,0.024037,0.023687
519,-0.001113,-0.030183,0.023687
520,-0.001113,-0.01211,0.005607
521,-0.001113,0.024037,-0.012473
522,-0.001113,-0.048257,-0.012473
523,-0.019652,-0.192844,-0.030552
524,-0.019652,-0.084403,-0.012473
525,-0.001113,-0.048257,0.005607
526,0.035965,-0.06633,0.005607
527,0.073044,-0.06633,0.005607
528,0.110122,-0.01211,0.005607
529,0.1472,0.114404,0.023687
530,0.165739,0.04211,0.059847
531,0.073044,0.024037,0.023687
532,-0.038191,-0.06633,0.005607
533,-0.205043,-0.084403,0.005607
534,-0.316278,-0.048257,-0.012473
535,-0.186504,0.04211,-0.012473
536,-0.038191,0.168624,0.005607
537,0.073044,0.150551,0.023687
538,0.091583,0.096331,0.023687
539,0.035965,0.132477,-0.012473
540,0.035965,0.132477,-0.030552
541,-0.001113,0.150551,-0.030552
542,-0.038191,0.150551,-0.012473
543,-0.05673,0.005964,0.005607
544,-0.038191,-0.01211,0.023687
545,-0.038191,0.024037,0.005607
546,-0.019652,0.024037,-0.030552
547,-0.019652,0.005964,-0.012473
548,0.035965,-0.06633,-0.030552
549,0.110122,-0.048257,0.041767
550,0.035965,-0.06633,0.041767
551,0.035965,-0.138624,0.041767
552,0.091583,-0.17477,0.005607
553,0.128661,-0.01211,0.023687
554,0.110122,0.024037,0.041767
555,0.1472,-0.030183,0.023687
556,0.035965,-0.084403,-0.012473
557,-0.001113,-0.12055,0.005607
558,0.017426,-0.030183,-0.030552
559,-0.167965,0.024037,-0.030552
560,-0.05673,0.060184,-0.030552
561,0.128661,0.204771,-0.030552
562,0.1472,0.313211,-0.030552
563,0.110122,0.222844,-0.030552
564,-0.001113,0.005964,0.005607
565,-0.07527,-0.01211,0.005607
566,-0.112348,-0.01211,-0.012473
567,-0.186504,-0.030183,0.023687
568,-0.186504,-0.01211,0.023687
569,-0.019652,0.04211,0.023687
570,-0.001113,-0.01211,-0.012473
571,0.017426,-0.030183,0.005607
572,0.017426,0.04211,0.023687
573,-0.038191,0.005964,0.005607
574,-0.001113,0.005964,-0.012473
575,-0.05673,-0.030183,0.023687
576,0.017426,0.060184,0.041767
577,0.017426,0.060184,0.005607
578,-0.001113,-0.01211,-0.012473
579,-0.038191,-0.06633,-0.030552
580,-0.05673,-0.06633,-0.030552
581,-0.05673,0.060184,-0.048632
582,0.035965,0.132477,0.005607
583,0.091583,0.150551,0.023687
584,0.091583,0.168624,-0.012473
585,0.035965,0.114404,0.005607
586,-0.019652,0.096331,0.023687
587,-0.038191,0.005964,0.023687
588,-0.038191,0.060184,0.005607
589,-0.001113,0.096331,0.041767
590,0.073044,-0.030183,0.023687
591,0.035965,-0.22899,0.005607
592,0.035965,-0.247064,0.023687
593,0.110122,-0.17477,0.041767
594,0.165739,-0.138624,0.005607
595,0.165739,-0.138624,-0.030552
596,0.1472,0.168624,-0.048632
597,0.091583,0.512018,-0.030552
598,0.017426,0.204771,-0.030552
599,-0.001113,-0.01211,-0.048632
600,-0.001113,-0.084403,-0.012473
601,-0.130887,-0.12055,0.005607
602,-0.093809,-0.156697,-0.012473
603,0.017426,-0.283211,0.005607
604,-0.019652,-0.192844,0.023687
605,-0.07527,-0.084403,0.023687
606,-0.167965,-0.01211,0.023687
607,-0.186504,0.060184,-0.012473
608,-0.05673,0.277064,0.005607
609,0.110122,0.295138,-0.012473
610,0.110122,0.114404,0.005607
611,0.091583,0.060184,0.005607
612,0.128661,0.096331,-0.012473
613,0.110122,0.114404,0.005607
614,-0.05673,0.024037,0.023687
615,-0.205043,-0.138624,-0.012473
616,-0.186504,-0.17477,-0.030552
617,-0.205043,-0.138624,-0.030552
618,-0.038191,-0.06633,0.005607
619,-0.038191,0.005964,-0.012473
620,0.017426,0.078257,-0.030552
621,0.128661,0.096331,0.041767
622,0.035965,-0.06633,0.005607
623,-0.038191,-0.102477,0.005607
624,-0.07527,-0.084403,0.005607
625,-0.05673,0.04211,0.023687
626,0.017426,0.204771,0.059847
627,-0.001113,0.114404,0.041767
628,0.035965,0.04211,0.041767
629,0.054504,-0.048257,0.005607
630,0.054504,-0.084403,-0.012473
631,-0.001113,-0.102477,-0.012473
632,-0.07527,-0.084403,0.023687
633,-0.112348,-0.102477,0.005607
634,-0.149426,-0.084403,-0.012473
635,-0.112348,-0.06633,-0.012473
636,-0.05673,-0.12055,-0.012473
637,-0.019652,-0.084403,-0.030552
638,0.202817,0.024037,-0.030552
639,0.36967,0.060184,-0.012473
640,0.35113,0.060184,0.005607
641,0.332591,0.096331,-0.012473
642,0.314052,-0.030183,0.005607
643,0.165739,-0.102477,0.005607
644,-0.205043,-0.210917,0.005607
645,-0.371896,-0.12055,0.005607
646,-0.334817,-0.048257,0.023687
647,-0.093809,0.331285,0.041767
648,-0.07527,0.403578,0.023687
649,-0.05673,0.530092,-0.012473
650,-0.112348,0.439725,0.005607
651,-0.186504,0.132477,-0.030552
652,-0.112348,-0.01211,-0.012473
653,-0.019652,-0.048257,-0.012473
654,-0.001113,-0.084403,-0.012473
655,0.110122,-0.138624,-0.030552
656,-0.019652,-0.156697,-0.048632
657,-0.05673,-0.084403,-0.030552
658,-0.019652,-0.01211,-0.030552
659,0.054504,-0.06633,0.005607
660,-0.05673,-0.210917,0.023687
661,-0.07527,-0.12055,0.041767
662,-0.019652,0.005964,0.041767
663,0.035965,-0.12055,0.023687
664,-0.038191,-0.030183,0.023687
665,-0.019652,0.168624,0.023687
666,0.073044,-0.01211,0.023687
667,0.073044,0.060184,0.059847
668,0.1472,0.060184,0.023687
669,0.054504,-0.048257,0.005607
670,0.202817,-0.084403,-0.012473
671,0.239896,-0.01211,-0.012473
672,0.295513,0.186697,-0.012473
673,0.221357,0.331285,-0.012473
674,0.035965,0.222844,-0.030552
675,-0.205043,0.168624,-0.012473
676,-0.408974,0.078257,-0.012473
677,-0.2792,0.060184,0.005607
678,-0.149426,-0.01211,0.041767
679,-0.167965,-0.156697,0.023687
680,-0.07527,-0.192844,0.005607
681,0.035965,-0.247064,0.023687
682,0.128661,-0.210917,0.023687
683,0.1472,-0.156697,-0.012473
684,0.1472,-0.06633,-0.030552
685,0.091583,0.005964,0.023687
686,-0.07527,0.096331,0.023687
687,-0.05673,0.096331,-0.012473
688,0.035965,0.078257,-0.030552
689,0.091583,0.114404,0.005607
690,0.091583,0.240918,0.005607
691,0.017426,0.005964,0.005607
692,0.017426,-0.084403,-0.012473
693,0.128661,-0.030183,0.005607
694,0.202817,0.04211,-0.012473
695,0.128661,-0.06633,0.005607
696,0.073044,0.024037,0.005607
697,0.165739,0.186697,0.005607
698,-0.019652,0.277064,-0.012473
699,0.054504,0.204771,0.005607
700,0.035965,0.132477,0.041767
701,-0.001113,0.024037,0.023687
702,-0.167965,-0.12055,-0.012473
703,-0.167965,-0.156697,0.005607
704,-0.316278,0.005964,0.005607
705,-0.019652,0.04211,-0.012473
706,-0.05673,-0.138624,-0.012473
707,-0.019652,-0.102477,-0.030552
708,0.017426,0.005964,-0.012473
709,-0.093809,0.04211,-0.012473
710,-0.019652,0.024037,-0.030552
711,0.073044,0.168624,-0.066712
712,0.054504,0.204771,0.005607
713,-0.001113,0.024037,0.005607
714,-0.07527,-0.192844,0.005607
715,-0.112348,-0.210917,0.041767
716,-0.205043,-0.156697,0.005607
717,-0.223583,-0.22899,-0.012473
718,-0.05673,-0.01211,0.005607
719,0.073044,0.403578,0.023687
720,0.073044,0.024037,0.005607
721,-0.186504,-0.12055,0.005607
722,-0.223583,-0.030183,0.023687
723,-0.038191,-0.030183,-0.030552
724,0.276974,0.060184,0.005607
725,0.314052,0.060184,-0.048632
726,0.295513,-0.084403,-0.048632
727,0.258435,0.060184,0.023687
728,0.165739,0.114404,0.041767
729,-0.019652,0.078257,0.005607
730,0.091583,0.096331,0.005607
731,0.239896,0.168624,0.023687
732,0.054504,0.114404,0.059847
733,-0.297739,0.060184,0.023687
734,-0.334817,-0.01211,0.023687
735,-0.112348,-0.030183,0.005607
736,0.017426,-0.030183,0.005607
737,-0.001113,-0.030183,0.023687
738,-0.019652,-0.12055,0.041767
739,0.017426,-0.084403,0.023687
740,-0.07527,0.024037,0.023687
741,-0.242122,-0.210917,0.023687
742,-0.205043,-0.301284,0.023687
743,-0.260661,-0.337431,-0.012473
744,-0.167965,-0.265137,-0.066712
745,-0.05673,0.240918,-0.030552
746,0.110122,0.313211,-0.012473
747,0.202817,0.295138,-0.030552
748,0.184278,0.349358,-0.030552
749,0.295513,0.240918,0.041767
750,0.295513,0.114404,0.023687
751,0.276974,0.04211,0.005607
752,0.073044,0.005964,0.005607
753,-0.07527,0.060184,0.023687
754,-0.149426,0.186697,0.005607
755,-0.242122,-0.048257,-0.012473
756,-0.242122,-0.156697,0.096007
757,-0.112348,-0.138624,0.059847
758,-0.093809,-0.12055,0.041767
759,0.091583,-0.01211,-0.030552
760,0.629217,0.277064,0.041767
761,0.666296,0.132477,0.005607
762,0.647757,-0.048257,-0.030552
763,0.610678,-0.030183,-0.030552
764,-0.501669,-0.192844,-0.048632
765,-0.371896,-0.17477,-0.066712
766,0.202817,0.222844,0.023687
767,-0.05673,-0.01211,0.041767
768,-0.093809,-0.138624,0.023687
769,-0.205043,0.150551,0.023687
770,-0.260661,0.168624,0.005607
771,-0.038191,0.186697,0.023687
772,0.054504,-0.01211,-0.012473
773,0.258435,0.005964,-0.012473
774,0.239896,0.060184,0.023687
775,-0.07527,0.060184,0.023687
776,-0.038191,-0.01211,0.005607
777,-0.242122,-0.247064,-0.030552
778,-0.130887,-0.337431,-0.048632
779,-0.371896,-0.102477,-0.048632
780,-0.353356,0.548165,0.041767
781,0.165739,0.186697,0.059847
782,0.295513,-0.156697,-0.012473
783,-0.05673,-0.22899,-0.048632
784,-0.260661,-0.355504,-0.030552
785,-0.2792,0.005964,-0.012473
786,-0.205043,0.168624,-0.030552
787,-0.112348,0.005964,0.023687
788,-0.167965,0.024037,0.059847
789,-0.019652,-0.06633,0.077927
790,0.314052,-0.084403,0.041767
791,0.499444,-0.048257,-0.012473
792,0.276974,0.331285,0.005607
793,0.332591,0.04211,-0.012473
794,0.054504,-0.138624,-0.048632
795,0.073044,0.005964,0.005607
796,-0.05673,0.150551,-0.012473
797,-0.371896,0.367431,0.005607
798,-0.612904,0.313211,-0.012473
799,-0.427513,0.222844,0.041767
800,-0.223583,-0.030183,0.005607
801,0.091583,-0.102477,-0.012473
802,0.110122,-0.030183,0.005607
803,-0.223583,-0.06633,0.096007
804,-0.371896,-0.265137,-0.012473
805,-0.446052,-0.265137,0.005607
806,-0.2792,-0.572385,0.023687
807,0.054504,-0.445871,0.059847
808,0.592139,-0.409724,0.059847
809,0.758991,-0.192844,0.077927
810,0.666296,-0.01211,0.114086
811,0.276974,-0.102477,0.023687
812,-0.001113,-0.22899,-0.048632
813,-0.538748,0.475872,-0.048632
814,-0.501669,0.602385,0.059847
815,-0.019652,0.060184,0.005607
816,0.091583,0.222844,-0.012473
817,0.295513,0.060184,-0.066712
818,0.314052,0.150551,-0.102872
819,-0.149426,0.403578,-0.084792
820,0.165739,0.602385,0.041767
821,0.517983,0.602385,0.041767
822,0.202817,0.313211,0.005607
823,-0.186504,0.005964,0.023687
824,-0.464591,-0.156697,0.041767
825,-0.371896,-0.301284,0.059847
826,-0.2792,-0.283211,0.041767
827,-0.260661,-0.373578,-0.012473
828,0.073044,0.222844,0.023687
829,0.35113,0.331285,0.005607
830,0.647757,0.186697,0.005607
831,0.332591,-0.102477,-0.030552
832,0.054504,-0.06633,-0.030552
833,-0.353356,-0.337431,-0.030552
834,-0.48313,-0.463945,0.005607
835,-0.427513,0.078257,0.059847
836,-0.038191,0.005964,0.096007
837,0.239896,-0.518165,0.023687
838,0.1472,-0.662752,-0.048632
839,-0.05673,-0.409724,-0.120952
840,-0.149426,-0.138624,-0.066712
841,0.276974,0.168624,0.023687
842,0.239896,0.457798,0.059847
843,-0.149426,0.873486,0.096007
844,-0.353356,0.331285,0.059847
845,-0.07527,0.168624,0.041767
846,0.1472,-0.030183,0.077927
847,0.406748,-0.048257,-0.012473
848,0.202817,0.222844,0.005607
849,0.221357,-0.030183,0.005607
850,-0.353356,-0.337431,0.005607
851,-0.371896,-0.391651,-0.066712
852,0.295513,-0.01211,-0.066712
853,0.332591,0.765046,-0.048632
854,-0.019652,0.295138,-0.012473
855,0.035965,-0.084403,0.059847
856,-0.019652,-0.247064,-0.012473
857,-0.130887,-0.17477,-0.066712
858,-0.316278,-0.283211,-0.048632
859,-0.149426,0.277064,-0.012473
860,-0.408974,0.150551,0.023687
861,-0.649983,-0.355504,0.023687
862,-0.408974,-0.391651,0.114086
863,-0.353356,-0.030183,0.077927
864,-0.242122,-0.192844,-0.030552
865,-0.07527,-0.06633,0.023687
866,0.276974,-0.554311,0.041767
867,0.091583,-0.518165,-0.048632
868,0.239896,0.132477,-0.030552
869,0.592139,0.783119,0.023687
870,0.36967,0.837339,0.023687
871,0.314052,0.385505,-0.012473
872,0.388209,0.403578,0.005607
873,-0.149426,0.132477,0.005607
874,-0.167965,-0.12055,0.005607
875,0.035965,-0.319357,0.041767
876,0.332591,-0.156697,0.023687
877,0.36967,0.060184,0.005607
878,-0.001113,0.060184,-0.012473
879,-0.149426,-0.138624,0.005607
880,0.073044,0.078257,0.023687
881,-0.093809,0.132477,0.005607
882,0.017426,0.096331,0.005607
883,-0.001113,0.331285,0.023687
884,-0.520209,0.258991,-0.012473
885,-0.835374,0.04211,-0.048632
886,-0.594365,-0.355504,-0.030552
887,-0.390435,-0.373578,-0.030552
888,0.128661,-0.102477,0.005607
889,0.110122,-0.247064,-0.012473
890,0.202817,-0.536238,-0.012473
891,0.091583,-0.337431,-0.048632
892,0.165739,0.295138,-0.066712
893,0.314052,0.692752,0.005607
894,0.517983,0.620459,0.077927
895,0.258435,0.186697,0.023687
896,-0.205043,-0.22899,-0.048632
897,-0.835374,-0.771192,0.005607
898,-0.2792,-0.572385,0.059847
899,0.017426,-0.698899,-0.066712
900,-0.186504,-0.102477,-0.066712
901,-0.205043,0.548165,0.005607
902,0.258435,1.018073,0.023687
903,0.314052,0.94578,0.023687
904,0.128661,0.204771,-0.048632
905,0.1472,-0.030183,-0.030552
906,0.073044,-0.102477,-0.030552
907,0.221357,0.060184,-0.012473
908,-0.149426,-0.01211,0.023687
909,-0.149426,-0.12055,-0.030552
910,-0.130887,0.204771,0.005607
911,-0.2792,0.04211,0.041767
912,-0.390435,-0.572385,0.023687
913,-0.205043,-0.554311,0.023687
914,0.480904,-0.427798,0.041767
915,0.462365,-0.138624,0.041767
916,0.610678,0.313211,0.005607
917,0.073044,0.873486,-0.030552
918,-0.093809,0.439725,-0.048632
919,-0.390435,0.005964,-0.012473
920,-0.242122,-0.01211,-0.012473
921,-0.019652,-0.102477,-0.012473
922,0.499444,-0.102477,0.041767
923,0.406748,-0.210917,0.023687
924,0.221357,-0.084403,0.059847
925,0.443826,0.024037,0.077927
926,0.165739,0.114404,0.023687
927,-0.334817,-0.06633,-0.030552
928,-0.446052,-0.22899,-0.030552
929,-0.001113,0.421652,0.023687
930,0.017426,0.439725,0.023687
931,-0.260661,0.005964,-0.030552
932,-0.427513,-0.102477,0.023687
933,-0.520209,-0.138624,0.023687
934,-0.316278,-0.590458,0.023687
935,-0.038191,-0.482018,-0.012473
936,0.1472,-0.247064,-0.030552
937,0.110122,-0.06633,-0.084792
938,-0.001113,0.493945,-0.120952
939,-0.001113,0.295138,-0.084792
940,0.295513,0.150551,0.005607
941,0.758991,0.078257,0.041767
942,0.592139,-0.22899,0.005607
943,0.258435,-0.319357,0.077927
944,-0.130887,-0.337431,0.077927
945,-0.501669,-0.301284,-0.012473
946,-0.353356,0.168624,0.023687
947,-0.297739,0.674679,0.077927
948,-0.186504,0.277064,0.041767
949,0.073044,0.204771,0.023687
950,0.054504,-0.17477,-0.048632
951,-0.07527,-0.283211,-0.102872
952,-0.07527,-0.247064,-0.048632
953,0.017426,-0.265137,0.023687
954,-0.038191,-0.373578,0.005607
955,0.017426,0.222844,0.005607
956,0.054504,0.692752,0.005607
957,0.35113,0.132477,0.023687
958,0.592139,-0.12055,0.041767
959,0.239896,-0.445871,-0.102872
960,-0.520209,0.060184,-0.084792
961,-0.390435,0.277064,0.005607
962,-0.464591,0.168624,0.023687
963,0.054504,-0.391651,-0.048632
964,0.480904,0.04211,0.023687
965,0.536522,0.096331,0.114086
966,0.35113,-0.210917,-0.030552
967,-0.390435,-0.102477,-0.012473
968,-1.076383,0.367431,0.059847
969,-0.316278,0.313211,0.041767
970,0.647757,0.602385,0.005607
971,0.480904,0.620459,0.041767
972,-0.205043,0.024037,-0.066712
973,-0.557287,-0.17477,-0.084792
974,-0.371896,-0.01211,0.005607
975,-0.038191,0.150551,0.096007
976,-0.038191,-0.192844,0.041767
977,-0.167965,-0.192844,0.005607
978,-0.07527,-0.391651,-0.048632
979,0.443826,-0.192844,0.005607
980,0.295513,-0.626605,-0.030552
981,-0.112348,-0.753119,0.005607
982,0.314052,0.132477,0.023687
983,0.462365,0.837339,0.023687
984,-0.186504,0.005964,0.005607
985,-0.297739,-0.698899,0.077927
986,0.258435,-0.915779,0.059847
987,0.332591,-0.301284,0.005607
988,0.35113,1.234954,0.023687
989,0.332591,1.451835,0.059847
990,-0.186504,0.439725,-0.012473
991,-0.501669,0.04211,-0.066712
992,-0.427513,-0.030183,-0.120952
993,-0.353356,-0.283211,-0.066712
994,-0.260661,-0.06633,0.041767
995,-0.05673,0.04211,-0.012473
996,0.1472,0.349358,-0.012473
997,0.184278,0.349358,-0.012473
998,0.314052,-0.01211,0.005607
999,0.276974,-0.283211,0.041767
1000,-0.001113,-0.192844,0.059847
1001,-0.297739,-0.210917,0.005607
1002,-0.316278,-0.301284,-0.012473
1003,-0.2792,0.150551,0.023687
1004,0.202817,0.439725,0.059847
1005,0.35113,0.114404,0.023687
1006,0.332591,0.186697,0.077927
1007,-0.205043,0.078257,-0.048632
1008,-0.019652,-0.01211,-0.102872
1009,0.388209,-0.01211,-0.048632
1010,0.480904,-0.102477,0.023687
1011,-0.001113,-0.22899,0.005607
1012,0.054504,-0.265137,-0.030552
1013,-0.316278,-0.210917,-0.012473
1014,-0.742678,0.132477,0.005607
1015,-0.965148,-0.06633,-0.012473
1016,-0.872452,-0.391651,-0.048632
1017,-0.557287,-0.283211,-0.012473
1018,0.073044,0.295138,0.041767
1019,0.239896,0.385505,0.077927
1020,0.443826,0.168624,0.059847
1021,0.740452,-0.12055,0.059847
1022,0.925843,0.186697,0.041767
1023,0.517983,0.168624,0.023687
1024,-0.260661,-0.12055,-0.048632
1025,-0.390435,-0.319357,-0.066712
1026,-0.186504,-0.373578,-0.048632
1027,-0.557287,-0.445871,0.041767
1028,0.1472,-0.247064,0.132166
1029,0.925843,0.277064,0.077927
1030,0.758991,0.277064,-0.030552
1031,0.017426,0.096331,-0.030552
1032,0.184278,0.331285,-0.012473
1033,-0.038191,0.385505,-0.048632
1034,-0.07527,-0.22899,-0.084792
1035,-0.538748,-0.409724,0.041767
1036,-0.7056,-0.409724,0.077927
1037,-0.872452,-0.716972,-0.030552
1038,-0.798296,0.096331,-0.012473
1039,0.035965,0.674679,-0.030552
1040,0.332591,0.385505,-0.030552
1041,0.592139,0.475872,0.023687
1042,0.629217,0.132477,0.059847
1043,-0.112348,-0.265137,0.005607
1044,0.073044,-0.12055,-0.012473
1045,0.258435,0.222844,-0.066712
1046,0.480904,0.421652,0.005607
1047,0.480904,0.222844,0.041767
1048,0.5736,-0.427798,-0.030552
1049,-0.07527,-0.843486,-0.048632
1050,-0.371896,-0.500091,-0.030552
1051,-0.242122,0.060184,-0.012473
1052,0.314052,0.674679,0.023687
1053,0.091583,0.240918,0.077927
1054,-0.316278,-0.463945,0.023687
1055,-0.149426,-0.373578,-0.084792
1056,-0.390435,0.222844,-0.048632
1057,-0.019652,0.530092,0.041767
1058,-0.001113,0.746973,0.077927
1059,-0.594365,0.602385,0.041767
1060,-0.297739,0.222844,-0.030552
1061,-0.353356,0.005964,-0.030552
1062,-0.334817,-0.138624,-0.012473
1063,-0.05673,-0.01211,0.041767
1064,0.035965,-0.192844,0.023687
1065,-0.001113,-0.283211,0.005607
1066,0.165739,-0.12055,-0.048632
1067,0.073044,0.04211,-0.084792
1068,0.258435,0.240918,-0.030552
1069,0.388209,0.367431,0.041767
1070,0.110122,-0.156697,0.059847
1071,-0.093809,-0.283211,0.077927
1072,0.128661,-0.445871,0.023687
1073,0.017426,-0.500091,-0.012473
1074,0.073044,-0.355504,-0.066712
1075,-0.297739,-0.210917,-0.102872
1076,0.054504,0.421652,0.041767
1077,0.666296,0.927706,0.077927
1078,0.499444,0.313211,0.041767
1079,0.36967,0.222844,0.023687
1080,0.035965,-0.06633,-0.012473
1081,-0.038191,-0.06633,0.041767
1082,-0.260661,-0.192844,-0.048632
1083,-0.2792,-0.192844,-0.139032
1084,-0.594365,-0.138624,-0.066712
1085,-0.575826,-0.265137,0.023687
1086,0.035965,-0.500091,0.059847
1087,0.555061,-0.102477,0.077927
1088,0.425287,-0.06633,0.005607
1089,0.110122,0.493945,0.023687
1090,-0.2792,0.403578,0.005607
1091,0.017426,0.674679,0.077927
1092,0.332591,0.132477,0.059847
1093,-0.001113,-0.283211,0.005607
1094,-0.724139,-0.626605,0.005607
1095,-0.779756,-0.536238,0.005607
1096,-0.427513,0.024037,0.005607
1097,-0.05673,0.222844,-0.048632
1098,0.221357,0.457798,-0.048632
1099,0.035965,0.005964,-0.084792
1100,0.128661,0.005964,-0.066712
1101,0.388209,0.331285,0.005607
1102,0.054504,0.168624,0.005607
1103,-0.112348,0.367431,0.023687
1104,0.017426,0.04211,0.077927
1105,0.073044,-0.626605,0.023687
1106,-0.167965,-0.427798,0.023687
1107,0.054504,-0.12055,0.059847
1108,0.332591,0.168624,0.059847
1109,0.276974,-0.156697,-0.012473
1110,0.165739,-0.373578,-0.030552
1111,-0.316278,0.060184,-0.030552
1112,-0.297739,-0.01211,0.041767
1113,-0.2792,-0.048257,0.077927
1114,0.091583,0.222844,0.005607
1115,0.184278,0.096331,-0.102872
1116,0.110122,0.367431,-0.048632
1117,-0.05673,0.439725,0.005607
1118,0.184278,0.240918,0.059847
1119,0.091583,-0.247064,0.059847
1120,0.054504,-0.084403,-0.012473
1121,-0.130887,0.024037,-0.120952
1122,-0.427513,-0.319357,-0.084792
1123,-0.649983,-0.337431,-0.048632
1124,0.295513,0.150551,0.041767
1125,0.184278,0.04211,0.041767
1126,0.165739,-0.192844,0.023687
1127,0.239896,0.168624,0.005607
1128,0.110122,0.313211,0.041767
1129,-0.001113,0.114404,0.005607
1130,0.091583,-0.102477,0.005607
1131,0.054504,-0.084403,0.023687
1132,-0.242122,-0.391651,-0.066712
1133,-0.316278,-0.373578,-0.048632
1134,0.443826,0.475872,-0.012473
1135,0.833148,0.258991,-0.048632
1136,0.536522,0.331285,-0.012473
1137,-0.130887,0.132477,-0.012473
1138,-0.7056,-0.17477,-0.012473
1139,-0.316278,-0.22899,-0.012473
1140,-0.205043,-0.355504,0.023687
1141,-0.05673,-0.084403,0.041767
1142,0.165739,0.114404,0.005607
1143,-0.316278,0.313211,0.023687
1144,-0.501669,0.096331,-0.030552
1145,-0.149426,0.096331,-0.048632
1146,-0.427513,-0.138624,0.023687
1147,-0.205043,-0.265137,0.077927
1148,-0.019652,-0.265137,0.041767
1149,0.276974,-0.210917,0.041767
1150,0.480904,0.114404,-0.012473
1151,0.443826,0.512018,0.023687
1152,-0.130887,0.277064,0.041767
1153,-0.130887,0.024037,0.005607
1154,0.035965,-0.247064,0.023687
1155,-0.019652,-0.12055,0.059847
1156,0.1472,-0.265137,-0.048632
1157,0.239896,0.024037,-0.012473
1158,0.221357,-0.102477,-0.048632
1159,0.165739,-0.01211,-0.066712
1160,-0.186504,0.114404,-0.084792
1161,-0.019652,0.313211,-0.048632
1162,0.499444,0.258991,0.059847
1163,0.443826,0.168624,0.077927
1164,-0.464591,-0.030183,0.132166
1165,-0.501669,0.024037,0.096007
1166,-0.353356,-0.030183,0.041767
1167,-0.334817,-0.084403,-0.030552
1168,0.128661,-0.210917,-0.012473
1169,0.314052,-0.319357,-0.048632
1170,0.054504,0.060184,-0.066712
1171,0.054504,0.620459,0.005607
1172,-0.019652,0.150551,-0.012473
1173,0.110122,0.132477,0.005607
1174,0.073044,0.060184,-0.012473
1175,-0.149426,0.005964,0.005607
1176,-0.334817,0.024037,-0.012473
1177,-0.446052,-0.156697,-0.030552
1178,-0.093809,-0.337431,-0.048632
1179,0.314052,-0.192844,-0.012473
1180,0.165739,-0.17477,0.023687
1181,-0.07527,-0.192844,-0.030552
1182,0.202817,0.295138,0.077927
1183,0.35113,0.457798,0.077927
1184,0.054504,0.04211,0.005607
1185,-0.390435,-0.265137,-0.048632
1186,-0.48313,-0.409724,-0.012473
1187,-0.538748,-0.283211,-0.012473
1188,-0.316278,0.114404,-0.012473
1189,-0.112348,0.150551,-0.066712
1190,0.1472,0.457798,-0.012473
1191,0.110122,0.04211,0.005607
1192,0.480904,-0.391651,0.041767
1193,0.79607,-0.427798,0.059847
1194,0.462365,-0.409724,0.041767
1195,-0.242122,0.421652,0.005607
1196,-0.05673,0.909633,0.077927
1197,0.258435,0.512018,0.059847
1198,0.536522,0.132477,0.005607
1199,0.499444,-0.030183,-0.048632
1200,-0.297739,-0.06633,0.096007
1201,-0.724139,-0.06633,0.041767
1202,-0.353356,0.078257,0.023687
1203,-0.038191,-0.084403,-0.012473
1204,-0.093809,-0.319357,0.005607
1205,0.184278,-0.138624,0.041767
1206,0.517983,0.114404,0.041767
1207,0.443826,0.277064,-0.012473
1208,0.406748,0.258991,-0.048632
1209,-0.2792,-0.030183,-0.102872
1210,-0.260661,-0.17477,-0.120952
1211,0.054504,-0.138624,-0.066712
1212,-0.019652,0.096331,-0.012473
1213,-0.07527,0.367431,-0.012473
1214,-0.446052,0.078257,-0.030552
1215,-0.149426,-0.01211,-0.012473
1216,-0.242122,-0.12055,0.023687
1217,-0.2792,-0.192844,0.005607
1218,-0.130887,-0.102477,0.077927
1219,-0.07527,-0.22899,0.023687
1220,-0.038191,-0.22899,-0.048632
1221,-0.223583,-0.01211,-0.066712
1222,-0.05673,0.367431,0.023687
1223,-0.149426,-0.030183,-0.030552
1224,-0.130887,-0.265137,-0.066712
1225,0.017426,-0.030183,0.005607
1226,0.35113,0.150551,0.077927
1227,0.165739,-0.12055,-0.012473
1228,-0.112348,0.005964,-0.066712
1229,-0.149426,-0.030183,-0.084792
1230,-0.038191,-0.01211,-0.084792
1231,-0.019652,-0.030183,0.005607
1232,0.221357,-0.265137,0.023687
1233,0.054504,-0.192844,-0.012473
1234,-0.205043,0.024037,0.005607
1235,-0.205043,0.078257,0.005607
1236,-0.130887,0.277064,0.059847
1237,-0.07527,-0.01211,0.059847
1238,0.314052,-0.102477,0.023687
1239,0.184278,0.005964,0.096007
1240,0.36967,0.132477,0.041767
1241,0.536522,0.421652,0.005607
1242,0.888765,0.403578,0.041767
1243,0.592139,0.096331,0.041767
1244,-0.371896,0.005964,0.077927
1245,-0.575826,-0.102477,0.077927
1246,-0.093809,-0.156697,-0.012473
1247,-0.464591,-0.138624,0.005607
1248,-0.538748,-0.06633,-0.012473
1249,-0.446052,0.096331,-0.012473
1250,-0.205043,-0.01211,-0.030552
1251,-0.149426,-0.265137,0.005607
1252,-0.038191,-0.337431,0.005607
1253,0.091583,-0.138624,0.077927
1254,0.073044,-0.030183,0.005607
1255,0.165739,0.602385,0.005607
1256,0.091583,0.258991,0.005607
1257,0.184278,0.024037,0.023687
1258,0.054504,-0.06633,-0.030552
1259,0.1472,0.186697,0.077927
1260,0.721913,0.114404,0.132166
1261,0.610678,-0.22899,0.114086
1262,0.017426,-0.409724,0.005607
1263,-0.130887,-0.355504,-0.139032
1264,-0.427513,0.186697,-0.120952
1265,-0.167965,0.475872,-0.012473
1266,-0.07527,0.331285,-0.012473
1267,-0.297739,-0.102477,-0.048632
1268,0.017426,-0.06633,0.005607
1269,0.091583,0.150551,0.059847
1270,-0.019652,0.186697,0.041767
1271,-0.167965,-0.084403,0.023687
1272,-0.371896,-0.265137,0.005607
1273,-0.649983,-0.409724,-0.030552
1274,-0.464591,0.114404,-0.012473
1275,-0.038191,0.186697,0.023687
1276,0.425287,0.024037,0.023687
1277,1.0,0.277064,0.005607
1278,0.406748,0.186697,0.005607
1279,-0.05673,0.078257,0.023687
1280,-0.093809,-0.030183,-0.012473
1281,0.054504,-0.030183,-0.084792
1282,0.091583,0.096331,-0.066712
1283,-0.038191,-0.192844,-0.066712
1284,0.406748,-0.138624,-0.030552
1285,0.425287,0.024037,-0.030552
1286,-0.334817,0.024037,-0.030552
1287,-0.408974,0.04211,0.041767
1288,-0.205043,-0.06633,0.077927
1289,-0.149426,-0.192844,0.096007
1290,-0.186504,-0.301284,0.077927
1291,-0.130887,-0.06633,0.059847
1292,-0.223583,-0.030183,0.023687
1293,-0.05673,0.204771,-0.030552
1294,0.165739,0.421652,-0.012473
1295,-0.149426,0.186697,-0.030552
1296,-0.446052,-0.138624,-0.084792
1297,-0.334817,-0.283211,-0.048632
1298,0.35113,-0.17477,0.005607
1299,0.332591,-0.048257,-0.030552
1300,0.443826,0.258991,-0.012473
1301,0.536522,0.421652,-0.048632
1302,0.128661,-0.048257,-0.139032
1303,-0.353356,-0.210917,-0.120952
1304,-0.186504,-0.445871,-0.030552
1305,0.091583,-0.138624,-0.012473
1306,-0.038191,0.024037,0.005607
1307,-0.167965,0.548165,0.077927
1308,-0.668522,0.349358,0.059847
1309,-0.260661,0.005964,0.023687
1310,0.202817,0.096331,0.059847
1311,0.239896,0.024037,0.059847
1312,0.406748,-0.048257,0.077927
1313,0.536522,-0.12055,0.005607
1314,0.480904,-0.192844,0.005607
1315,0.1472,0.060184,-0.012473
1316,0.054504,0.186697,-0.084792
1317,0.091583,0.078257,-0.102872
1318,-0.242122,0.186697,-0.030552
1319,-0.093809,0.096331,0.005607
1320,-0.186504,-0.210917,-0.012473
1321,-0.149426,-0.06633,-0.030552
1322,0.073044,0.240918,-0.030552
1323,0.035965,0.150551,-0.030552
1324,-0.186504,-0.17477,0.005607
1325,-0.149426,-0.17477,0.041767
1326,-0.205043,-0.01211,0.096007
1327,0.054504,-0.06633,0.041767
1328,0.054504,-0.138624,0.096007
1329,-0.464591,-0.084403,0.132166
1330,-0.353356,0.060184,0.114086
1331,-0.038191,-0.048257,0.041767
1332,0.406748,-0.048257,0.023687
1333,0.443826,0.005964,0.023687
1334,0.443826,-0.156697,-0.012473
1335,0.091583,0.024037,-0.012473
1336,-0.297739,0.04211,-0.012473
1337,-0.2792,0.132477,0.005607
1338,-0.223583,-0.030183,-0.048632
1339,0.054504,-0.138624,-0.012473
1340,0.017426,0.005964,0.005607
1341,-0.019652,0.04211,-0.012473
1342,0.017426,-0.084403,-0.012473
1343,-0.05673,-0.156697,-0.012473
1344,-0.2792,0.114404,-0.084792
1345,-0.48313,0.078257,-0.048632
1346,-0.408974,-0.102477,-0.030552
1347,-0.001113,0.096331,-0.012473
1348,0.239896,0.168624,0.041767
1349,0.258435,0.168624,0.077927
1350,0.406748,0.024037,0.005607
1351,0.406748,-0.17477,-0.030552
1352,0.314052,-0.210917,-0.102872
1353,-0.223583,-0.247064,-0.139032
1354,-0.408974,0.240918,-0.084792
1355,-0.260661,0.295138,-0.048632
1356,-0.2792,0.204771,0.041767
1357,-0.05673,-0.030183,0.059847
1358,0.332591,0.04211,0.023687
1359,0.517983,0.078257,0.041767
1360,0.276974,0.096331,0.005607
1361,0.054504,-0.22899,-0.012473
1362,-0.260661,-0.391651,-0.030552
1363,-0.408974,0.024037,0.041767
1364,-0.260661,0.078257,0.023687
1365,0.091583,0.313211,-0.012473
1366,0.276974,0.132477,-0.066712
1367,0.035965,-0.01211,-0.048632
1368,-0.130887,-0.084403,0.005607
1369,-0.149426,-0.210917,0.005607
1370,-0.05673,-0.12055,0.023687
1371,0.202817,-0.01211,0.041767
1372,0.443826,-0.048257,0.005607
1373,0.684835,0.096331,-0.012473
1374,0.276974,-0.030183,-0.066712
1375,-0.408974,-0.210917,-0.066712
1376,-0.890991,0.096331,-0.048632
1377,-0.446052,0.222844,0.005607
1378,-0.223583,0.060184,0.041767
1379,-0.07527,0.186697,0.096007
1380,-0.07527,0.240918,0.077927
1381,0.110122,0.150551,0.077927
1382,0.332591,0.060184,0.077927
1383,0.239896,-0.01211,0.077927
1384,0.202817,0.005964,0.096007
1385,0.073044,-0.030183,0.096007
1386,0.091583,-0.156697,0.041767
1387,0.35113,-0.247064,-0.030552
1388,0.221357,-0.17477,-0.102872
1389,-0.093809,-0.102477,-0.084792
1390,-0.390435,-0.156697,-0.084792
1391,-0.390435,-0.210917,-0.120952
1392,-0.001113,0.222844,-0.048632
1393,0.276974,0.258991,-0.030552
1394,0.128661,0.04211,-0.030552
1395,-0.149426,-0.06633,-0.012473
1396,-0.223583,0.114404,-0.048632
1397,0.073044,0.222844,-0.012473
1398,0.017426,0.114404,0.041767
1399,0.091583,0.060184,0.077927
1400,0.017426,0.005964,0.077927
1401,-0.093809,0.024037,0.059847
1402,-0.001113,0.132477,0.077927
1403,-0.001113,0.078257,0.059847
1404,-0.130887,-0.06633,0.023687
1405,-0.019652,-0.247064,-0.012473
1406,-0.07527,-0.355504,-0.012473
1407,-0.001113,-0.138624,0.005607
1408,-0.001113,0.457798,0.059847
1409,-0.112348,0.078257,-0.030552
1410,0.091583,-0.030183,-0.030552
1411,0.110122,-0.102477,-0.030552
1412,-0.130887,-0.084403,-0.030552
1413,0.017426,0.114404,0.023687
1414,0.128661,0.096331,0.005607
1415,0.035965,0.096331,-0.030552
1416,-0.05673,0.060184,-0.030552
1417,0.1472,0.005964,-0.030552
1418,0.1472,0.04211,-0.030552
1419,-0.038191,-0.265137,-0.120952
1420,-0.205043,-0.283211,-0.084792
1421,-0.408974,-0.06633,-0.012473
1422,-0.186504,-0.030183,0.005607
1423,-0.149426,0.005964,0.041767
1424,-0.038191,0.04211,0.041767
1425,0.165739,0.168624,0.023687
1426,0.221357,0.349358,0.023687
1427,0.017426,0.096331,-0.012473
1428,-0.038191,0.060184,0.005607
1429,-0.112348,-0.06633,0.005607
1430,0.073044,0.04211,0.041767
1431,0.276974,0.150551,0.059847
1432,0.239896,0.04211,0.041767
1433,-0.05673,-0.12055,0.005607
1434,-0.186504,-0.102477,0.023687
1435,-0.07527,0.024037,0.023687
1436,-0.038191,-0.048257,-0.012473
1437,0.110122,0.005964,-0.048632
1438,0.110122,0.186697,-0.030552
1439,0.054504,0.060184,-0.030552
1440,-0.001113,-0.084403,-0.012473
1441,0.017426,-0.084403,-0.030552
1442,-0.038191,-0.156697,-0.030552
1443,-0.05673,-0.01211,-0.066712
1444,-0.019652,0.060184,-0.030552
1445,-0.05673,-0.048257,-0.012473
1446,-0.019652,-0.01211,0.005607
1447,0.110122,-0.048257,0.041767
1448,0.035965,-0.17477,0.041767
1449,-0.019652,-0.102477,0.023687
1450,-0.167965,0.060184,-0.030552
1451,-0.001113,0.258991,0.023687
1452,0.073044,0.060184,0.023687
1453,0.165739,-0.138624,-0.012473
1454,0.128661,-0.301284,-0.030552
1455,-0.07527,-0.337431,-0.030552
1456,-0.2792,-0.265137,0.005607
1457,-0.093809,0.024037,-0.030552
1458,-0.05673,0.493945,-0.048632
1459,0.035965,0.367431,-0.030552
1460,0.258435,0.385505,-0.048632
1461,0.332591,0.204771,-0.048632
1462,-0.093809,-0.084403,0.005607
1463,-0.649983,-0.22899,0.041767
1464,-0.371896,-0.156697,0.023687
1465,-0.019652,-0.048257,-0.012473
1466,0.091583,0.168624,0.041767
1467,0.091583,0.132477,0.077927
1468,0.128661,0.024037,0.041767
1469,0.035965,-0.01211,0.059847
1470,-0.001113,-0.01211,0.077927
1471,-0.019652,0.005964,0.077927
1472,-0.001113,0.024037,0.059847
1473,0.017426,0.005964,0.041767
1474,0.017426,-0.01211,-0.012473
1475,0.017426,-0.01211,-0.048632
1476,0.017426,-0.030183,-0.084792
1477,-0.019652,-0.06633,-0.048632
1478,-0.05673,-0.06633,-0.066712
1479,-0.001113,-0.030183,-0.066712
1480,-0.001113,0.005964,-0.066712
1481,0.017426,0.04211,-0.084792
1482,-0.001113,0.024037,-0.084792
1483,-0.001113,-0.030183,-0.066712
1484,-0.019652,-0.06633,-0.048632
1485,-0.019652,-0.030183,-0.030552
1486,0.035965,-0.01211,-0.030552
1487,-0.001113,-0.030183,-0.012473
1488,-0.019652,-0.01211,0.041767
1489,-0.001113,0.005964,0.096007
1490,0.017426,0.04211,0.114086
1491,-0.001113,-0.01211,0.096007
1492,-0.019652,-0.01211,0.023687
1493,-0.019652,-0.01211,0.005607
1494,-0.019652,0.005964,0.041767
1495,0.017426,0.024037,0.059847
1496,0.017426,0.005964,0.023687
1497,-0.019652,0.005964,-0.012473
1498,-0.001113,0.005964,0.023687
1499,-0.019652,0.005964,0.059847
1500,-0.001113,0.024037,0.023687
1501,0.017426,0.024037,0.041767
1502,-0.001113,0.024037,0.005607
1503,-0.001113,0.005964,-0.012473
1504,-0.001113,-0.01211,0.023687
1505,-0.001113,0.005964,0.023687
1506,-0.001113,0.005964,0.023687
1507,-0.019652,0.005964,0.005607
1508,-0.001113,0.005964,0.005607
1509,-0.001113,-0.01211,-0.012473
1510,-0.001113,0.005964,-0.012473
1511,0.017426,-0.01211,-0.048632
1512,-0.001113,-0.01211,-0.012473
1513,-0.019652,-0.01211,-0.030552
1514,-0.038191,0.005964,-0.030552
1515,-0.038191,-0.01211,-0.066712
1516,-0.019652,-0.01211,-0.012473
1517,0.017426,0.024037,0.005607
1518,0.017426,0.005964,-0.030552
1519,-0.001113,0.005964,-0.012473
1520,-0.019652,0.005964,-0.012473
1521,-0.038191,-0.030183,-0.066712
1522,-0.019652,-0.030183,-0.030552
1523,-0.019652,-0.030183,-0.012473
1524,-0.019652,-0.030183,0.005607
1525,-0.001113,0.005964,0.023687
1526,-0.001113,-0.01211,0.059847
1527,0.017426,0.005964,0.059847
1528,-0.019652,0.005964,0.023687
1529,-0.001113,0.005964,-0.048632
1530,-0.001113,0.005964,-0.030552
1531,-0.019652,-0.01211,-0.048632
1532,-0.019652,0.005964,-0.066712
1533,0.017426,0.005964,-0.066712
1534,-0.001113,-0.01211,-0.066712
1535,-0.019652,-0.01211,-0.066712
1536,-0.038191,-0.01211,-0.066712
1537,-0.019652,-0.01211,-0.030552
1538,-0.019652,0.005964,0.005607
1539,0.017426,0.024037,0.077927
1540,-0.038191,0.005964,0.132166
1541,-0.001113,0.005964,0.150246
1542,-0.001113,0.024037,0.096007
1543,-0.001113,0.005964,0.077927
1544,-0.001113,0.005964,0.059847
1545,-0.001113,-0.01211,0.041767
1546,0.035965,0.024037,0.023687
1547,0.017426,0.04211,0.023687
1548,-0.001113,0.024037,-0.048632
1549,-0.019652,-0.01211,-0.066712
1550,-0.019652,-0.01211,-0.048632
1551,-0.019652,0.005964,0.023687
1552,-0.001113,-0.01211,0.023687
1553,0.017426,0.005964,0.041767
1554,-0.001113,-0.01211,0.041767
1555,-0.019652,0.024037,0.096007
1556,-0.019652,0.005964,0.023687
1557,-0.019652,0.005964,0.041767
1558,-0.038191,-0.01211,0.023687
1559,-0.019652,-0.030183,0.023687
1560,-0.001113,-0.01211,0.023687
1561,-0.001113,-0.01211,-0.012473
1562,-0.001113,-0.01211,-0.030552
1563,0.017426,-0.030183,-0.030552
1564,-0.019652,-0.01211,-0.048632
1565,-0.038191,-0.01211,0.005607
1566,-0.019652,-0.030183,-0.012473
1567,-0.001113,0.024037,0.005607
1568,-0.001113,0.005964,0.005607
1569,-0.038191,0.005964,0.023687
1570,-0.001113,0.024037,-0.012473
1571,-0.001113,0.005964,-0.012473
1572,0.017426,0.005964,0.023687
1573,0.017426,0.005964,0.023687
1574,-0.019652,0.005964,-0.012473
1575,-0.019652,0.005964,-0.030552
1576,-0.038191,-0.01211,0.023687
1577,-0.001113,0.005964,0.023687
1578,-0.001113,0.005964,0.005607
1579,0.017426,0.005964,0.023687
1580,-0.019652,-0.01211,0.023687
1581,0.017426,-0.030183,0.005607
1582,-0.001113,0.005964,0.005607
1583,-0.001113,0.005964,-0.012473
1584,-0.019652,-0.01211,-0.030552
1585,-0.019652,-0.030183,-0.048632
1586,-0.001113,-0.01211,-0.048632
1587,-0.001113,-0.01211,-0.030552
1588,-0.001113,0.005964,-0.030552
1589,-0.001113,-0.01211,-0.030552
1590,0.017426,-0.01211,-0.030552
1591,-0.001113,-0.01211,-0.030552
1592,-0.001113,-0.030183,0.005607
1593,-0.001113,-0.01211,0.023687
1594,-0.001113,0.005964,0.041767
1595,-0.019652,-0.01211,0.041767
1596,-0.019652,0.005964,0.005607
1597,0.017426,0.005964,0.041767
1598,-0.001113,0.005964,0.041767
1599,-0.019652,0.005964,0.005607
1600,-0.001113,0.005964,0.023687
1601,-0.019652,-0.030183,-0.012473
1602,-0.001113,-0.030183,-0.030552
1603,-0.038191,0.005964,-0.048632
1604,-0.019652,-0.01211,-0.030552
1605,-0.001113,-0.01211,-0.012473
1606,0.035965,-0.01211,-0.030552
1607,0.017426,0.024037,-0.030552
1608,-0.019652,-0.01211,-0.030552
1609,0.017426,-0.030183,-0.084792
1610,-0.019652,-0.01211,-0.048632
1611,-0.019652,-0.01211,-0.030552
1612,-0.001113,-0.01211,-0.012473
1613,-0.001113,-0.01211,-0.012473
1614,0.017426,0.005964,0.041767
1615,-0.001113,0.024037,0.077927
1616,0.017426,0.005964,0.041767
1617,-0.001113,-0.01211,0.023687
1618,-0.001113,-0.01211,0.023687
1619,0.017426,-0.030183,0.023687
1620,-0.001113,0.005964,-0.012473
1621,-0.001113,0.024037,-0.012473
1622,-0.001113,0.024037,0.023687
1623,-0.001113,0.024037,0.041767
1624,-0.001113,0.04211,0.059847
1625,-0.001113,0.005964,0.023687
1626,-0.001113,0.024037,-0.012473
1627,-0.038191,0.005964,0.023687
1628,-0.038191,0.005964,0.023687
1629,-0.001113,0.005964,0.023687
1630,-0.001113,0.024037,-0.012473
1631,-0.001113,-0.01211,-0.030552
1632,-0.001113,0.005964,-0.030552
1633,-0.019652,-0.01211,-0.048632
1634,0.017426,-0.01211,-0.030552
1635,-0.019652,0.005964,0.005607
1636,-0.019652,-0.01211,-0.030552
1637,-0.019652,-0.01211,-0.012473
1638,0.017426,0.005964,-0.012473
1639,-0.001113,0.005964,0.023687
1640,-0.001113,0.005964,0.005607
1641,0.017426,0.024037,0.005607
1642,0.017426,-0.01211,0.023687
1643,0.017426,0.005964,0.059847
1644,-0.001113,0.005964,0.005607
1645,-0.001113,0.005964,0.041767
1646,0.017426,-0.01211,0.059847
1647,-0.001113,0.005964,0.059847
1648,-0.001113,0.005964,0.041767
1649,-0.019652,-0.01211,0.059847
1650,-0.001113,-0.01211,0.041767
1651,-0.019652,0.005964,0.041767
1652,-0.001113,0.005964,0.023687
1653,-0.001113,0.04211,0.005607
1654,-0.001113,0.005964,-0.012473
1655,0.017426,0.005964,-0.030552
1656,-0.001113,0.005964,-0.048632
1657,-0.001113,0.005964,-0.012473
1658,-0.001113,0.005964,-0.030552
1659,-0.001113,-0.01211,-0.012473
1660,-0.019652,-0.01211,-0.012473
1661,0.017426,-0.030183,-0.030552
1662,-0.001113,-0.01211,-0.012473
1663,-0.019652,0.005964,0.005607
1664,-0.019652,-0.01211,0.041767
1665,0.035965,0.005964,0.023687
1666,-0.001113,0.005964,0.059847
1667,-0.001113,0.005964,0.041767
1668,-0.019652,0.005964,0.005607
1669,-0.019652,-0.01211,0.005607
1670,-0.001113,-0.01211,0.023687
1671,-0.001113,0.005964,-0.012473
1672,-0.001113,-0.030183,-0.030552
1673,-0.001113,-0.01211,-0.048632
1674,-0.001113,0.005964,0.005607
1675,-0.019652,0.005964,-0.030552
1676,-0.001113,-0.030183,-0.048632
1677,-0.019652,-0.01211,-0.012473
1678,-0.019652,-0.01211,0.005607
1679,-0.019652,-0.01211,-0.012473
1680,-0.001113,-0.01211,0.005607
1681,-0.019652,0.005964,-0.012473
1682,-0.019652,0.005964,0.005607
1683,-0.019652,0.005964,-0.012473
1684,-0.001113,-0.030183,0.023687
1685,-0.001113,0.005964,0.005607
1686,0.017426,-0.030183,-0.030552
1687,-0.001113,0.005964,-0.030552
1688,-0.001113,0.005964,-0.030552
1689,-0.001113,-0.01211,-0.012473
1690,-0.019652,-0.01211,-0.030552
1691,-0.019652,-0.01211,-0.012473
1692,-0.001113,-0.01211,-0.030552
1693,-0.001113,-0.01211,-0.030552
1694,-0.019652,-0.01211,0.005607
1695,-0.019652,-0.01211,0.023687
1696,-0.001113,-0.01211,0.041767
1697,-0.001113,0.024037,0.041767
1698,-0.001113,0.005964,0.059847
1699,-0.001113,-0.01211,0.059847
1700,-0.019652,-0.01211,0.023687
1701,-0.001113,-0.01211,-0.030552
1702,-0.038191,-0.01211,-0.030552
1703,-0.019652,-0.01211,-0.084792
1704,-0.019652,-0.030183,-0.084792
1705,-0.001113,-0.030183,-0.048632
1706,0.017426,-0.01211,-0.066712
1707,-0.001113,-0.01211,-0.030552
1708,-0.019652,-0.01211,-0.030552
1709,-0.019652,-0.01211,-0.012473
1710,-0.001113,-0.030183,-0.012473
1711,-0.001113,0.005964,-0.012473
1712,-0.001113,0.005964,0.005607
1713,-0.019652,0.024037,0.023687
1714,-0.038191,0.005964,-0.012473
1715,-0.001113,-0.01211,-0.048632
1716,-0.001113,-0.01211,-0.048632
1717,-0.038191,-0.01211,0.005607
1718,-0.019652,0.005964,0.023687
1719,-0.038191,-0.01211,0.023687
1720,-0.019652,-0.01211,-0.012473
1721,0.035965,0.005964,0.023687
1722,0.054504,0.005964,0.041767
1723,0.035965,0.005964,0.041767
1724,-0.001113,0.024037,0.041767
1725,0.017426,-0.01211,0.077927
1726,0.017426,0.024037,0.132166
1727,-0.001113,0.024037,0.132166
1728,0.017426,0.005964,0.077927
1729,-0.001113,0.024037,0.077927
1730,0.017426,0.005964,0.077927
1731,-0.001113,0.005964,0.077927
1732,-0.001113,-0.01211,0.005607
1733,-0.001113,0.005964,0.005607
1734,-0.001113,-0.01211,0.005607
1735,-0.001113,0.005964,-0.030552
1736,0.017426,0.005964,-0.012473
1737,-0.019652,-0.01211,0.005607
1738,-0.019652,-0.01211,-0.048632
1739,-0.019652,0.005964,-0.102872
1740,-0.019652,-0.01211,-0.139032
1741,-0.019652,-0.030183,-0.102872
1742,-0.038191,-0.030183,-0.120952
1743,-0.001113,-0.01211,-0.120952
1744,-0.001113,-0.01211,-0.084792
1745,-0.001113,0.024037,-0.048632
1746,-0.001113,-0.01211,-0.012473
1747,0.017426,0.005964,0.077927
1748,0.017426,0.024037,0.114086
1749,0.017426,0.024037,0.096007
1750,-0.001113,-0.01211,0.077927
1751,-0.001113,-0.01211,0.096007
1752,-0.001113,0.005964,0.096007
1753,-0.001113,0.005964,0.077927
1754,-0.001113,0.005964,0.096007
1755,0.017426,0.005964,0.114086
1756,-0.001113,0.005964,0.041767
1757,-0.001113,0.024037,0.005607
1758,-0.001113,0.005964,0.023687
1759,-0.001113,0.024037,0.005607
1760,-0.019652,-0.01211,-0.030552
1761,-0.001113,0.005964,-0.012473
1762,-0.001113,-0.01211,0.005607
1763,-0.001113,-0.01211,-0.030552
1764,-0.019652,-0.01211,-0.012473
1765,-0.019652,-0.01211,-0.012473
1766,-0.019652,-0.01211,-0.012473
1767,-0.019652,-0.030183,-0.048632
1768,-0.019652,-0.01211,-0.048632
1769,-0.019652,0.024037,-0.012473
1770,-0.019652,-0.01211,-0.048632
1771,-0.001113,0.005964,0.023687
1772,-0.001113,-0.01211,0.005607
1773,-0.019652,-0.01211,-0.012473
1774,-0.001113,-0.030183,-0.030552
1775,-0.001113,-0.01211,0.023687
1776,0.017426,0.024037,0.059847
1777,-0.019652,0.005964,0.023687
1778,-0.001113,0.005964,-0.012473
1779,-0.001113,-0.01211,0.005607
1780,-0.001113,-0.01211,-0.012473
1781,-0.05673,-0.01211,-0.030552
1782,-0.019652,0.005964,-0.030552
1783,-0.019652,-0.01211,0.005607
1784,-0.001113,-0.01211,0.005607
1785,-0.001113,-0.01211,0.005607
1786,-0.019652,0.024037,0.023687
1787,0.017426,0.005964,0.005607
1788,-0.019652,-0.01211,-0.030552
1789,-0.019652,-0.01211,-0.030552
1790,-0.019652,-0.01211,-0.048632
1791,-0.001113,-0.01211,-0.084792
1792,-0.038191,0.005964,-0.084792
1793,-0.001113,0.005964,-0.048632
1794,-0.019652,-0.01211,-0.048632
1795,-0.019652,-0.01211,-0.084792
1796,-0.001113,-0.030183,-0.066712
1797,-0.019652,-0.030183,-0.012473
1798,-0.019652,0.005964,0.023687
1799,-0.001113,0.005964,0.041767
1800,-0.019652,-0.01211,0.041767
1801,-0.019652,0.005964,0.041767
1802,-0.019652,0.005964,0.023687
1803,-0.019652,0.005964,0.059847
1804,0.017426,0.024037,0.132166
1805,0.017426,0.04211,0.114086
1806,0.017426,0.024037,0.041767
1807,-0.001113,-0.01211,0.059847
1808,-0.001113,0.005964,0.023687
1809,-0.001113,0.005964,0.023687
1810,-0.019652,0.005964,0.005607
1811,-0.001113,0.005964,0.023687
1812,-0.019652,0.005964,0.023687
1813,-0.019652,0.005964,-0.012473
1814,-0.001113,0.005964,0.005607
1815,-0.019652,-0.01211,-0.012473
1816,-0.001113,-0.01211,-0.048632
1817,-0.038191,-0.01211,-0.012473
1818,-0.019652,0.005964,-0.012473
1819,-0.019652,-0.030183,-0.012473
1820,-0.019652,-0.01211,-0.030552
1821,-0.001113,-0.030183,-0.012473
1822,-0.038191,-0.01211,0.023687
1823,0.017426,-0.030183,-0.012473
1824,-0.001113,-0.01211,0.023687
1825,-0.019652,-0.030183,-0.030552
1826,-0.001113,0.005964,-0.030552
1827,-0.001113,0.005964,-0.012473
1828,-0.019652,0.005964,0.005607
1829,-0.001113,-0.030183,-0.012473
1830,-0.019652,-0.01211,-0.030552
1831,0.017426,0.005964,-0.030552
1832,-0.019652,0.024037,0.005607
1833,-0.019652,0.024037,0.005607
1834,-0.001113,-0.01211,0.005607
1835,-0.001113,0.005964,0.023687
1836,-0.019652,-0.01211,0.023687
1837,-0.019652,0.005964,0.005607
1838,-0.019652,-0.030183,-0.012473
1839,-0.019652,-0.01211,-0.012473
1840,-0.001113,0.005964,0.023687
1841,-0.019652,0.005964,0.041767
1842,-0.001113,0.024037,0.041767
1843,-0.019652,0.005964,0.041767
1844,-0.038191,0.005964,0.005607
1845,-0.019652,0.005964,-0.012473
1846,-0.019652,-0.01211,0.023687
1847,-0.038191,-0.01211,0.023687
1848,-0.001113,0.005964,-0.012473
1849,0.035965,0.005964,0.023687
1850,0.073044,0.024037,0.041767
1851,-0.001113,0.005964,-0.012473
1852,-0.001113,0.005964,-0.012473
1853,-0.019652,-0.01211,0.005607
1854,-0.001113,0.024037,-0.012473
1855,-0.001113,0.005964,-0.012473
1856,-0.001113,-0.01211,0.005607
1857,-0.001113,0.005964,0.023687
1858,-0.001113,-0.01211,0.005607
1859,-0.019652,0.005964,0.023687
1860,-0.019652,0.005964,0.023687
1861,-0.001113,-0.01211,0.005607
1862,-0.019652,-0.01211,-0.048632
1863,-0.019652,-0.01211,-0.030552
1864,-0.001113,0.005964,-0.012473
1865,-0.001113,-0.01211,-0.030552
1866,-0.019652,0.005964,-0.048632
1867,-0.019652,-0.01211,-0.048632
1868,-0.019652,0.024037,-0.048632
1869,-0.019652,0.005964,-0.048632
1870,-0.001113,-0.01211,-0.030552
1871,-0.001113,-0.01211,-0.012473
1872,-0.001113,0.005964,0.023687
1873,0.017426,0.005964,0.023687
1874,-0.001113,-0.01211,0.041767
1875,0.017426,0.024037,0.077927
1876,-0.001113,0.005964,0.096007
1877,-0.001113,0.005964,0.077927
1878,0.017426,0.024037,0.041767
1879,0.035965,0.005964,0.005607
1880,0.017426,0.024037,-0.048632
1881,0.017426,-0.01211,-0.012473
1882,-0.001113,0.005964,-0.066712
1883,0.017426,-0.01211,-0.066712
1884,0.017426,-0.01211,-0.030552
1885,-0.001113,0.005964,-0.048632
1886,-0.019652,-0.01211,-0.084792
1887,-0.019652,-0.01211,0.023687
1888,-0.019652,-0.01211,0.023687
1889,-0.001113,-0.01211,0.059847
1890,-0.019652,0.005964,0.096007
1891,-0.019652,0.005964,0.186406
1892,0.017426,0.024037,0.150246
1893,-0.001113,0.096331,0.041767
1894,-0.001113,0.005964,0.023687
1895,0.017426,0.024037,0.023687
1896,0.017426,0.024037,0.023687
1897,-0.001113,0.005964,0.005607
1898,-0.001113,0.005964,-0.030552
1899,-0.001113,0.005964,0.005607
1900,0.017426,0.005964,-0.030552
1901,-0.019652,0.005964,-0.030552
1902,-0.001113,0.005964,-0.012473
1903,-0.001113,-0.01211,-0.048632
1904,-0.019652,-0.01211,-0.012473
1905,-0.019652,-0.01211,0.005607
1906,-0.001113,0.005964,-0.012473
1907,-0.019652,0.005964,0.005607
1908,-0.001113,0.005964,0.005607
1909,-0.001113,0.005964,0.023687
1910,-0.001113,0.005964,-0.012473
1911,0.017426,-0.030183,-0.030552
1912,-0.001113,0.005964,0.023687
1913,-0.019652,0.005964,0.005607
1914,-0.001113,0.005964,-0.012473
1915,0.017426,0.005964,0.005607
1916,-0.001113,0.005964,0.023687
1917,0.017426,0.005964,-0.012473
1918,-0.001113,0.005964,-0.030552
1919,-0.001113,-0.030183,0.005607
1920,-0.001113,0.005964,0.005607
1921,-0.001113,0.005964,-0.030552
1922,-0.001113,-0.01211,-0.030552
1923,-0.001113,-0.01211,-0.012473
1924,-0.001113,-0.01211,0.041767
1925,-0.001113,-0.01211,0.005607
1926,-0.001113,-0.01211,0.005607
1927,-0.001113,0.024037,0.023687
1928,-0.019652,0.005964,-0.012473
1929,-0.019652,0.005964,-0.012473
1930,-0.019652,-0.01211,0.023687
1931,-0.019652,0.005964,0.005607
1932,-0.019652,0.005964,-0.030552
1933,-0.019652,-0.01211,-0.030552
1934,0.017426,-0.030183,-0.012473
1935,0.073044,0.005964,-0.012473
1936,0.035965,0.005964,-0.048632
1937,-0.001113,0.005964,0.023687
1938,0.017426,-0.01211,0.041767
1939,-0.001113,-0.01211,-0.012473
1940,0.017426,0.005964,0.005607
1941,-0.019652,0.005964,0.023687
1942,-0.001113,0.024037,0.023687
1943,-0.001113,0.005964,0.005607
1944,-0.001113,-0.01211,-0.012473
1945,-0.001113,0.005964,0.005607
1946,0.017426,0.024037,-0.030552
1947,-0.001113,-0.01211,0.041767
1948,-0.001113,0.005964,0.023687
1949,-0.001113,-0.01211,0.005607
1950,-0.019652,-0.01211,-0.048632
1951,-0.001113,0.024037,-0.048632
1952,-0.001113,0.005964,0.023687
1953,-0.019652,0.005964,-0.012473
1954,0.017426,-0.01211,0.005607
1955,0.017426,0.005964,0.023687
1956,-0.001113,0.005964,-0.012473
1957,0.017426,0.005964,-0.012473
1958,-0.001113,0.04211,0.023687
1959,-0.001113,0.024037,0.023687
1960,0.017426,0.024037,0.023687
1961,0.017426,0.005964,0.005607
1962,-0.019652,0.005964,0.041767
1963,-0.001113,-0.01211,0.023687
1964,-0.001113,0.005964,0.005607
1965,0.017426,0.005964,0.023687
1966,-0.019652,-0.01211,0.023687
1967,-0.001113,0.024037,-0.012473
1968,-0.001113,0.005964,-0.030552
1969,-0.001113,0.005964,0.023687
1970,-0.001113,0.005964,-0.012473
1971,-0.001113,-0.01211,-0.048632
1972,-0.001113,0.005964,-0.030552
1973,-0.019652,0.005964,-0.012473
1974,0.017426,0.005964,-0.066712
1975,-0.001113,0.005964,-0.012473
1976,0.017426,0.005964,0.005607
1977,-0.001113,-0.01211,0.005607
1978,-0.001113,0.005964,-0.012473
1979,-0.019652,-0.01211,0.023687
1980,-0.001113,-0.030183,0.005607
1981,0.017426,0.005964,0.005607
1982,-0.019652,0.005964,-0.048632
1983,-0.038191,0.024037,0.041767
1984,0.017426,0.060184,0.077927
1985,0.091583,0.005964,0.041767
1986,-0.001113,0.024037,-0.030552
1987,-0.001113,-0.01211,0.005607
1988,-0.001113,-0.01211,0.005607
1989,-0.001113,0.005964,-0.012473
1990,-0.019652,0.005964,-0.030552
1991,-0.001113,0.005964,0.023687
1992,0.017426,0.04211,-0.030552
1993,-0.019652,0.005964,0.005607
1994,-0.019652,-0.01211,-0.012473
1995,-0.001113,-0.01211,0.041767
1996,-0.001113,0.005964,0.077927
1997,0.017426,0.04211,0.114086
1998,-0.001113,0.024037,0.023687
1999,0.017426,0.005964,-0.030552
2000,0.017426,0.005964,0.005607
2001,-0.001113,0.005964,-0.030552
2002,-0.019652,0.005964,-0.030552
2003,-0.001113,0.005964,-0.030552
2004,-0.001113,0.005964,-0.012473
2005,-0.019652,0.024037,0.005607
2006,0.017426,0.005964,-0.012473
2007,-0.019652,0.005964,-0.030552
2008,-0.019652,-0.01211,-0.030552
2009,0.017426,-0.01211,-0.012473
2010,-0.001113,0.024037,0.005607
2011,-0.001113,0.005964,0.023687
2012,0.017426,0.005964,0.041767
2013,-0.001113,0.005964,0.005607
2014,-0.019652,0.005964,0.023687
2015,-0.001113,0.005964,0.023687
2016,0.035965,0.005964,0.005607
2017,-0.001113,-0.01211,-0.012473
2018,-0.019652,0.024037,0.005607
2019,-0.019652,0.005964,-0.012473
2020,-0.001113,0.005964,-0.030552
2021,-0.019652,-0.01211,-0.048632
2022,0.017426,0.005964,-0.012473
2023,-0.019652,0.005964,-0.030552
2024,-0.001113,-0.01211,-0.030552
2025,-0.001113,0.005964,0.005607
2026,-0.001113,-0.01211,0.005607
2027,-0.001113,0.024037,-0.030552
2028,0.017426,0.005964,0.005607
2029,-0.001113,0.005964,0.005607
2030,0.017426,0.005964,0.041767
2031,-0.019652,0.024037,0.005607
2032,-0.019652,-0.01211,0.023687
2033,-0.001113,0.005964,0.023687
2034,-0.019652,0.005964,0.005607
2035,-0.038191,0.005964,0.005607
2036,-0.019652,0.005964,0.005607
2037,-0.019652,0.005964,-0.030552
2038,-0.038191,0.005964,-0.030552
2039,-0.019652,-0.01211,-0.012473
2040,0.035965,-0.01211,0.005607
2041,0.054504,0.024037,-0.012473
2042,0.035965,0.024037,0.005607
2043,0.017426,0.005964,0.005607
2044,-0.001113,0.005964,-0.012473
2045,0.017426,0.024037,0.005607
2046,-0.001113,0.005964,0.023687
2047,-0.001113,0.005964,0.023687
2048,-0.001113,0.005964,0.023687
2049,-0.001113,0.005964,0.005607
2050,-0.019652,0.005964,0.023687
2051,0.017426,0.024037,0.023687
2052,-0.019652,-0.01211,0.005607
2053,0.017426,0.005964,0.023687
2054,-0.019652,-0.01211,0.005607
2055,-0.001113,-0.01211,0.005607
2056,-0.001113,0.005964,-0.030552
2057,-0.001113,0.005964,0.005607
2058,-0.019652,-0.01211,0.005607
2059,-0.001113,0.024037,-0.030552
2060,-0.001113,0.024037,0.023687
2061,-0.019652,-0.01211,0.005607
2062,-0.001113,0.005964,-0.012473
2063,-0.001113,0.005964,0.005607
2064,-0.001113,-0.01211,0.023687
2065,-0.019652,0.005964,0.041767
2066,-0.019652,-0.01211,-0.012473
2067,-0.001113,0.024037,0.005607
2068,0.017426,0.024037,0.023687
2069,0.017426,0.005964,0.005607
2070,-0.001113,0.005964,0.005607
2071,-0.001113,0.024037,0.023687
2072,-0.001113,0.005964,0.023687
2073,-0.019652,0.005964,0.005607
2074,0.017426,0.005964,-0.012473
2075,-0.001113,0.024037,0.005607
2076,-0.001113,0.005964,-0.030552
2077,-0.001113,0.005964,-0.012473
2078,-0.019652,-0.01211,-0.012473
2079,-0.019652,0.005964,-0.030552
2080,0.017426,-0.01211,-0.030552
2081,0.017426,-0.01211,-0.030552
2082,-0.001113,0.005964,0.023687
2083,0.017426,0.005964,0.059847
2084,-0.001113,0.005964,-0.012473
2085,-0.001113,0.024037,0.023687
2086,-0.001113,-0.01211,0.023687
2087,-0.001113,-0.01211,-0.012473
2088,-0.001113,-0.01211,-0.030552
2089,-0.001113,-0.01211,-0.012473
2090,-0.001113,-0.01211,-0.012473
2091,-0.001113,0.024037,0.005607
2092,-0.001113,0.024037,0.023687
2093,-0.001113,-0.01211,0.023687
2094,0.017426,0.024037,0.041767
2095,-0.019652,-0.01211,0.005607
2096,-0.019652,0.024037,-0.012473
2097,-0.001113,-0.01211,-0.030552
2098,-0.05673,0.005964,-0.030552
2099,-0.001113,0.005964,0.005607
2100,0.017426,0.04211,0.005607
2101,-0.001113,0.005964,0.023687
2102,-0.001113,-0.01211,0.023687
2103,-0.019652,0.024037,0.041767
2104,0.017426,0.005964,0.005607
2105,0.017426,-0.01211,0.005607
2106,-0.001113,0.005964,0.005607
2107,-0.019652,0.005964,0.005607
2108,-0.001113,0.005964,-0.012473
2109,-0.019652,0.005964,-0.012473
2110,-0.019652,0.005964,0.005607
2111,-0.019652,0.005964,-0.012473
2112,-0.019652,0.005964,-0.012473
2113,-0.001113,0.005964,-0.030552
2114,-0.001113,-0.01211,-0.012473
2115,-0.001113,0.005964,-0.030552
2116,-0.019652,0.005964,-0.012473
2117,-0.019652,-0.01211,0.023687
2118,-0.001113,-0.01211,0.041767
2119,-0.001113,-0.01211,0.005607
2120,-0.001113,0.005964,-0.012473
2121,-0.019652,0.005964,0.005607
2122,-0.001113,0.005964,0.005607
2123,-0.019652,0.005964,0.005607
2124,-0.001113,0.005964,0.005607
2125,-0.019652,0.005964,0.005607
2126,-0.038191,-0.01211,-0.012473
2127,-0.019652,0.005964,-0.012473
2128,-0.019652,0.024037,-0.012473
2129,-0.019652,0.005964,0.005607
2130,-0.001113,-0.01211,-0.012473
2131,-0.001113,0.005964,-0.012473
2132,-0.019652,0.024037,-0.030552
2133,-0.001113,0.024037,-0.030552
2134,-0.019652,0.005964,0.005607
2135,-0.019652,0.005964,0.023687
2136,-0.001113,0.005964,0.005607
2137,-0.001113,0.005964,-0.012473
2138,-0.001113,0.005964,-0.012473
2139,-0.001113,-0.030183,0.005607
2140,-0.001113,0.005964,-0.012473
2141,-0.019652,0.005964,0.005607
2142,-0.038191,-0.01211,0.005607
2143,-0.001113,-0.01211,0.005607
2144,-0.001113,0.005964,-0.012473
2145,-0.001113,0.024037,0.023687
2146,-0.019652,0.005964,0.023687
2147,-0.019652,0.005964,-0.012473
2148,-0.019652,0.005964,0.005607
2149,-0.05673,-0.01211,0.005607
2150,-0.001113,0.005964,-0.030552
2151,-0.001113,0.005964,-0.030552
2152,0.017426,0.005964,0.005607
2153,-0.019652,0.005964,0.041767
2154,-0.019652,0.005964,0.005607
2155,-0.001113,0.005964,0.005607
2156,-0.001113,0.005964,0.041767
2157,-0.001113,0.005964,0.041767
2158,-0.019652,0.024037,0.023687
2159,-0.001113,0.005964,0.041767
2160,-0.001113,-0.01211,0.023687
2161,-0.019652,0.024037,-0.012473
2162,-0.001113,0.005964,-0.030552
2163,-0.001113,0.005964,0.005607
2164,0.017426,0.005964,-0.030552
2165,-0.019652,-0.01211,-0.048632
2166,-0.001113,0.005964,-0.012473
2167,-0.038191,0.024037,-0.012473
2168,-0.001113,0.005964,0.005607
2169,-0.001113,0.005964,0.023687
2170,-0.001113,0.005964,0.023687
2171,-0.019652,0.024037,0.023687
2172,-0.07527,-0.01211,0.005607
2173,-0.001113,-0.030183,0.005607
2174,0.035965,0.005964,0.041767
2175,0.017426,0.005964,0.023687
2176,0.035965,0.005964,0.005607
2177,-0.001113,0.005964,0.041767
2178,-0.001113,-0.01211,0.005607
2179,0.017426,0.005964,0.005607
2180,-0.001113,0.024037,-0.012473
2181,-0.001113,0.005964,-0.012473
2182,-0.001113,0.005964,-0.012473
2183,0.017426,-0.01211,-0.048632
2184,0.017426,0.024037,-0.012473
2185,0.017426,0.024037,-0.030552
2186,-0.001113,0.005964,-0.030552
2187,-0.001113,0.005964,0.005607
2188,-0.001113,0.005964,0.023687
2189,-0.001113,0.005964,-0.030552
2190,-0.001113,0.005964,0.005607
2191,0.017426,0.005964,0.005607
2192,0.017426,0.005964,0.005607
2193,-0.001113,0.005964,0.023687
2194,-0.019652,0.005964,0.041767
2195,0.017426,0.024037,0.023687
2196,0.035965,0.005964,0.005607
2197,-0.019652,0.005964,-0.012473
2198,-0.001113,0.005964,0.005607
2199,-0.001113,0.005964,-0.012473
2200,-0.001113,-0.01211,-0.012473
2201,-0.001113,0.005964,-0.030552
2202,0.017426,0.024037,0.005607
2203,0.017426,0.005964,-0.012473
2204,0.017426,0.024037,-0.030552
2205,-0.001113,0.005964,-0.012473
2206,-0.001113,0.005964,0.005607
2207,0.017426,0.005964,-0.012473
2208,0.017426,0.005964,0.005607
2209,-0.001113,0.005964,0.023687
2210,-0.019652,0.005964,0.041767
2211,-0.019652,0.005964,0.023687
2212,0.017426,0.005964,0.041767
2213,0.017426,0.005964,0.059847
2214,0.017426,0.005964,0.023687
2215,-0.001113,0.005964,0.005607
2216,0.017426,0.005964,0.005607
2217,0.017426,0.024037,-0.012473
2218,-0.019652,0.005964,-0.012473
2219,-0.001113,0.005964,-0.030552
2220,0.017426,0.024037,-0.012473
2221,-0.001113,0.005964,-0.030552
2222,-0.019652,-0.01211,-0.012473
2223,0.035965,0.005964,-0.012473
2224,-0.001113,0.005964,-0.012473
2225,-0.019652,-0.01211,-0.012473
2226,-0.001113,0.024037,0.005607
2227,0.017426,0.024037,0.023687
2228,0.017426,0.005964,0.023687
2229,0.017426,0.024037,0.023687
2230,-0.001113,0.005964,0.041767
2231,0.017426,0.005964,0.005607
2232,-0.001113,0.005964,0.005607
2233,0.017426,0.005964,0.005607
2234,-0.001113,0.005964,0.005607
2235,0.017426,-0.01211,-0.030552
2236,0.017426,0.005964,-0.030552
2237,-0.019652,0.005964,0.005607
2238,-0.001113,-0.01211,0.005607
2239,0.017426,0.024037,-0.030552
2240,-0.001113,0.005964,0.005607
2241,0.017426,0.005964,0.023687
2242,-0.001113,0.005964,-0.012473
2243,-0.001113,0.005964,0.005607
2244,-0.001113,0.005964,0.005607
2245,-0.001113,0.024037,0.023687
2246,-0.019652,0.005964,-0.012473
2247,0.017426,0.024037,0.005607
2248,0.017426,0.005964,-0.012473
2249,-0.001113,0.024037,-0.012473
2250,-0.001113,0.024037,-0.012473
2251,-0.001113,0.04211,0.041767
2252,-0.001113,0.005964,0.023687
2253,-0.019652,0.005964,-0.012473
2254,-0.001113,-0.01211,-0.030552
2255,-0.019652,-0.01211,-0.012473
2256,-0.019652,0.005964,-0.012473
2257,0.017426,0.005964,-0.030552
2258,0.035965,0.005964,0.023687
2259,-0.001113,-0.01211,0.023687
2260,0.017426,0.024037,0.005607
2261,-0.001113,0.024037,0.023687
2262,-0.019652,0.005964,0.023687
2263,0.017426,0.005964,0.005607
2264,-0.001113,0.024037,0.005607
2265,0.035965,0.024037,0.059847
2266,-0.019652,0.04211,0.059847
2267,-0.001113,0.005964,0.005607
2268,-0.001113,0.005964,0.005607
2269,-0.001113,0.024037,0.023687
2270,-0.001113,0.024037,-0.012473
2271,-0.001113,0.005964,-0.012473
2272,-0.019652,-0.01211,-0.030552
2273,-0.001113,0.024037,0.005607
2274,-0.001113,0.005964,-0.030552
2275,-0.001113,0.005964,-0.030552
2276,0.017426,0.005964,-0.030552
2277,-0.019652,0.005964,-0.030552
2278,0.017426,0.005964,-0.048632
2279,-0.019652,0.005964,-0.012473
2280,0.017426,0.005964,0.023687
2281,0.017426,0.005964,0.041767
2282,-0.001113,0.024037,0.023687
2283,-0.001113,0.005964,0.059847
2284,-0.001113,0.024037,0.059847
2285,0.017426,0.024037,0.041767
2286,0.017426,0.024037,0.041767
2287,0.017426,0.005964,-0.012473
2288,-0.001113,-0.01211,-0.030552
2289,-0.001113,0.005964,-0.048632
2290,-0.001113,0.005964,-0.030552
2291,-0.019652,-0.030183,-0.030552
2292,-0.001113,-0.01211,-0.012473
2293,0.017426,0.005964,0.023687
2294,0.017426,0.005964,0.023687
2295,0.017426,-0.01211,-0.012473
2296,-0.001113,0.005964,0.023687
2297,-0.001113,-0.01211,0.005607
2298,-0.001113,0.005964,0.023687
2299,0.017426,0.024037,0.005607
2300,0.017426,0.005964,0.041767
2301,0.017426,0.04211,0.041767
2302,-0.001113,0.005964,0.023687
2303,-0.001113,0.005964,-0.012473
2304,-0.001113,0.005964,0.005607
2305,-0.038191,-0.01211,-0.012473
2306,-0.001113,0.005964,-0.012473
2307,-0.001113,0.005964,-0.012473
2308,-0.019652,-0.01211,0.005607
2309,-0.001113,0.005964,-0.012473
2310,0.017426,0.005964,-0.030552
2311,0.017426,0.005964,-0.012473
2312,-0.001113,0.024037,-0.012473
2313,-0.001113,0.005964,-0.030552
2314,-0.019652,-0.01211,0.005607
2315,-0.038191,0.005964,0.023687
2316,-0.019652,0.005964,0.005607
2317,-0.001113,0.005964,-0.012473
2318,0.035965,0.005964,-0.012473
2319,-0.001113,0.005964,0.005607
2320,-0.001113,0.024037,0.005607
2321,-0.001113,-0.01211,0.005607
2322,-0.019652,0.024037,0.005607
2323,-0.038191,0.005964,-0.012473
2324,-0.001113,-0.01211,-0.030552
2325,-0.019652,0.005964,-0.030552
2326,-0.001113,-0.01211,-0.012473
2327,-0.001113,0.005964,0.005607
2328,-0.001113,0.024037,0.005607
2329,-0.001113,0.005964,0.005607
2330,-0.001113,0.024037,0.005607
2331,-0.001113,0.005964,-0.012473
2332,0.017426,0.005964,0.005607
2333,-0.019652,-0.01211,0.005607
2334,-0.001113,0.005964,-0.030552
2335,-0.019652,0.005964,0.005607
2336,-0.001113,0.060184,0.023687
2337,-0.019652,0.005964,0.041767
2338,-0.001113,0.005964,0.005607
2339,-0.001113,-0.01211,0.005607
2340,-0.001113,0.005964,0.023687
2341,-0.019652,-0.01211,-0.030552
2342,-0.019652,0.005964,-0.048632
2343,0.017426,-0.01211,0.005607
2344,-0.001113,0.005964,-0.012473
2345,-0.001113,-0.01211,0.005607
2346,-0.038191,0.024037,-0.012473
2347,-0.001113,0.024037,0.005607
2348,-0.001113,0.024037,-0.012473
2349,-0.001113,0.024037,-0.012473
2350,-0.001113,0.005964,0.023687
2351,-0.001113,0.005964,0.023687
2352,-0.001113,0.005964,-0.012473
2353,0.017426,0.024037,-0.012473
2354,-0.019652,0.005964,0.023687
2355,-0.001113,-0.01211,0.041767
2356,0.017426,0.005964,0.005607
2357,-0.001113,0.005964,0.023687
2358,-0.019652,-0.01211,0.023687
2359,-0.001113,0.005964,-0.012473
2360,-0.001113,0.005964,-0.030552
2361,-0.001113,0.024037,0.023687
2362,-0.019652,0.005964,0.005607
2363,-0.001113,0.005964,0.005607
2364,-0.019652,0.005964,-0.012473
2365,0.017426,0.005964,-0.012473
2366,-0.019652,0.005964,-0.030552
2367,-0.001113,-0.01211,-0.030552
2368,-0.019652,-0.01211,-0.012473
2369,-0.038191,-0.01211,0.005607
2370,-0.019652,0.005964,-0.012473
2371,-0.001113,0.024037,0.005607
2372,-0.019652,0.005964,0.023687
2373,-0.019652,-0.01211,0.041767
2374,-0.001113,0.005964,0.005607
2375,-0.019652,0.024037,0.023687
2376,-0.001113,0.024037,0.023687
2377,-0.038191,-0.01211,-0.030552
2378,-0.001113,0.024037,0.005607
2379,0.017426,-0.01211,0.005607
2380,0.035965,0.005964,0.005607
2381,-0.019652,-0.01211,-0.012473
2382,-0.001113,0.04211,-0.030552
2383,-0.019652,0.005964,-0.030552
2384,0.017426,-0.01211,-0.048632
2385,-0.001113,0.024037,0.005607
2386,-0.019652,0.024037,0.005607
2387,-0.019652,-0.01211,-0.012473
2388,0.017426,0.005964,-0.012473
2389,-0.001113,0.005964,0.005607
2390,-0.001113,0.005964,0.005607
2391,-0.001113,0.005964,0.023687
2392,-0.019652,0.024037,0.023687
2393,-0.001113,0.005964,0.041767
2394,-0.001113,0.005964,0.059847
2395,-0.001113,-0.01211,0.005607
2396,-0.001113,0.005964,0.041767
2397,-0.001113,0.005964,0.023687
2398,-0.001113,0.005964,-0.012473
2399,-0.001113,0.005964,-0.012473
2400,-0.001113,0.005964,0.023687
2401,-0.001113,0.005964,-0.012473
2402,-0.019652,0.024037,-0.066712
2403,0.017426,0.005964,-0.030552
2404,-0.001113,0.005964,-0.030552
2405,-0.019652,0.005964,-0.048632
2406,-0.001113,0.024037,-0.012473
2407,-0.001113,0.024037,0.023687
2408,-0.001113,-0.01211,0.023687
2409,-0.001113,0.005964,0.005607
2410,-0.038191,0.005964,0.041767
2411,-0.001113,0.005964,0.041767
2412,-0.001113,0.024037,0.059847
2413,-0.001113,0.024037,0.023687
2414,-0.001113,0.024037,0.041767
2415,-0.019652,0.005964,-0.030552
2416,-0.001113,0.005964,-0.012473
2417,-0.019652,0.005964,-0.012473
2418,-0.001113,0.005964,0.023687
2419,-0.019652,-0.01211,-0.012473
2420,0.017426,-0.01211,-0.048632
2421,0.017426,-0.01211,-0.012473
2422,-0.001113,0.005964,-0.030552
2423,-0.019652,0.005964,-0.030552
2424,-0.019652,0.024037,0.005607
2425,-0.001113,0.024037,0.005607
2426,-0.019652,0.005964,0.023687
2427,-0.001113,-0.01211,-0.012473
2428,-0.019652,0.005964,-0.012473
2429,-0.001113,0.005964,0.041767
2430,0.017426,0.024037,0.005607
2431,-0.001113,0.005964,0.041767
2432,-0.001113,0.005964,0.023687
2433,-0.001113,0.005964,0.023687
2434,-0.019652,0.005964,-0.012473
2435,-0.019652,0.005964,-0.012473
2436,-0.001113,0.005964,0.023687
2437,-0.001113,0.005964,-0.030552
2438,-0.019652,0.005964,-0.030552
2439,-0.001113,0.005964,-0.012473
2440,-0.001113,0.024037,-0.012473
2441,-0.001113,-0.01211,-0.012473
2442,-0.001113,-0.01211,-0.012473
2443,-0.001113,0.005964,0.023687
2444,-0.001113,0.005964,0.005607
2445,-0.019652,0.024037,0.005607
2446,-0.019652,0.005964,0.023687
2447,-0.001113,0.005964,0.023687
2448,-0.001113,0.005964,0.005607
2449,-0.001113,-0.01211,0.005607
2450,-0.001113,0.024037,0.005607
2451,-0.001113,0.005964,-0.012473
2452,-0.001113,0.005964,-0.012473
2453,-0.001113,-0.01211,0.005607
2454,-0.001113,0.024037,0.023687
2455,-0.001113,0.005964,-0.030552
2456,-0.019652,0.005964,-0.012473
2457,-0.001113,0.005964,-0.012473
2458,-0.001113,0.005964,-0.030552
2459,-0.001113,0.005964,-0.012473
2460,-0.001113,-0.01211,0.023687
2461,-0.019652,0.005964,0.023687
2462,-0.001113,0.005964,0.005607
2463,-0.001113,0.005964,0.005607
2464,-0.001113,0.005964,0.041767
2465,-0.019652,0.005964,0.023687
2466,0.017426,0.024037,0.005607
2467,-0.019652,-0.01211,0.005607
2468,-0.001113,-0.01211,-0.012473
2469,-0.001113,0.005964,-0.030552
2470,-0.001113,0.005964,-0.012473
2471,0.017426,0.024037,0.041767
2472,0.017426,0.005964,0.005607
2473,-0.001113,0.005964,-0.030552
2474,-0.019652,-0.01211,-0.012473
2475,-0.019652,0.024037,-0.012473
2476,-0.001113,0.024037,-0.030552
2477,0.017426,-0.01211,0.005607
2478,-0.019652,0.024037,0.005607
2479,-0.001113,-0.01211,0.005607
2480,-0.001113,0.024037,0.005607
2481,0.017426,-0.01211,0.023687
2482,0.035965,-0.030183,0.041767
2483,0.017426,0.005964,0.023687
2484,-0.001113,-0.01211,0.023687
2485,-0.001113,0.024037,0.041767
2486,-0.001113,0.005964,-0.012473
2487,-0.001113,0.005964,-0.030552
2488,-0.019652,0.024037,0.005607
2489,0.017426,0.024037,0.005607
2490,-0.001113,0.005964,-0.012473
2491,0.017426,0.005964,-0.012473
2492,-0.001113,0.005964,-0.012473
2493,-0.019652,-0.01211,-0.030552
2494,-0.001113,0.005964,-0.030552
2495,-0.019652,0.005964,0.005607
2496,-0.001113,-0.01211,0.041767
2497,-0.001113,0.024037,-0.012473
2498,-0.001113,0.005964,0.005607
2499,0.017426,-0.01211,0.023687
2500,-0.001113,-0.01211,0.005607
2501,0.017426,0.005964,0.005607
2502,-0.001113,0.024037,0.041767
2503,-0.001113,0.005964,0.005607
2504,-0.001113,0.005964,-0.012473
2505,-0.038191,0.005964,-0.030552
2506,0.017426,-0.01211,0.077927
2507,-0.001113,0.005964,0.005607
2508,-0.001113,0.024037,-0.012473
2509,-0.019652,0.005964,-0.012473
2510,-0.001113,0.005964,-0.012473
2511,0.017426,0.024037,-0.030552
2512,-0.019652,-0.01211,0.005607
2513,0.017426,-0.01211,0.005607
2514,0.017426,0.005964,0.005607
2515,0.017426,0.005964,0.005607
2516,-0.001113,0.005964,0.023687
2517,-0.001113,0.005964,0.023687
2518,-0.019652,0.005964,0.005607
2519,-0.001113,0.005964,0.023687
2520,-0.019652,0.024037,0.041767
2521,-0.001113,0.024037,0.005607
2522,-0.019652,0.005964,-0.012473
2523,-0.001113,-0.01211,-0.030552
2524,-0.001113,0.005964,0.005607
2525,0.017426,0.005964,-0.012473
2526,-0.001113,0.024037,-0.030552
2527,-0.001113,0.005964,-0.030552
2528,-0.001113,0.005964,-0.030552
2529,0.017426,0.005964,-0.030552
2530,-0.001113,0.005964,0.005607
2531,-0.019652,0.005964,-0.030552
2532,0.017426,-0.01211,-0.012473
2533,-0.001113,0.024037,0.023687
2534,-0.001113,0.005964,0.023687
2535,-0.001113,0.005964,0.023687
2536,-0.001113,0.024037,0.023687
2537,-0.019652,0.005964,0.005607
2538,-0.001113,0.005964,-0.030552
2539,-0.019652,0.005964,0.005607
2540,0.017426,0.005964,0.005607
2541,-0.001113,0.005964,0.005607
2542,-0.001113,0.005964,-0.012473
2543,-0.001113,-0.01211,-0.030552
2544,-0.001113,0.024037,-0.030552
2545,-0.001113,0.024037,0.005607
2546,-0.001113,-0.01211,0.023687
2547,-0.001113,0.024037,0.041767
2548,0.017426,0.005964,0.023687
2549,-0.001113,0.005964,0.041767
2550,-0.019652,0.005964,-0.030552
2551,-0.001113,-0.01211,-0.012473
2552,-0.019652,-0.01211,-0.012473
2553,-0.001113,-0.01211,-0.030552
2554,0.017426,-0.01211,-0.030552
2555,-0.019652,-0.01211,0.023687
2556,-0.001113,0.005964,0.023687
2557,-0.001113,0.005964,0.005607
2558,-0.001113,0.024037,0.023687
2559,-0.001113,0.005964,0.023687
2560,-0.001113,0.005964,0.005607
2561,0.017426,0.04211,-0.030552
2562,-0.001113,0.005964,0.005607
2563,-0.019652,0.024037,-0.012473
2564,-0.019652,0.005964,-0.012473
2565,0.017426,-0.01211,-0.012473
2566,-0.001113,0.005964,0.005607
2567,-0.001113,0.005964,0.023687
2568,-0.001113,0.005964,-0.012473
2569,-0.001113,0.024037,0.023687
2570,-0.001113,0.024037,0.005607
2571,-0.001113,0.005964,0.005607
2572,0.017426,-0.01211,0.023687
2573,-0.001113,0.024037,0.023687
2574,-0.001113,-0.030183,0.005607
2575,-0.001113,0.005964,-0.012473
2576,-0.019652,-0.01211,0.005607
2577,-0.001113,-0.01211,-0.012473
2578,0.017426,0.005964,-0.012473
2579,-0.019652,0.024037,-0.012473
2580,-0.001113,0.024037,0.005607
2581,-0.001113,0.005964,-0.012473
2582,-0.001113,0.024037,0.005607
2583,-0.001113,0.005964,0.005607
2584,0.017426,-0.01211,0.023687
2585,-0.001113,0.005964,0.005607
2586,-0.001113,-0.01211,0.005607
2587,-0.001113,0.005964,0.005607
2588,0.017426,-0.01211,0.005607
2589,0.017426,0.024037,-0.012473
2590,-0.019652,0.005964,0.005607
2591,-0.001113,0.005964,0.005607
2592,-0.001113,0.024037,0.005607
2593,0.017426,0.005964,-0.012473
2594,0.017426,0.005964,0.077927
2595,-0.001113,0.005964,-0.012473
2596,0.017426,-0.01211,-0.030552
2597,-0.001113,0.024037,-0.012473
2598,-0.001113,0.005964,-0.012473
2599,-0.001113,0.024037,-0.012473
2600,-0.001113,0.005964,0.005607
2601,0.017426,0.005964,0.005607
2602,-0.001113,-0.01211,0.023687
2603,-0.019652,-0.030183,-0.012473
2604,-0.001113,0.005964,0.023687
2605,-0.001113,0.024037,0.023687
2606,-0.001113,0.005964,0.005607
2607,0.017426,0.005964,0.023687
2608,0.017426,0.005964,0.023687
2609,-0.001113,-0.01211,0.005607
2610,-0.001113,0.024037,0.005607
2611,-0.001113,0.024037,-0.012473
2612,-0.019652,0.005964,0.005607
2613,-0.001113,0.005964,-0.012473
2614,-0.038191,0.005964,-0.012473
2615,-0.019652,0.005964,-0.012473
2616,-0.001113,0.024037,0.005607
2617,-0.001113,-0.01211,-0.012473
2618,-0.001113,-0.01211,0.005607
2619,-0.001113,-0.01211,0.005607
2620,-0.019652,0.005964,-0.030552
2621,0.017426,0.005964,0.005607
2622,-0.001113,0.005964,0.023687
2623,-0.019652,0.005964,0.023687
2624,0.017426,0.005964,0.005607
2625,0.017426,0.005964,0.005607
2626,-0.001113,-0.01211,0.005607
2627,-0.038191,0.005964,0.005607
2628,-0.001113,-0.01211,-0.012473
2629,-0.019652,0.005964,0.005607
2630,0.017426,0.005964,0.005607
2631,-0.001113,0.005964,0.005607
2632,-0.001113,0.005964,0.005607
2633,-0.001113,0.005964,-0.012473
2634,-0.001113,-0.030183,-0.012473
2635,-0.001113,-0.01211,-0.012473
2636,-0.001113,0.005964,0.005607
2637,-0.001113,0.024037,0.023687
2638,-0.001113,0.005964,-0.012473
2639,0.017426,0.005964,0.005607
2640,-0.038191,0.005964,0.005607
2641,-0.019652,-0.01211,0.023687
2642,-0.001113,0.005964,-0.012473
2643,-0.001113,-0.01211,0.023687
2644,-0.001113,0.005964,0.041767
2645,-0.001113,-0.01211,0.005607
2646,-0.001113,0.024037,-0.012473
2647,-0.001113,0.005964,-0.012473
2648,-0.001113,0.005964,-0.012473
2649,-0.001113,0.005964,-0.030552
2650,-0.001113,0.024037,-0.030552
2651,-0.001113,0.024037,-0.030552
2652,-0.019652,-0.01211,-0.012473
2653,-0.019652,-0.01211,-0.030552
2654,-0.001113,0.005964,-0.012473
2655,-0.001113,0.024037,0.005607
2656,-0.001113,0.005964,-0.012473
2657,-0.001113,-0.01211,0.023687
2658,-0.001113,0.005964,0.041767
2659,-0.001113,0.024037,0.023687
2660,-0.019652,-0.01211,0.005607
2661,-0.001113,-0.01211,0.023687
2662,-0.001113,0.005964,0.005607
2663,0.017426,0.024037,0.005607
2664,-0.019652,0.005964,0.023687
2665,0.017426,-0.01211,0.005607
2666,-0.001113,-0.01211,-0.012473
2667,-0.001113,0.005964,-0.030552
2668,0.017426,-0.01211,-0.012473
2669,0.017426,0.024037,0.005607
2670,-0.019652,-0.01211,-0.012473
2671,-0.019652,-0.01211,-0.030552
2672,-0.001113,0.005964,0.005607
2673,-0.001113,-0.01211,-0.030552
2674,0.017426,0.005964,0.005607
2675,-0.019652,0.005964,0.023687
2676,0.017426,0.005964,0.023687
2677,-0.001113,-0.01211,0.023687
2678,0.017426,-0.01211,0.005607
2679,-0.001113,-0.01211,0.041767
2680,0.017426,0.005964,0.023687
2681,-0.001113,0.024037,-0.012473
2682,0.017426,0.005964,0.023687
2683,-0.001113,0.024037,0.005607
2684,-0.001113,0.005964,0.005607
2685,-0.001113,-0.01211,-0.012473
2686,-0.001113,0.005964,-0.012473
2687,-0.019652,-0.01211,-0.012473
2688,-0.001113,0.005964,-0.030552
2689,-0.001113,-0.01211,-0.012473
2690,-0.001113,0.024037,0.005607
2691,-0.038191,0.024037,-0.030552
2692,-0.001113,-0.01211,0.005607
2693,0.017426,-0.01211,0.005607
2694,-0.001113,0.005964,0.005607
2695,0.017426,0.005964,0.005607
2696,0.017426,0.024037,0.023687
2697,-0.001113,0.005964,0.023687
2698,-0.001113,0.024037,0.005607
2699,-0.019652,0.024037,-0.030552
2700,-0.038191,-0.01211,0.041767
2701,-0.019652,-0.01211,0.005607
2702,-0.019652,0.005964,0.005607
2703,-0.001113,0.024037,-0.030552
2704,-0.019652,0.005964,-0.012473
2705,0.017426,-0.01211,0.005607
2706,-0.001113,0.005964,0.023687
2707,-0.038191,0.005964,0.005607
2708,-0.019652,0.005964,-0.012473
2709,0.017426,-0.01211,-0.012473
2710,-0.001113,0.005964,0.005607
2711,-0.001113,0.005964,0.005607
2712,0.017426,0.005964,0.023687
2713,-0.019652,0.024037,0.005607
2714,0.017426,0.005964,0.005607
2715,-0.001113,0.005964,0.041767
2716,0.017426,0.005964,0.023687
2717,-0.001113,-0.01211,0.005607
2718,-0.001113,0.024037,0.023687
2719,-0.001113,0.005964,0.005607
2720,-0.001113,-0.01211,-0.012473
2721,-0.001113,0.024037,-0.030552
2722,-0.038191,0.005964,0.023687
2723,-0.001113,0.005964,-0.012473
2724,0.017426,0.005964,-0.048632
2725,-0.001113,-0.01211,-0.012473
2726,0.017426,0.005964,-0.030552
2727,-0.001113,0.005964,-0.048632
2728,-0.001113,0.005964,0.005607
2729,-0.001113,0.005964,0.005607
2730,-0.001113,0.005964,-0.012473
2731,-0.001113,0.005964,0.023687
2732,-0.019652,0.005964,0.023687
2733,0.017426,0.005964,0.023687
2734,-0.001113,0.024037,0.023687
2735,-0.001113,0.005964,0.023687
2736,-0.001113,0.005964,0.005607
2737,-0.019652,0.005964,0.005607
2738,-0.001113,0.005964,-0.030552
2739,-0.001113,0.024037,0.005607
2740,-0.019652,0.005964,0.005607
2741,0.017426,-0.01211,0.005607
2742,-0.001113,0.005964,-0.030552
2743,-0.001113,-0.01211,0.005607
2744,-0.019652,-0.01211,-0.012473
2745,0.017426,0.005964,-0.012473
2746,0.017426,0.005964,0.023687
2747,-0.019652,0.005964,0.005607
2748,0.017426,0.005964,0.005607
2749,-0.001113,0.005964,0.005607
2750,0.017426,0.024037,0.023687
2751,-0.001113,0.005964,0.041767
2752,-0.019652,0.005964,0.005607
2753,-0.001113,-0.01211,0.005607
2754,-0.001113,-0.01211,0.005607
2755,-0.001113,-0.01211,-0.012473
2756,-0.001113,0.024037,-0.012473
2757,-0.019652,-0.01211,0.005607
2758,-0.001113,-0.01211,-0.012473
2759,-0.001113,0.005964,-0.030552
2760,-0.019652,-0.01211,-0.030552
2761,-0.001113,0.005964,0.005607
2762,-0.001113,0.005964,-0.012473
2763,-0.019652,-0.030183,-0.012473
2764,0.017426,0.024037,0.005607
2765,0.017426,0.005964,0.023687
2766,-0.001113,0.005964,-0.030552
2767,-0.001113,0.005964,-0.012473
2768,-0.001113,-0.030183,0.023687
2769,-0.001113,0.005964,0.023687
2770,0.017426,-0.01211,-0.012473
2771,-0.001113,0.005964,0.023687
2772,-0.038191,0.005964,0.041767
2773,-0.001113,0.005964,0.005607
2774,0.017426,0.005964,0.023687
2775,-0.001113,0.005964,0.005607
2776,-0.019652,-0.01211,0.005607
2777,-0.001113,0.005964,-0.012473
2778,-0.019652,0.024037,-0.030552
2779,0.017426,0.005964,0.005607
2780,-0.019652,0.005964,-0.012473
2781,-0.001113,0.005964,-0.012473
2782,-0.001113,0.005964,0.005607
2783,0.017426,0.005964,-0.030552
2784,-0.001113,0.005964,-0.012473
2785,-0.001113,-0.01211,0.005607
2786,-0.019652,0.005964,0.005607
2787,-0.019652,0.005964,0.005607
2788,-0.001113,0.005964,0.005607
2789,-0.001113,-0.01211,0.005607
2790,-0.001113,0.005964,0.023687
2791,-0.001113,0.024037,0.023687
2792,-0.001113,0.024037,0.023687
2793,-0.001113,0.005964,0.005607
2794,0.035965,0.005964,0.005607
2795,0.017426,0.005964,-0.012473
2796,-0.001113,0.005964,0.005607
2797,-0.001113,0.005964,0.005607
2798,-0.001113,0.005964,-0.030552
2799,-0.001113,0.024037,-0.030552
2800,-0.001113,0.024037,0.023687
2801,-0.019652,0.005964,-0.030552
2802,-0.001113,0.005964,-0.012473
2803,-0.001113,0.005964,0.005607
2804,-0.001113,0.005964,0.005607
2805,-0.001113,-0.01211,-0.030552
2806,-0.001113,-0.01211,0.005607
2807,-0.001113,0.005964,0.005607
2808,-0.019652,0.024037,0.005607
2809,0.017426,0.024037,0.005607
2810,0.017426,0.005964,0.023687
2811,0.017426,0.005964,0.023687
2812,-0.001113,-0.01211,0.005607
2813,-0.019652,0.005964,-0.012473
2814,0.017426,0.005964,0.023687
2815,-0.001113,-0.01211,-0.012473
2816,-0.001113,0.024037,-0.030552
2817,-0.001113,0.005964,-0.030552
2818,-0.001113,-0.01211,-0.012473
2819,0.017426,0.024037,-0.030552
2820,-0.001113,0.005964,-0.012473
2821,-0.001113,0.005964,0.005607
2822,-0.019652,-0.01211,0.005607
2823,0.017426,0.005964,-0.012473
2824,-0.001113,0.024037,0.023687
2825,-0.001113,0.005964,0.041767
2826,-0.019652,0.005964,0.023687
2827,-0.001113,0.005964,0.023687
2828,-0.001113,0.005964,0.041767
2829,-0.001113,-0.01211,0.023687
2830,0.017426,-0.01211,0.005607
2831,-0.019652,0.024037,-0.012473
2832,-0.001113,0.005964,0.005607
2833,-0.001113,0.005964,-0.012473
2834,0.035965,0.005964,-0.012473
2835,-0.001113,-0.01211,-0.030552
2836,-0.001113,-0.01211,-0.012473
2837,-0.019652,0.005964,-0.012473
2838,-0.019652,-0.01211,-0.012473
2839,-0.001113,0.005964,-0.012473
2840,-0.001113,-0.01211,-0.030552
2841,-0.001113,0.005964,-0.012473
2842,0.017426,0.005964,0.005607
2843,-0.001113,0.024037,0.023687
2844,-0.001113,0.005964,0.023687
2845,-0.019652,0.005964,0.005607
2846,0.017426,-0.01211,0.023687
2847,-0.019652,0.005964,0.023687
2848,0.017426,0.005964,-0.012473
2849,-0.019652,0.024037,0.023687
2850,-0.001113,0.005964,0.005607
2851,-0.001113,0.005964,-0.012473
2852,-0.001113,0.024037,-0.030552
2853,-0.019652,0.005964,-0.012473
2854,-0.001113,0.005964,-0.012473
2855,-0.001113,0.005964,-0.048632
2856,0.017426,-0.01211,0.005607
2857,0.035965,0.005964,0.005607
2858,-0.019652,0.005964,-0.030552
2859,-0.001113,0.005964,0.005607
2860,-0.001113,0.005964,0.005607
2861,0.017426,0.005964,0.005607
2862,0.017426,0.005964,-0.012473
2863,0.017426,-0.01211,0.005607
2864,-0.038191,0.005964,0.041767
2865,0.017426,0.005964,0.023687
2866,-0.019652,0.005964,0.023687
2867,-0.019652,0.024037,0.041767
2868,0.017426,0.005964,0.005607
2869,-0.001113,0.005964,-0.012473
2870,0.017426,0.005964,-0.030552
2871,-0.001113,0.005964,0.005607
2872,-0.001113,0.005964,-0.012473
2873,-0.001113,0.005964,-0.012473
2874,0.017426,0.005964,0.005607
2875,-0.019652,0.005964,0.005607
2876,-0.038191,0.005964,-0.012473
2877,0.017426,0.005964,-0.012473
2878,-0.019652,-0.01211,0.023687
2879,-0.001113,0.005964,0.023687
2880,-0.001113,0.005964,0.005607
2881,0.017426,0.024037,0.023687
2882,0.017426,-0.030183,0.023687
2883,0.017426,0.024037,0.005607
2884,-0.001113,0.005964,0.005607
2885,-0.038191,-0.01211,0.005607
2886,0.017426,0.005964,-0.012473
2887,-0.019652,0.005964,-0.012473
2888,-0.019652,0.005964,-0.012473
2889,-0.001113,0.005964,0.005607
2890,-0.001113,0.005964,-0.012473
2891,-0.001113,0.005964,-0.012473
2892,0.017426,-0.01211,-0.012473
2893,-0.001113,0.005964,-0.012473
2894,-0.001113,-0.01211,-0.012473
2895,-0.001113,0.005964,0.005607
2896,-0.019652,-0.01211,0.005607
2897,0.017426,0.005964,0.041767
2898,-0.001113,0.005964,0.005607
2899,-0.001113,0.024037,0.041767
2900,-0.001113,0.024037,0.041767
2901,-0.001113,-0.01211,-0.012473
2902,-0.001113,0.005964,-0.012473
2903,-0.038191,0.005964,0.023687
2904,-0.019652,-0.01211,0.005607
2905,0.017426,0.005964,-0.012473
2906,-0.001113,0.005964,-0.030552
2907,0.017426,0.005964,-0.012473
2908,-0.001113,0.005964,-0.012473
2909,-0.001113,0.005964,-0.012473
2910,-0.001113,0.005964,0.005607
2911,0.017426,-0.01211,0.005607
2912,-0.019652,-0.01211,-0.030552
2913,-0.001113,-0.01211,0.005607
2914,0.017426,0.005964,0.005607
2915,-0.001113,0.005964,-0.012473
2916,-0.001113,-0.01211,0.005607
2917,-0.001113,-0.01211,0.023687
2918,-0.001113,0.024037,0.023687
2919,-0.001113,0.005964,0.005607
2920,-0.019652,0.005964,0.041767
2921,-0.001113,-0.01211,0.005607
2922,-0.019652,0.005964,0.005607
2923,-0.019652,0.005964,-0.012473
2924,-0.001113,0.005964,0.023687
2925,0.017426,-0.01211,-0.012473
2926,0.035965,0.005964,-0.030552
2927,-0.001113,0.005964,-0.030552
2928,-0.001113,0.005964,0.005607
2929,0.017426,0.005964,-0.012473
2930,-0.001113,0.024037,-0.030552
2931,-0.001113,0.005964,0.023687
2932,-0.001113,0.005964,0.023687
2933,-0.019652,0.005964,-0.012473
2934,0.017426,0.024037,0.023687
2935,-0.001113,0.024037,0.023687
2936,-0.001113,0.005964,0.005607
2937,-0.019652,0.005964,0.005607
2938,-0.001113,-0.01211,0.023687
2939,-0.019652,0.024037,0.005607
2940,-0.001113,0.024037,0.005607
2941,-0.001113,0.005964,-0.012473
2942,-0.001113,-0.01211,0.005607
2943,-0.001113,0.024037,0.005607
2944,-0.019652,-0.01211,-0.012473
2945,-0.001113,0.005964,-0.012473
2946,0.017426,0.005964,-0.012473
2947,-0.019652,-0.01211,-0.012473
2948,-0.001113,0.005964,-0.012473
2949,-0.019652,0.024037,0.005607
2950,-0.019652,0.005964,0.005607
2951,-0.001113,0.005964,0.005607
2952,-0.019652,0.005964,0.005607
2953,0.017426,0.005964,0.005607
2954,-0.019652,-0.01211,0.005607
2955,0.035965,0.024037,0.005607
2956,-0.038191,-0.01211,0.005607
2957,-0.001113,-0.01211,-0.012473
2958,-0.019652,-0.01211,-0.012473
2959,-0.001113,-0.01211,0.023687
2960,-0.019652,0.024037,0.023687
2961,-0.001113,0.005964,-0.030552
2962,-0.001113,0.024037,-0.012473
2963,-0.001113,-0.01211,0.005607
2964,-0.001113,0.005964,-0.012473
2965,0.017426,0.005964,-0.030552
2966,-0.001113,-0.030183,0.005607
2967,-0.001113,-0.01211,0.005607
2968,-0.019652,0.005964,-0.048632
2969,-0.001113,0.024037,-0.012473
2970,-0.019652,-0.048257,0.005607
2971,-0.019652,0.005964,0.005607
2972,-0.001113,0.005964,-0.012473
2973,-0.019652,0.005964,0.005607
2974,0.017426,0.005964,0.023687
2975,0.035965,0.005964,0.005607
2976,-0.019652,0.005964,0.005607
2977,-0.001113,0.005964,0.023687
2978,-0.001113,0.024037,-0.012473
2979,-0.001113,0.024037,-0.012473
2980,-0.001113,0.024037,-0.030552
2981,-0.001113,0.005964,0.023687
2982,-0.019652,0.024037,-0.012473
2983,-0.001113,0.005964,-0.030552
2984,-0.019652,-0.01211,0.023687
2985,-0.001113,0.024037,0.023687
2986,-0.001113,0.005964,-0.030552
2987,-0.001113,0.005964,0.005607
2988,-0.019652,0.04211,0.005607
2989,0.017426,0.005964,0.023687
2990,0.017426,-0.01211,0.005607
2991,-0.001113,-0.01211,0.005607
2992,0.017426,0.005964,0.023687
2993,-0.001113,0.005964,0.005607
2994,0.017426,0.024037,0.005607
2995,-0.001113,0.005964,0.023687
2996,-0.001113,0.024037,0.005607
2997,-0.019652,0.005964,0.005607
2998,0.017426,-0.01211,-0.012473
2999,-0.019652,0.005964,0.005607
3000,-0.019652,-0.01211,-0.012473
3001,0.017426,-0.01211,-0.012473
3002,0.017426,0.005964,-0.012473
3003,-0.001113,0.04211,-0.012473
3004,-0.001113,-0.01211,-0.012473
3005,0.017426,-0.01211,-0.012473
3006,-0.001113,0.005964,0.023687
3007,0.017426,0.024037,0.041767
3008,-0.019652,0.005964,0.005607
3009,-0.019652,0.005964,0.041767
3010,-0.001113,0.005964,0.005607
3011,-0.019652,0.005964,0.005607
3012,-0.019652,0.024037,0.023687
3013,-0.001113,0.005964,0.023687
3014,-0.001113,0.005964,0.005607
3015,-0.001113,0.005964,-0.012473
3016,-0.001113,0.005964,-0.012473
3017,-0.019652,0.005964,0.005607
3018,0.035965,-0.01211,-0.012473
3019,-0.001113,-0.01211,-0.012473
3020,-0.001113,-0.01211,0.005607
3021,-0.001113,-0.01211,-0.012473
3022,-0.001113,0.005964,-0.012473
3023,-0.001113,0.024037,0.023687
3024,-0.019652,0.005964,-0.012473
3025,-0.019652,0.024037,0.005607
3026,-0.001113,0.005964,0.023687
3027,0.017426,0.024037,0.023687
3028,-0.001113,0.005964,0.023687
3029,0.017426,0.005964,-0.012473
3030,-0.019652,0.005964,0.023687
3031,-0.001113,0.005964,0.005607
3032,-0.019652,-0.01211,-0.012473
3033,0.017426,0.005964,-0.012473
3034,-0.001113,0.005964,0.023687
3035,-0.001113,0.005964,-0.030552
3036,-0.019652,0.005964,-0.030552
3037,-0.001113,-0.01211,-0.012473
3038,-0.001113,0.005964,0.005607
3039,0.017426,0.005964,-0.030552
3040,-0.001113,0.024037,0.005607
3041,-0.001113,0.005964,0.005607
3042,-0.019652,-0.01211,0.023687
3043,-0.001113,-0.01211,0.005607
3044,-0.001113,0.005964,0.023687
3045,-0.019652,0.005964,0.041767
3046,-0.019652,-0.01211,0.005607
3047,-0.001113,0.005964,0.023687
3048,-0.001113,0.005964,0.041767
3049,-0.001113,0.005964,-0.012473
3050,-0.001113,0.005964,-0.012473
3051,-0.019652,0.005964,-0.030552
3052,-0.001113,-0.01211,0.005607
3053,-0.001113,0.005964,-0.012473
3054,-0.001113,0.005964,-0.012473
3055,-0.019652,0.024037,0.005607
3056,-0.001113,0.024037,-0.012473
3057,-0.038191,-0.030183,-0.012473
3058,-0.019652,0.005964,-0.012473
3059,-0.019652,0.005964,0.005607
3060,-0.001113,0.005964,0.041767
3061,-0.001113,0.005964,-0.012473
3062,-0.001113,-0.01211,0.041767
3063,-0.001113,-0.01211,0.023687
3064,0.035965,0.005964,0.005607
3065,-0.001113,-0.01211,0.041767
3066,-0.019652,0.005964,0.005607
3067,-0.038191,0.005964,-0.012473
3068,-0.001113,0.005964,-0.012473
3069,0.017426,0.005964,0.005607
3070,-0.019652,-0.01211,-0.012473
3071,-0.001113,0.005964,-0.012473
3072,-0.001113,0.005964,0.005607
3073,-0.001113,0.005964,0.005607
3074,-0.001113,0.024037,-0.048632
3075,0.017426,0.005964,-0.012473
3076,-0.001113,0.005964,0.023687
3077,0.017426,0.005964,0.023687
3078,0.017426,0.005964,-0.012473
3079,-0.019652,0.005964,0.005607
3080,-0.001113,0.005964,0.041767
3081,0.017426,0.005964,0.005607
3082,-0.001113,0.005964,0.005607
3083,-0.001113,0.024037,0.023687
3084,-0.001113,0.024037,-0.012473
3085,-0.001113,0.005964,0.005607
3086,-0.001113,0.005964,-0.030552
3087,0.017426,-0.01211,0.005607
3088,0.017426,0.005964,-0.012473
3089,-0.001113,0.005964,-0.030552
3090,0.035965,0.024037,-0.012473
3091,-0.019652,0.005964,-0.012473
3092,-0.001113,0.005964,-0.012473
3093,-0.019652,0.005964,0.005607
3094,-0.019652,-0.01211,0.023687
3095,-0.019652,0.005964,0.023687
3096,-0.001113,0.005964,0.023687
3097,-0.001113,0.005964,0.041767
3098,-0.001113,0.005964,0.005607
3099,-0.019652,0.005964,0.005607
3100,-0.001113,0.005964,0.041767
3101,-0.001113,0.024037,0.023687
3102,-0.001113,0.005964,-0.012473
3103,-0.001113,0.024037,-0.030552
3104,-0.001113,-0.01211,-0.012473
3105,-0.019652,0.005964,-0.012473
3106,-0.001113,0.005964,-0.030552
3107,-0.001113,0.005964,-0.012473
3108,-0.001113,-0.01211,0.005607
3109,-0.019652,0.024037,-0.012473
3110,0.017426,0.024037,0.023687
3111,-0.019652,-0.01211,0.023687
3112,0.017426,-0.01211,0.023687
3113,-0.001113,0.024037,0.005607
3114,-0.001113,-0.01211,0.005607
3115,0.017426,0.005964,0.023687
3116,-0.019652,0.024037,0.005607
3117,0.017426,-0.01211,-0.012473
3118,-0.001113,0.005964,0.023687
3119,-0.001113,0.005964,0.005607
3120,-0.001113,0.005964,-0.030552
3121,-0.019652,-0.01211,-0.012473
3122,-0.001113,0.005964,-0.012473
3123,-0.001113,0.005964,-0.012473
3124,-0.001113,0.005964,-0.030552
3125,-0.001113,0.005964,-0.012473
3126,-0.019652,0.024037,-0.012473
3127,-0.001113,0.005964,-0.012473
3128,-0.019652,0.005964,0.005607
3129,-0.001113,0.024037,0.005607
3130,-0.001113,0.005964,0.023687
3131,-0.019652,0.04211,0.023687
3132,-0.001113,0.005964,0.005607
3133,-0.019652,-0.01211,0.023687
3134,0.017426,0.005964,0.005607
3135,-0.001113,0.005964,0.023687
3136,-0.001113,0.005964,0.023687
3137,-0.001113,0.005964,-0.012473
3138,-0.001113,-0.01211,-0.030552
3139,0.017426,0.005964,-0.048632
3140,-0.001113,0.005964,-0.030552
3141,-0.001113,0.005964,-0.012473
3142,-0.001113,0.005964,-0.012473
3143,0.017426,0.005964,-0.012473
3144,-0.001113,0.005964,-0.012473
3145,-0.001113,0.005964,-0.012473
3146,0.017426,0.024037,0.023687
3147,-0.001113,0.005964,0.023687
3148,-0.001113,0.005964,0.005607
3149,-0.019652,0.024037,0.023687
3150,-0.019652,0.005964,0.023687
3151,-0.001113,-0.01211,0.005607
3152,-0.001113,0.005964,-0.012473
3153,0.017426,0.005964,0.005607
3154,0.017426,0.005964,0.005607
3155,-0.001113,0.005964,-0.012473
3156,-0.038191,0.005964,-0.012473
3157,-0.001113,0.005964,-0.012473
3158,-0.001113,0.005964,-0.012473
3159,0.017426,0.005964,0.005607
3160,-0.038191,0.005964,-0.012473
3161,-0.001113,0.005964,0.005607
3162,-0.001113,0.005964,-0.012473
3163,-0.001113,0.005964,0.005607
3164,0.017426,0.005964,0.023687
3165,-0.001113,0.005964,0.041767
3166,-0.019652,0.005964,0.005607
3167,0.017426,0.005964,0.023687
3168,-0.001113,0.005964,0.005607
3169,-0.001113,0.005964,0.005607
3170,-0.001113,0.005964,0.005607
3171,0.035965,0.005964,0.023687
3172,-0.001113,0.005964,0.005607
3173,-0.019652,0.005964,-0.012473
3174,-0.019652,-0.01211,-0.012473
3175,-0.001113,-0.01211,-0.012473
3176,-0.001113,0.005964,-0.030552
3177,-0.001113,0.005964,-0.012473
3178,0.017426,0.024037,0.005607
3179,-0.019652,0.005964,-0.012473
3180,-0.001113,0.005964,-0.030552
3181,-0.001113,0.024037,0.005607
3182,-0.001113,-0.01211,0.023687
3183,-0.019652,-0.01211,0.041767
3184,-0.019652,0.005964,0.005607
3185,-0.001113,0.005964,0.005607
3186,-0.001113,0.005964,0.005607
3187,-0.001113,0.005964,0.005607
3188,-0.001113,0.005964,0.005607
3189,-0.019652,0.024037,0.023687
3190,-0.001113,0.005964,0.005607
3191,-0.001113,0.005964,0.005607
3192,0.017426,0.005964,0.005607
3193,-0.001113,0.005964,-0.012473
3194,-0.001113,0.005964,-0.012473
3195,-0.001113,0.005964,-0.012473
3196,-0.019652,-0.01211,0.005607
3197,-0.001113,0.005964,-0.012473
3198,-0.019652,-0.01211,-0.012473
3199,-0.019652,-0.01211,0.005607
3200,-0.001113,-0.01211,0.023687
3201,-0.001113,-0.01211,-0.012473
3202,-0.019652,-0.01211,0.005607
3203,-0.001113,-0.01211,0.005607
3204,-0.001113,0.005964,0.005607
3205,0.017426,0.005964,0.005607
3206,-0.001113,0.005964,0.005607
3207,0.017426,-0.01211,0.005607
3208,-0.001113,0.024037,0.005607
3209,-0.001113,0.024037,-0.012473
3210,-0.001113,0.005964,0.005607
3211,0.017426,0.005964,-0.012473
3212,-0.001113,0.005964,-0.030552
3213,-0.001113,0.005964,-0.012473
3214,0.017426,0.024037,-0.030552
3215,-0.019652,0.005964,-0.030552
3216,-0.019652,-0.01211,0.005607
3217,-0.001113,0.005964,0.023687
3218,-0.001113,0.005964,0.023687
3219,-0.001113,0.005964,0.005607
3220,-0.001113,0.005964,0.005607
3221,-0.001113,-0.01211,0.023687
3222,-0.019652,-0.01211,0.005607
3223,-0.001113,-0.01211,0.005607
3224,-0.001113,-0.01211,0.023687
3225,-0.019652,0.005964,0.005607
3226,-0.001113,0.005964,-0.012473
3227,-0.001113,0.024037,0.005607
3228,0.017426,0.005964,0.005607
3229,-0.001113,0.005964,0.005607
3230,-0.001113,0.005964,-0.012473
3231,-0.001113,0.005964,0.023687
3232,0.017426,0.005964,-0.012473
3233,-0.001113,0.005964,-0.030552
3234,-0.001113,0.005964,-0.012473
3235,-0.001113,0.005964,0.023687
3236,-0.019652,0.005964,-0.012473
3237,-0.001113,-0.01211,-0.012473
3238,-0.001113,0.005964,-0.012473
3239,-0.001113,0.005964,0.023687
3240,-0.001113,0.005964,-0.012473
3241,-0.019652,0.005964,0.023687
3242,-0.001113,0.005964,0.005607
3243,-0.001113,0.005964,0.023687
3244,-0.001113,-0.048257,-0.012473
3245,0.017426,0.005964,0.023687
3246,-0.001113,0.005964,0.005607
3247,-0.001113,-0.01211,0.005607
3248,-0.001113,0.005964,-0.012473
3249,-0.001113,0.005964,0.005607
3250,-0.019652,0.005964,-0.012473
3251,-0.001113,0.005964,-0.030552
3252,0.091583,0.005964,-0.012473
3253,-0.001113,0.005964,0.023687
3254,-0.001113,0.005964,-0.030552
3255,-0.001113,0.005964,0.023687
3256,0.035965,-0.01211,0.005607
3257,-0.019652,0.024037,0.023687
3258,-0.019652,0.005964,0.005607
3259,-0.001113,0.005964,0.023687
3260,0.035965,0.005964,0.005607
3261,-0.001113,0.005964,-0.012473
3262,0.017426,0.024037,-0.012473
3263,0.017426,0.005964,0.005607
3264,0.017426,0.04211,-0.012473
3265,-0.038191,0.005964,-0.012473
3266,-0.038191,0.005964,0.005607
3267,-0.001113,0.005964,-0.012473
3268,0.017426,0.005964,-0.030552
3269,-0.001113,-0.01211,0.005607
3270,-0.001113,0.005964,-0.012473
3271,-0.001113,0.005964,0.005607
3272,-0.019652,-0.01211,-0.012473
3273,-0.001113,0.005964,0.005607
3274,-0.001113,0.005964,0.023687
3275,0.017426,0.005964,0.023687
3276,-0.001113,0.005964,0.005607
3277,-0.001113,0.005964,0.041767
3278,-0.038191,0.005964,0.023687
3279,-0.001113,0.005964,-0.012473
3280,0.017426,-0.01211,0.023687
3281,-0.019652,0.005964,0.023687
3282,-0.001113,0.005964,-0.012473
3283,-0.019652,0.005964,-0.012473
3284,-0.001113,0.005964,-0.012473
3285,0.017426,0.005964,-0.012473
3286,-0.019652,0.005964,-0.030552
3287,-0.001113,0.005964,0.005607
3288,-0.038191,0.005964,0.005607
3289,-0.001113,0.024037,-0.012473
3290,0.017426,0.005964,-0.012473
3291,0.017426,-0.01211,0.023687
3292,-0.001113,0.005964,0.023687
3293,-0.001113,-0.01211,0.005607
3294,-0.001113,0.005964,0.041767
3295,-0.001113,0.005964,0.023687
3296,-0.038191,0.024037,0.005607
3297,-0.019652,0.005964,-0.012473
3298,-0.038191,0.005964,0.023687
3299,0.017426,0.005964,0.005607
3300,0.017426,0.024037,-0.012473
3301,-0.001113,0.005964,-0.012473
3302,0.017426,0.005964,-0.012473
3303,-0.001113,0.005964,-0.030552
3304,-0.001113,0.005964,-0.012473
3305,-0.019652,0.005964,0.005607
3306,-0.001113,0.005964,0.023687
3307,0.017426,-0.01211,0.005607
3308,-0.001113,0.04211,0.005607
3309,-0.001113,0.005964,0.005607
3310,-0.001113,0.024037,0.023687
3311,-0.019652,0.005964,0.005607
3312,-0.001113,-0.01211,0.023687
3313,-0.019652,0.024037,0.023687
3314,-0.001113,0.005964,0.005607
3315,-0.001113,0.005964,-0.012473
3316,-0.001113,0.005964,0.023687
3317,0.017426,-0.01211,-0.012473
3318,-0.001113,-0.01211,-0.030552
3319,-0.001113,0.005964,0.005607
3320,-0.001113,0.005964,-0.012473
3321,-0.001113,0.005964,-0.030552
3322,0.017426,0.024037,-0.012473
3323,0.017426,0.024037,0.005607
3324,-0.001113,0.024037,-0.030552
3325,0.017426,0.005964,-0.012473
3326,-0.001113,-0.01211,0.005607
3327,-0.001113,0.005964,0.041767
3328,-0.001113,0.024037,-0.012473
3329,0.017426,0.005964,0.005607
3330,-0.001113,0.005964,0.041767
3331,0.017426,0.024037,0.005607
3332,-0.001113,0.024037,-0.012473
3333,-0.001113,-0.01211,0.023687
3334,-0.001113,-0.01211,0.005607
3335,-0.001113,0.005964,0.005607
3336,-0.001113,0.005964,-0.030552
3337,-0.019652,0.024037,0.005607
3338,0.017426,0.005964,-0.012473
3339,0.017426,0.005964,-0.030552
3340,-0.001113,0.005964,0.005607
3341,-0.001113,0.024037,0.023687
3342,-0.001113,-0.01211,0.005607
3343,-0.001113,0.005964,-0.012473
3344,-0.001113,0.024037,0.005607
3345,-0.001113,0.005964,0.005607
3346,-0.019652,-0.01211,0.023687
3347,-0.001113,0.005964,0.023687
3348,-0.001113,0.005964,0.041767
3349,-0.019652,0.024037,0.023687
3350,-0.001113,0.005964,-0.012473
3351,-0.001113,0.005964,-0.012473
3352,-0.019652,0.005964,-0.012473
3353,-0.019652,0.005964,-0.012473
3354,-0.001113,0.005964,-0.030552
3355,-0.001113,0.005964,-0.012473
3356,-0.019652,-0.01211,-0.030552
3357,-0.001113,0.005964,-0.012473
3358,0.035965,0.005964,0.023687
3359,-0.001113,0.005964,0.023687
3360,-0.001113,0.005964,0.005607
3361,-0.001113,0.005964,0.023687
3362,-0.001113,0.005964,0.023687
3363,-0.001113,0.024037,0.005607
3364,-0.001113,0.005964,0.023687
3365,0.017426,0.005964,0.041767
3366,-0.001113,0.005964,0.005607
3367,0.017426,-0.01211,0.005607
3368,-0.001113,0.005964,0.023687
3369,-0.001113,-0.01211,0.005607
3370,-0.001113,0.005964,-0.030552
3371,-0.001113,0.005964,-0.030552
3372,-0.038191,0.005964,0.005607
3373,-0.001113,-0.01211,-0.012473
3374,-0.001113,0.024037,-0.030552
3375,-0.001113,0.005964,0.005607
3376,-0.001113,0.024037,0.023687
3377,0.017426,0.005964,-0.012473
3378,-0.001113,0.005964,0.005607
3379,-0.001113,0.005964,0.041767
3380,-0.001113,-0.01211,0.041767
3381,-0.001113,0.005964,0.005607
3382,-0.001113,0.005964,0.005607
3383,0.017426,-0.01211,0.005607
3384,0.017426,0.005964,-0.012473
3385,-0.001113,0.005964,-0.012473
3386,-0.001113,0.005964,0.005607
3387,-0.001113,0.005964,0.005607
3388,-0.019652,-0.01211,-0.012473
3389,-0.019652,-0.01211,-0.030552
3390,-0.001113,0.005964,-0.012473
3391,-0.001113,0.024037,0.005607
3392,-0.019652,0.005964,-0.030552
3393,-0.019652,0.005964,-0.012473
3394,-0.001113,0.005964,0.023687
3395,0.017426,0.005964,0.005607
3396,-0.001113,0.005964,0.023687
3397,-0.001113,0.005964,0.041767
3398,-0.001113,0.005964,0.023687
3399,-0.019652,0.005964,0.005607
3400,-0.001113,0.005964,0.041767
3401,-0.001113,0.005964,0.005607
3402,-0.001113,0.005964,0.005607
3403,0.017426,0.005964,-0.012473
3404,0.017426,0.005964,-0.012473
3405,-0.001113,0.005964,-0.012473
3406,0.017426,0.005964,-0.012473
3407,-0.001113,0.005964,-0.012473
3408,0.017426,0.024037,-0.012473
3409,0.017426,0.024037,-0.012473
3410,-0.019652,0.005964,-0.012473
3411,-0.038191,-0.048257,0.023687
3412,-0.001113,0.005964,-0.030552
3413,0.017426,-0.01211,0.005607
3414,-0.019652,0.005964,0.005607
3415,-0.019652,0.024037,0.023687
3416,-0.001113,0.005964,0.005607
3417,-0.001113,0.005964,0.005607
3418,0.017426,0.005964,0.023687
3419,-0.001113,0.024037,0.005607
3420,-0.019652,0.024037,-0.012473
3421,0.017426,0.005964,0.023687
3422,-0.001113,-0.01211,0.005607
3423,-0.001113,0.005964,-0.012473
3424,-0.001113,-0.01211,-0.030552
3425,-0.001113,0.024037,-0.012473
3426,-0.019652,0.005964,0.005607
3427,-0.019652,-0.01211,-0.030552
3428,-0.001113,0.024037,0.023687
3429,-0.001113,0.005964,0.023687
3430,-0.001113,0.005964,-0.012473
3431,-0.001113,0.005964,-0.012473
3432,0.017426,-0.01211,0.005607
3433,-0.019652,0.005964,0.023687
3434,-0.019652,0.005964,-0.012473
3435,-0.001113,0.005964,0.005607
3436,-0.001113,0.005964,0.023687
3437,-0.019652,-0.030183,-0.012473
3438,-0.001113,0.005964,-0.012473
3439,-0.001113,0.005964,0.023687
3440,-0.001113,-0.01211,0.005607
3441,-0.001113,-0.01211,-0.012473
3442,-0.001113,0.005964,-0.012473
3443,-0.019652,0.005964,-0.012473
3444,-0.001113,0.005964,-0.030552
3445,-0.001113,0.005964,0.005607
3446,-0.001113,-0.01211,0.005607
3447,-0.019652,0.005964,0.005607
3448,0.017426,0.024037,0.005607
3449,-0.001113,0.005964,0.023687
3450,-0.001113,0.005964,0.041767
3451,-0.001113,0.024037,0.005607
3452,0.017426,-0.01211,0.005607
3453,-0.001113,-0.01211,0.005607
3454,0.017426,0.005964,0.005607
3455,-0.001113,0.005964,0.005607
3456,-0.019652,0.005964,0.023687
3457,-0.001113,-0.01211,-0.012473
3458,-0.001113,0.024037,-0.012473
3459,-0.001113,0.005964,-0.030552
3460,-0.019652,0.005964,-0.012473
3461,-0.001113,-0.01211,-0.012473
3462,-0.001113,0.005964,-0.048632
3463,-0.001113,0.005964,0.023687
3464,-0.019652,0.005964,0.023687
3465,-0.001113,0.005964,-0.030552
3466,-0.001113,-0.01211,0.005607
3467,-0.001113,0.005964,0.023687
3468,0.017426,0.005964,0.023687
3469,-0.038191,-0.01211,0.005607
3470,-0.001113,0.005964,-0.012473
3471,-0.001113,0.005964,0.023687
3472,-0.001113,-0.01211,-0.012473
3473,-0.019652,0.005964,0.005607
3474,-0.001113,0.024037,0.023687
3475,-0.001113,-0.01211,-0.012473
3476,0.017426,0.005964,-0.012473
3477,-0.038191,0.024037,-0.030552
3478,0.017426,0.005964,0.005607
3479,-0.001113,0.005964,-0.012473
3480,-0.001113,0.005964,-0.030552
3481,-0.019652,-0.01211,0.023687
3482,-0.019652,0.005964,0.005607
3483,0.017426,0.005964,-0.012473
3484,-0.001113,0.005964,0.023687
3485,-0.001113,-0.01211,0.023687
3486,-0.038191,0.005964,0.023687
3487,-0.001113,0.024037,0.005607
3488,-0.019652,0.024037,0.023687
3489,-0.001113,0.024037,0.005607
3490,-0.019652,-0.01211,-0.012473
3491,-0.001113,0.005964,-0.012473
3492,-0.019652,0.024037,0.023687
3493,0.017426,0.005964,0.005607
3494,0.017426,0.005964,-0.012473
3495,0.017426,0.005964,-0.030552
3496,-0.001113,0.005964,-0.012473
3497,-0.001113,-0.01211,-0.012473
3498,-0.001113,0.005964,-0.012473
3499,-0.001113,0.005964,0.005607
3500,-0.019652,0.005964,-0.012473
3501,-0.001113,-0.01211,-0.012473
3502,-0.001113,0.005964,0.005607
3503,-0.001113,0.024037,0.023687
3504,-0.019652,0.005964,0.023687
3505,0.017426,0.005964,0.023687
3506,0.017426,0.005964,0.023687
3507,-0.001113,0.005964,0.023687
3508,-0.019652,-0.030183,0.005607
3509,-0.001113,-0.01211,0.023687
3510,-0.07527,0.005964,0.005607
3511,-0.001113,0.024037,0.005607
3512,0.017426,0.005964,-0.012473
3513,-0.001113,0.005964,0.005607
3514,-0.001113,0.024037,0.005607
3515,-0.001113,0.024037,-0.012473
3516,-0.001113,0.005964,-0.012473
3517,-0.019652,0.005964,0.005607
3518,0.017426,-0.01211,-0.012473
3519,-0.001113,-0.01211,-0.012473
3520,-0.001113,0.005964,0.005607
3521,-0.001113,0.04211,0.023687
3522,-0.001113,0.005964,-0.012473
3523,-0.019652,-0.01211,0.005607
3524,0.017426,-0.01211,0.005607
3525,-0.001113,0.005964,0.005607
3526,0.017426,-0.01211,0.005607
3527,-0.019652,0.005964,0.023687
3528,-0.001113,-0.01211,0.023687
3529,-0.001113,-0.01211,-0.012473
3530,-0.001113,0.005964,-0.030552
3531,0.017426,-0.01211,-0.012473
3532,-0.001113,0.024037,-0.012473
3533,0.017426,0.005964,-0.030552
3534,-0.001113,0.005964,0.005607
3535,-0.001113,0.005964,0.005607
3536,-0.019652,-0.030183,-0.048632
3537,0.017426,0.024037,0.005607
3538,-0.019652,0.005964,0.005607
3539,-0.001113,0.005964,0.041767
3540,-0.019652,0.04211,0.005607
3541,-0.019652,0.024037,0.023687
3542,-0.001113,-0.01211,0.041767
3543,-0.001113,0.024037,0.023687
3544,0.017426,0.005964,0.041767
3545,0.017426,0.024037,0.023687
3546,-0.001113,0.024037,-0.012473
3547,0.017426,0.024037,-0.012473
3548,-0.001113,0.005964,-0.012473
3549,-0.001113,0.024037,0.005607
3550,-0.001113,0.005964,-0.012473
3551,-0.001113,0.005964,-0.030552
3552,-0.001113,-0.01211,-0.012473
3553,-0.001113,0.005964,-0.048632
3554,-0.001113,0.005964,-0.048632
3555,-0.001113,0.005964,0.005607
3556,-0.001113,0.005964,0.023687
3557,-0.001113,0.005964,0.023687
3558,0.017426,0.005964,0.005607
3559,-0.019652,-0.01211,0.041767
3560,-0.001113,0.024037,0.005607
3561,-0.05673,0.005964,0.005607
3562,0.017426,0.024037,0.023687
3563,-0.001113,0.005964,0.005607
3564,-0.001113,0.005964,-0.012473
3565,-0.001113,0.005964,-0.030552
3566,-0.001113,0.005964,-0.030552
3567,-0.001113,0.005964,0.005607
3568,-0.001113,0.024037,0.005607
3569,-0.001113,-0.01211,0.005607
3570,-0.001113,0.005964,0.023687
3571,-0.019652,0.024037,-0.030552
3572,-0.001113,0.005964,-0.012473
3573,-0.019652,0.024037,0.005607
3574,-0.001113,0.005964,0.023687
3575,0.017426,0.005964,-0.012473
3576,0.017426,0.005964,0.005607
3577,-0.001113,0.005964,0.023687
3578,0.017426,0.005964,0.023687
3579,0.017426,0.005964,-0.012473
3580,-0.001113,0.024037,0.041767
3581,-0.001113,-0.01211,0.005607
3582,-0.001113,-0.01211,-0.012473
3583,-0.001113,0.005964,-0.012473
3584,-0.038191,-0.030183,-0.012473
3585,-0.001113,0.005964,-0.012473
3586,0.017426,0.005964,-0.030552
3587,0.017426,0.005964,0.005607
3588,-0.019652,-0.01211,0.005607
3589,-0.001113,0.005964,-0.012473
3590,-0.001113,0.005964,0.005607
3591,-0.019652,0.005964,0.023687
3592,-0.038191,0.005964,0.005607
3593,-0.001113,0.024037,0.023687
3594,-0.001113,0.005964,0.023687
3595,-0.001113,0.005964,0.005607
3596,0.017426,0.024037,0.005607
3597,0.035965,-0.01211,0.041767
3598,-0.001113,0.005964,0.005607
3599,-0.019652,0.005964,-0.012473
3600,-0.001113,0.005964,-0.030552
3601,-0.019652,0.024037,0.005607
3602,-0.001113,0.005964,-0.012473
3603,-0.001113,-0.01211,-0.030552
3604,-0.001113,0.005964,-0.012473
3605,0.017426,-0.01211,0.005607
3606,-0.001113,0.005964,-0.048632
3607,-0.038191,0.005964,-0.012473
3608,0.035965,0.024037,0.023687
3609,0.017426,0.005964,0.023687
3610,-0.001113,-0.01211,0.005607
3611,-0.001113,0.024037,0.023687
3612,-0.001113,0.005964,0.041767
3613,-0.001113,0.005964,0.023687
3614,0.017426,0.024037,-0.012473
3615,-0.019652,0.005964,0.023687
3616,-0.001113,0.005964,0.005607
3617,-0.001113,-0.01211,-0.030552
3618,-0.001113,0.024037,-0.030552
3619,-0.001113,0.005964,0.005607
3620,0.017426,0.024037,-0.012473
3621,0.017426,0.005964,-0.012473
3622,-0.001113,0.005964,0.005607
3623,-0.001113,0.005964,0.023687
3624,-0.001113,0.024037,0.005607
3625,-0.019652,0.024037,0.023687
3626,-0.001113,0.005964,0.041767
3627,0.017426,0.005964,0.023687
3628,-0.001113,0.005964,0.023687
3629,-0.001113,0.024037,0.005607
3630,-0.001113,0.024037,0.005607
3631,-0.001113,0.005964,-0.012473
3632,0.017426,0.005964,-0.012473
3633,-0.001113,0.005964,0.005607
3634,-0.001113,0.005964,-0.030552
3635,-0.001113,0.005964,-0.030552
3636,0.017426,0.005964,-0.012473
3637,0.017426,0.005964,-0.012473
3638,-0.001113,-0.01211,-0.030552
