# Requested Sampling Rate (Hz):,1000
# Actual Sampling Rate (Hz):,999.729
# Requested Duration (s):,5.0
# Actual Duration (s):,5.048
# REST Calibration:,832.0600347222207,831.6700347222207,832.6898611111126
# MAX Calibration:,886.0000,887.0000,888.0000
# Normalization: MVC-based  (x_norm = (x - REST) / (MAX - REST))
sample_idx,EMG1,EMG2,EMG3
0,-0.001113,0.024037,0.023687
1,-0.001113,0.005964,0.023687
2,-0.001113,0.005964,0.023687
3,-0.019652,-0.01211,0.005607
4,-0.001113,-0.01211,-0.030552
5,-0.001113,0.024037,0.023687
6,-0.001113,0.005964,0.005607
7,-0.019652,-0.01211,0.005607
8,-0.001113,0.024037,-0.030552
9,-0.019652,0.005964,-0.012473
10,-0.001113,0.005964,-0.012473
11,0.017426,0.005964,-0.030552
12,-0.019652,0.024037,0.005607
13,-0.001113,0.005964,0.023687
14,-0.001113,-0.01211,-0.012473
15,-0.019652,-0.01211,0.005607
16,-0.001113,0.024037,0.023687
17,-0.001113,0.024037,0.023687
18,-0.001113,0.024037,0.023687
19,-0.001113,0.024037,0.023687
20,-0.001113,0.005964,0.023687
21,0.017426,0.005964,-0.012473
22,-0.019652,0.005964,-0.012473
23,-0.001113,0.005964,0.005607
24,-0.001113,0.024037,-0.012473
25,-0.019652,0.005964,-0.012473
26,-0.001113,-0.01211,-0.048632
27,-0.001113,-0.01211,-0.012473
28,-0.001113,-0.01211,-0.030552
29,0.017426,0.005964,-0.012473
30,-0.001113,0.005964,0.023687
31,-0.001113,-0.01211,0.023687
32,-0.001113,-0.030183,0.005607
33,-0.001113,-0.01211,0.023687
34,-0.019652,0.005964,0.023687
35,-0.019652,-0.01211,0.005607
36,-0.019652,0.005964,0.023687
37,-0.001113,0.005964,0.023687
38,-0.001113,-0.01211,0.005607
39,-0.001113,-0.01211,0.005607
40,-0.001113,0.005964,0.023687
41,-0.001113,0.005964,0.005607
42,-0.001113,0.024037,-0.012473
43,-0.019652,-0.01211,-0.012473
44,-0.001113,-0.01211,-0.030552
45,-0.019652,-0.01211,-0.012473
46,-0.001113,0.005964,-0.030552
47,-0.019652,0.024037,-0.012473
48,-0.001113,0.024037,0.005607
49,-0.001113,0.005964,-0.048632
50,0.017426,0.005964,0.023687
51,-0.019652,0.005964,0.005607
52,0.017426,0.005964,0.023687
53,-0.001113,0.005964,0.023687
54,-0.001113,0.024037,0.023687
55,-0.001113,0.005964,0.041767
56,-0.001113,0.005964,0.005607
57,-0.001113,-0.01211,-0.012473
58,-0.019652,0.005964,0.005607
59,-0.001113,0.005964,-0.012473
60,-0.001113,0.005964,0.005607
61,-0.019652,0.005964,-0.030552
62,-0.019652,0.005964,-0.012473
63,-0.001113,0.005964,-0.012473
64,-0.001113,0.005964,-0.012473
65,-0.001113,0.005964,0.005607
66,-0.001113,0.005964,-0.012473
67,-0.019652,0.024037,-0.012473
68,-0.019652,0.005964,0.005607
69,-0.019652,0.005964,0.023687
70,-0.001113,0.005964,0.023687
71,0.017426,0.005964,0.005607
72,-0.001113,0.024037,0.023687
73,-0.001113,0.024037,-0.012473
74,-0.038191,0.024037,0.005607
75,-0.001113,0.005964,0.023687
76,-0.019652,0.005964,0.005607
77,-0.019652,-0.01211,-0.012473
78,-0.001113,0.005964,0.005607
79,-0.001113,0.024037,-0.030552
80,-0.019652,-0.01211,-0.012473
81,-0.001113,-0.01211,-0.030552
82,-0.001113,-0.01211,-0.012473
83,0.017426,-0.01211,0.005607
84,0.017426,0.005964,-0.030552
85,0.017426,-0.01211,0.005607
86,-0.019652,0.024037,0.005607
87,-0.001113,0.005964,0.023687
88,-0.019652,0.024037,0.023687
89,-0.001113,0.005964,0.005607
90,-0.001113,0.024037,0.023687
91,-0.001113,-0.01211,0.005607
92,-0.001113,-0.01211,-0.012473
93,0.017426,-0.01211,0.023687
94,-0.001113,0.024037,0.005607
95,-0.019652,0.005964,-0.012473
96,-0.019652,0.005964,-0.030552
97,-0.001113,0.024037,0.005607
98,0.017426,0.005964,-0.012473
99,0.017426,0.005964,-0.012473
100,0.017426,0.005964,0.005607
101,-0.001113,0.005964,0.023687
102,-0.001113,-0.048257,-0.012473
103,-0.001113,0.005964,0.005607
104,-0.001113,0.005964,0.041767
105,-0.019652,-0.01211,0.023687
106,-0.001113,-0.01211,-0.012473
107,-0.001113,0.005964,0.023687
108,0.017426,0.005964,0.005607
109,-0.019652,0.005964,0.005607
110,-0.019652,-0.030183,0.041767
111,-0.019652,0.005964,-0.012473
112,-0.001113,0.005964,0.005607
113,0.017426,0.024037,-0.012473
114,-0.001113,0.005964,0.005607
115,-0.001113,0.005964,-0.012473
116,-0.001113,-0.01211,-0.012473
117,-0.001113,-0.030183,-0.012473
118,-0.019652,0.005964,0.005607
119,0.017426,0.024037,-0.030552
120,-0.019652,0.005964,0.023687
121,-0.001113,0.005964,0.005607
122,-0.019652,-0.01211,0.023687
123,-0.019652,-0.01211,-0.012473
124,-0.019652,-0.01211,-0.012473
125,-0.001113,-0.01211,0.023687
126,-0.019652,0.005964,0.005607
127,-0.001113,0.005964,0.005607
128,0.035965,0.005964,0.023687
129,-0.001113,0.005964,0.005607
130,-0.001113,0.005964,-0.012473
131,-0.019652,0.005964,-0.012473
132,-0.019652,0.024037,0.005607
133,0.017426,0.024037,0.005607
134,0.017426,0.005964,-0.012473
135,-0.038191,0.005964,0.023687
136,-0.001113,0.005964,0.005607
137,-0.001113,0.005964,-0.012473
138,-0.001113,0.005964,0.005607
139,-0.019652,-0.01211,0.023687
140,-0.019652,0.005964,0.005607
141,-0.019652,0.024037,0.023687
142,0.017426,0.024037,0.023687
143,-0.019652,0.005964,0.023687
144,0.017426,0.005964,0.005607
145,-0.038191,0.024037,-0.012473
146,-0.001113,0.005964,0.005607
147,-0.019652,0.024037,-0.012473
148,-0.001113,0.005964,-0.030552
149,-0.001113,0.005964,0.005607
150,0.017426,0.005964,0.005607
151,-0.001113,0.005964,-0.012473
152,-0.019652,0.005964,-0.012473
153,-0.001113,0.005964,0.023687
154,-0.001113,0.005964,-0.012473
155,-0.001113,0.005964,0.005607
156,-0.001113,0.005964,0.005607
157,-0.001113,0.005964,0.023687
158,-0.001113,0.005964,-0.012473
159,-0.001113,-0.01211,0.005607
160,-0.001113,0.005964,0.023687
161,-0.001113,0.005964,0.005607
162,-0.019652,0.005964,0.005607
163,-0.019652,0.024037,0.005607
164,-0.019652,0.005964,-0.012473
165,-0.001113,0.005964,0.005607
166,-0.019652,-0.01211,-0.012473
167,-0.001113,-0.01211,0.005607
168,-0.019652,-0.01211,-0.012473
169,-0.019652,-0.01211,-0.030552
170,-0.001113,0.005964,-0.012473
171,-0.001113,0.005964,0.023687
172,0.017426,0.024037,-0.012473
173,-0.001113,-0.01211,0.005607
174,-0.038191,0.005964,-0.012473
175,-0.001113,0.024037,0.023687
176,-0.001113,0.005964,0.005607
177,-0.001113,-0.01211,0.005607
178,-0.001113,0.005964,0.023687
179,0.017426,0.005964,0.005607
180,-0.001113,-0.01211,0.005607
181,-0.001113,0.005964,0.005607
182,0.017426,0.024037,-0.012473
183,-0.019652,0.005964,-0.012473
184,-0.001113,-0.030183,-0.030552
185,-0.001113,0.005964,-0.012473
186,-0.001113,0.005964,-0.012473
187,-0.001113,0.005964,-0.012473
188,-0.001113,0.005964,0.005607
189,-0.001113,0.005964,0.023687
190,-0.001113,0.024037,-0.012473
191,-0.019652,-0.01211,0.005607
192,0.017426,0.005964,0.005607
193,-0.001113,-0.01211,0.023687
194,-0.001113,0.024037,0.005607
195,-0.019652,0.005964,0.005607
196,-0.019652,0.005964,0.005607
197,0.017426,0.024037,0.005607
198,-0.001113,0.005964,0.023687
199,-0.001113,0.005964,0.005607
200,-0.001113,0.005964,0.005607
201,-0.001113,0.024037,0.005607
202,-0.001113,0.005964,0.005607
203,-0.001113,0.005964,0.005607
204,-0.001113,0.005964,-0.030552
205,-0.001113,0.005964,0.005607
206,-0.019652,0.024037,0.005607
207,-0.001113,-0.01211,-0.048632
208,-0.001113,-0.01211,0.005607
209,-0.001113,0.024037,0.023687
210,-0.001113,0.024037,0.005607
211,0.017426,-0.01211,0.005607
212,-0.001113,0.024037,0.041767
213,-0.001113,0.005964,0.023687
214,0.091583,-0.01211,0.023687
215,-0.019652,0.005964,0.005607
216,-0.019652,0.024037,0.041767
217,-0.001113,0.005964,0.023687
218,-0.001113,0.005964,-0.012473
219,-0.019652,0.005964,-0.012473
220,-0.001113,-0.01211,0.005607
221,-0.001113,0.005964,0.005607
222,-0.001113,0.005964,-0.012473
223,-0.001113,0.005964,0.005607
224,-0.019652,-0.01211,-0.012473
225,-0.019652,0.005964,-0.012473
226,-0.001113,-0.01211,-0.012473
227,-0.019652,-0.01211,-0.012473
228,-0.001113,-0.01211,0.005607
229,-0.038191,0.005964,0.005607
230,0.035965,0.005964,0.023687
231,-0.019652,0.024037,0.023687
232,0.017426,-0.01211,0.023687
233,-0.019652,0.005964,0.005607
234,-0.001113,0.024037,0.023687
235,-0.001113,0.005964,0.023687
236,0.017426,0.024037,0.005607
237,-0.001113,-0.01211,-0.012473
238,-0.001113,-0.01211,0.023687
239,0.017426,0.005964,-0.012473
240,-0.019652,0.005964,-0.012473
241,-0.001113,0.005964,-0.012473
242,0.017426,-0.01211,-0.030552
243,-0.019652,0.005964,-0.030552
244,-0.001113,-0.01211,-0.012473
245,0.017426,0.024037,0.005607
246,0.017426,0.005964,0.005607
247,-0.019652,0.024037,-0.012473
248,-0.019652,0.005964,0.023687
249,-0.001113,0.005964,0.023687
250,-0.001113,0.005964,0.023687
251,0.017426,0.005964,0.023687
252,-0.019652,-0.01211,0.041767
253,-0.001113,0.024037,0.023687
254,-0.019652,0.005964,0.005607
255,-0.001113,0.005964,-0.012473
256,-0.019652,0.005964,0.005607
257,-0.001113,0.005964,-0.012473
258,-0.001113,0.005964,-0.012473
259,-0.001113,0.005964,-0.048632
260,-0.001113,0.024037,-0.012473
261,-0.001113,-0.01211,-0.030552
262,-0.001113,0.005964,0.005607
263,-0.001113,0.024037,0.005607
264,-0.001113,0.005964,-0.012473
265,-0.019652,0.024037,0.005607
266,-0.001113,-0.01211,0.023687
267,-0.019652,-0.01211,0.023687
268,0.017426,-0.01211,0.023687
269,-0.019652,0.005964,0.023687
270,0.017426,0.005964,0.041767
271,-0.001113,0.005964,0.023687
272,-0.001113,0.024037,-0.012473
273,0.017426,0.024037,0.023687
274,-0.001113,-0.01211,-0.012473
275,0.017426,-0.01211,0.005607
276,0.017426,-0.01211,-0.012473
277,-0.001113,0.005964,-0.012473
278,-0.019652,0.005964,-0.030552
279,-0.001113,-0.01211,-0.012473
280,-0.001113,0.005964,-0.012473
281,-0.001113,-0.01211,0.023687
282,0.017426,0.005964,-0.030552
283,-0.001113,0.005964,0.005607
284,-0.019652,0.024037,0.023687
285,-0.001113,-0.01211,0.023687
286,0.017426,0.024037,0.005607
287,-0.001113,-0.01211,0.023687
288,-0.019652,0.005964,0.005607
289,-0.019652,0.024037,0.005607
290,0.017426,0.005964,-0.012473
291,-0.019652,0.005964,-0.012473
292,0.017426,0.005964,-0.012473
293,-0.001113,0.005964,-0.030552
294,-0.001113,0.005964,-0.030552
295,-0.001113,0.005964,-0.012473
296,-0.019652,-0.01211,-0.012473
297,-0.001113,-0.01211,-0.030552
298,-0.019652,0.005964,-0.012473
299,0.017426,0.005964,0.023687
300,-0.001113,0.024037,0.005607
301,-0.019652,0.024037,0.023687
302,-0.001113,0.005964,0.023687
303,-0.001113,0.005964,0.023687
304,-0.001113,0.005964,0.005607
305,-0.019652,-0.01211,0.005607
306,-0.001113,0.005964,0.023687
307,-0.001113,0.005964,-0.012473
308,-0.001113,0.005964,0.023687
309,-0.019652,0.024037,0.005607
310,-0.001113,0.005964,0.005607
311,-0.001113,0.024037,-0.012473
312,-0.001113,0.005964,-0.012473
313,-0.001113,0.005964,-0.030552
314,-0.001113,0.005964,-0.030552
315,-0.019652,0.005964,0.005607
316,0.017426,-0.01211,0.005607
317,-0.001113,-0.01211,-0.030552
318,-0.001113,0.005964,0.005607
319,-0.001113,0.024037,-0.012473
320,-0.001113,-0.01211,0.023687
321,-0.001113,0.005964,0.023687
322,-0.001113,-0.01211,0.005607
323,-0.001113,0.005964,0.023687
324,-0.001113,0.005964,0.005607
325,-0.038191,0.024037,-0.012473
326,-0.001113,0.005964,0.023687
327,-0.001113,0.005964,0.005607
328,-0.019652,0.005964,-0.012473
329,-0.001113,0.024037,0.005607
330,0.035965,0.005964,-0.012473
331,-0.001113,0.024037,-0.012473
332,-0.019652,-0.01211,-0.030552
333,-0.019652,-0.01211,0.005607
334,-0.019652,0.005964,0.023687
335,-0.019652,0.005964,-0.012473
336,-0.019652,-0.01211,0.005607
337,0.017426,0.005964,0.023687
338,-0.001113,0.024037,0.041767
339,-0.001113,0.005964,-0.012473
340,-0.001113,0.005964,0.005607
341,-0.019652,0.005964,0.005607
342,-0.001113,-0.01211,0.005607
343,-0.019652,0.005964,0.005607
344,0.035965,0.024037,0.023687
345,0.017426,0.005964,-0.012473
346,-0.019652,-0.01211,-0.012473
347,-0.019652,0.005964,-0.030552
348,-0.001113,-0.01211,0.005607
349,-0.001113,0.005964,-0.012473
350,-0.019652,0.005964,-0.030552
351,-0.001113,0.024037,-0.012473
352,-0.001113,0.024037,-0.012473
353,-0.001113,0.024037,-0.012473
354,-0.019652,0.005964,0.005607
355,-0.019652,0.024037,0.023687
356,-0.019652,0.005964,0.023687
357,-0.019652,-0.01211,0.023687
358,0.017426,-0.01211,0.041767
359,-0.001113,0.005964,0.005607
360,-0.001113,0.005964,-0.012473
361,-0.038191,0.024037,0.023687
362,-0.001113,0.024037,0.005607
363,-0.019652,0.005964,-0.012473
364,0.017426,0.005964,-0.030552
365,-0.038191,0.005964,0.005607
366,-0.001113,0.005964,0.005607
367,-0.001113,-0.01211,-0.030552
368,0.017426,0.005964,-0.012473
369,-0.001113,0.005964,0.023687
370,0.017426,0.005964,0.077927
371,-0.001113,0.005964,0.005607
372,-0.001113,0.005964,0.023687
373,-0.001113,0.005964,0.041767
374,-0.001113,-0.01211,0.005607
375,-0.019652,0.005964,0.023687
376,-0.019652,0.005964,0.005607
377,0.035965,-0.01211,-0.012473
378,-0.001113,0.005964,0.005607
379,-0.019652,-0.01211,0.005607
380,-0.001113,0.005964,0.005607
381,-0.001113,-0.01211,-0.012473
382,-0.001113,0.005964,0.005607
383,-0.001113,0.005964,-0.012473
384,-0.019652,0.024037,-0.012473
385,-0.001113,0.005964,0.005607
386,-0.019652,0.005964,0.005607
387,0.017426,0.005964,0.023687
388,0.017426,0.005964,0.005607
389,0.017426,0.005964,0.005607
390,0.017426,0.005964,0.041767
391,-0.038191,0.005964,0.005607
392,-0.001113,0.005964,0.005607
393,-0.019652,0.005964,0.023687
394,-0.001113,0.005964,0.005607
395,-0.001113,-0.01211,-0.012473
396,-0.019652,0.005964,0.005607
397,-0.001113,-0.01211,0.005607
398,0.017426,-0.01211,-0.012473
399,-0.001113,-0.01211,-0.030552
400,-0.001113,0.005964,-0.012473
401,-0.001113,0.005964,-0.030552
402,-0.001113,0.005964,-0.030552
403,-0.001113,0.005964,0.005607
404,-0.001113,0.005964,0.023687
405,-0.019652,-0.01211,-0.012473
406,-0.001113,0.005964,0.005607
407,-0.019652,0.005964,0.005607
408,-0.001113,0.005964,0.005607
409,-0.019652,0.005964,0.005607
410,0.017426,0.005964,0.023687
411,-0.001113,0.005964,0.005607
412,-0.019652,0.005964,-0.012473
413,-0.001113,0.005964,-0.012473
414,-0.001113,0.005964,0.005607
415,-0.019652,0.005964,0.005607
416,-0.019652,0.005964,-0.030552
417,-0.019652,0.024037,-0.030552
418,-0.001113,0.005964,-0.030552
419,0.017426,0.005964,-0.012473
420,-0.001113,0.005964,0.005607
421,-0.001113,0.005964,0.023687
422,-0.001113,0.005964,0.041767
423,-0.001113,0.005964,0.023687
424,-0.038191,0.005964,0.005607
425,0.017426,0.005964,0.023687
426,-0.001113,0.005964,0.023687
427,-0.001113,0.005964,0.005607
428,-0.001113,0.024037,0.023687
429,-0.001113,0.005964,0.005607
430,-0.019652,0.005964,0.005607
431,-0.001113,0.005964,-0.030552
432,0.017426,0.005964,0.005607
433,-0.001113,0.024037,-0.012473
434,-0.001113,0.005964,-0.030552
435,-0.001113,0.005964,-0.012473
436,-0.001113,0.024037,0.005607
437,-0.019652,0.005964,-0.048632
438,-0.019652,-0.01211,0.005607
439,-0.019652,0.005964,0.005607
440,-0.019652,0.005964,-0.012473
441,-0.001113,0.005964,0.005607
442,-0.019652,0.005964,0.005607
443,-0.001113,0.005964,0.023687
444,-0.001113,0.005964,0.023687
445,-0.001113,0.024037,0.023687
446,-0.001113,0.005964,0.023687
447,-0.001113,0.005964,0.023687
448,-0.001113,0.005964,-0.012473
449,-0.001113,0.005964,0.005607
450,-0.001113,0.005964,-0.012473
451,0.017426,0.005964,-0.012473
452,0.017426,0.024037,-0.030552
453,-0.019652,-0.01211,-0.012473
454,-0.001113,-0.01211,-0.030552
455,-0.001113,-0.01211,-0.012473
456,-0.001113,-0.030183,-0.012473
457,-0.001113,-0.01211,0.005607
458,0.017426,-0.01211,-0.012473
459,-0.001113,0.005964,0.005607
460,-0.019652,0.005964,0.023687
461,-0.019652,0.005964,0.005607
462,-0.001113,0.005964,0.005607
463,-0.001113,0.005964,0.023687
464,-0.001113,-0.01211,0.005607
465,-0.019652,-0.01211,-0.012473
466,-0.019652,0.005964,-0.012473
467,-0.001113,0.024037,0.005607
468,0.017426,0.024037,-0.012473
469,0.017426,0.005964,-0.012473
470,-0.019652,0.005964,-0.012473
471,-0.001113,0.024037,-0.012473
472,-0.001113,-0.01211,-0.012473
473,-0.019652,0.005964,-0.012473
474,-0.001113,0.024037,0.005607
475,-0.001113,0.005964,0.023687
476,-0.001113,-0.01211,0.005607
477,-0.019652,0.024037,0.005607
478,0.017426,0.005964,0.023687
479,-0.001113,-0.01211,0.023687
480,-0.001113,0.005964,0.005607
481,0.017426,0.005964,0.005607
482,-0.019652,0.005964,0.005607
483,-0.001113,-0.01211,-0.012473
484,-0.001113,0.005964,0.005607
485,-0.001113,0.024037,0.005607
486,-0.019652,0.005964,-0.012473
487,-0.001113,0.005964,-0.012473
488,-0.001113,0.005964,-0.012473
489,-0.001113,0.005964,-0.030552
490,-0.001113,-0.01211,-0.030552
491,-0.001113,0.005964,0.005607
492,-0.001113,-0.01211,0.005607
493,-0.019652,0.005964,0.023687
494,-0.001113,0.005964,0.023687
495,-0.001113,0.005964,0.023687
496,-0.001113,0.005964,0.023687
497,-0.001113,0.024037,-0.012473
498,-0.001113,-0.01211,0.005607
499,-0.001113,0.005964,0.005607
500,-0.019652,0.005964,-0.012473
501,0.035965,0.005964,-0.012473
502,-0.001113,0.005964,0.023687
503,-0.001113,0.005964,0.005607
504,-0.001113,0.005964,-0.012473
505,-0.001113,0.024037,-0.012473
506,-0.001113,0.024037,-0.012473
507,-0.001113,-0.01211,-0.012473
508,-0.019652,-0.01211,0.005607
509,-0.001113,0.024037,0.005607
510,-0.001113,0.005964,0.041767
511,-0.001113,-0.01211,0.005607
512,-0.001113,0.005964,0.023687
513,-0.001113,0.005964,0.023687
514,-0.019652,0.005964,0.005607
515,-0.001113,-0.01211,0.023687
516,-0.001113,0.005964,0.023687
517,-0.001113,0.005964,0.005607
518,-0.001113,0.005964,0.005607
519,-0.019652,0.005964,-0.030552
520,-0.019652,0.005964,0.005607
521,-0.001113,0.005964,0.005607
522,-0.001113,0.005964,-0.012473
523,-0.001113,0.005964,-0.012473
524,-0.019652,0.005964,-0.012473
525,0.017426,-0.01211,-0.030552
526,-0.001113,0.005964,0.005607
527,-0.001113,-0.01211,0.023687
528,-0.001113,0.024037,-0.030552
529,-0.019652,0.005964,0.005607
530,-0.019652,0.005964,0.005607
531,-0.001113,-0.01211,0.023687
532,0.017426,0.005964,0.023687
533,-0.001113,0.005964,0.023687
534,-0.001113,0.005964,0.005607
535,-0.001113,-0.01211,0.005607
536,0.017426,0.005964,-0.012473
537,-0.001113,0.005964,0.023687
538,0.017426,0.024037,-0.012473
539,-0.001113,0.024037,-0.030552
540,-0.019652,-0.01211,-0.012473
541,-0.019652,0.005964,0.005607
542,-0.019652,-0.01211,-0.012473
543,-0.001113,0.024037,-0.012473
544,-0.001113,0.005964,0.005607
545,-0.019652,0.005964,0.005607
546,-0.001113,0.005964,0.005607
547,-0.001113,0.005964,0.005607
548,-0.001113,0.005964,0.005607
549,-0.019652,-0.01211,0.023687
550,0.017426,-0.01211,0.023687
551,-0.019652,0.024037,0.023687
552,-0.038191,0.005964,0.005607
553,-0.001113,0.005964,0.005607
554,-0.001113,0.024037,-0.030552
555,-0.019652,0.005964,0.005607
556,-0.019652,0.005964,0.005607
557,-0.019652,0.005964,-0.012473
558,-0.001113,-0.01211,-0.030552
559,-0.019652,-0.01211,-0.012473
560,-0.001113,0.005964,-0.030552
561,-0.019652,-0.01211,-0.012473
562,0.017426,0.005964,0.005607
563,-0.019652,0.024037,0.005607
564,-0.001113,0.005964,0.005607
565,-0.001113,0.024037,0.005607
566,-0.001113,0.005964,0.041767
567,-0.001113,0.005964,0.023687
568,-0.001113,0.024037,0.005607
569,0.017426,0.005964,0.041767
570,-0.001113,0.005964,0.023687
571,-0.001113,-0.01211,-0.012473
572,-0.019652,0.024037,0.023687
573,0.017426,0.005964,0.005607
574,-0.019652,0.005964,-0.012473
575,0.017426,0.005964,-0.048632
576,-0.001113,-0.01211,-0.012473
577,-0.001113,0.005964,-0.012473
578,-0.001113,0.024037,-0.030552
579,-0.019652,0.005964,-0.012473
580,-0.001113,0.005964,0.023687
581,-0.001113,-0.01211,-0.030552
582,0.017426,0.005964,0.005607
583,-0.001113,0.005964,0.023687
584,-0.001113,0.005964,0.023687
585,-0.001113,0.005964,0.005607
586,-0.001113,0.005964,0.023687
587,0.017426,0.005964,0.041767
588,-0.019652,0.005964,0.023687
589,-0.019652,0.005964,-0.012473
590,-0.001113,0.005964,0.023687
591,-0.001113,-0.01211,-0.030552
592,-0.001113,-0.01211,-0.012473
593,-0.019652,0.005964,-0.030552
594,-0.001113,0.005964,-0.012473
595,-0.001113,-0.030183,0.005607
596,-0.001113,0.005964,-0.012473
597,-0.019652,0.005964,-0.012473
598,-0.001113,0.005964,0.041767
599,-0.001113,0.024037,-0.012473
600,-0.001113,0.005964,0.005607
601,-0.019652,0.005964,0.023687
602,-0.001113,0.005964,0.041767
603,-0.001113,0.024037,0.005607
604,-0.001113,0.024037,0.023687
605,0.017426,-0.01211,0.023687
606,-0.019652,0.005964,0.005607
607,-0.019652,-0.01211,0.005607
608,-0.001113,0.005964,0.005607
609,-0.019652,0.005964,-0.012473
610,-0.001113,0.005964,-0.030552
611,-0.038191,-0.01211,-0.048632
612,-0.001113,0.005964,-0.030552
613,-0.001113,-0.01211,-0.030552
614,0.017426,-0.01211,-0.030552
615,-0.019652,0.005964,-0.030552
616,-0.001113,-0.01211,-0.066712
617,-0.019652,0.005964,-0.030552
618,-0.001113,0.024037,-0.012473
619,-0.001113,0.005964,0.005607
620,-0.019652,0.005964,0.005607
621,-0.001113,0.005964,-0.012473
622,-0.019652,0.005964,0.023687
623,-0.001113,0.005964,0.005607
624,-0.001113,0.005964,-0.012473
625,-0.001113,0.005964,0.077927
626,-0.001113,0.005964,0.041767
627,-0.019652,0.005964,0.005607
628,-0.001113,0.024037,-0.012473
629,-0.019652,-0.01211,0.023687
630,-0.001113,0.005964,0.023687
631,-0.019652,0.005964,0.023687
632,-0.001113,0.005964,0.041767
633,-0.019652,0.005964,0.059847
634,-0.001113,0.024037,0.041767
635,0.017426,0.005964,0.041767
636,-0.019652,0.005964,0.059847
637,-0.001113,0.005964,0.041767
638,-0.001113,0.005964,0.023687
639,-0.019652,0.005964,0.023687
640,-0.001113,0.005964,0.023687
641,-0.019652,0.005964,0.005607
642,-0.019652,-0.01211,-0.030552
643,-0.019652,-0.01211,0.005607
644,-0.001113,-0.01211,0.023687
645,-0.019652,-0.01211,-0.030552
646,-0.019652,0.024037,-0.030552
647,-0.019652,0.024037,-0.030552
648,-0.019652,0.005964,-0.048632
649,-0.019652,0.005964,-0.048632
650,-0.001113,0.005964,0.005607
651,-0.038191,0.024037,-0.048632
652,-0.001113,-0.01211,-0.012473
653,-0.001113,-0.01211,0.005607
654,-0.019652,0.024037,0.023687
655,-0.001113,-0.01211,0.041767
656,-0.019652,0.024037,0.059847
657,-0.019652,0.005964,0.059847
658,-0.001113,0.005964,0.005607
659,-0.001113,-0.01211,0.023687
660,-0.001113,0.005964,0.041767
661,-0.001113,0.024037,-0.012473
662,-0.019652,0.005964,-0.030552
663,-0.001113,0.005964,-0.030552
664,-0.001113,0.024037,-0.030552
665,-0.001113,-0.01211,-0.048632
666,-0.019652,-0.01211,-0.048632
667,-0.001113,-0.01211,-0.012473
668,-0.019652,-0.01211,0.005607
669,-0.001113,-0.01211,-0.048632
670,-0.001113,-0.01211,-0.048632
671,-0.001113,-0.01211,-0.030552
672,-0.001113,-0.030183,-0.048632
673,-0.001113,-0.01211,-0.102872
674,-0.05673,-0.01211,-0.066712
675,-0.001113,-0.01211,-0.066712
676,0.017426,-0.01211,-0.102872
677,-0.019652,0.005964,-0.084792
678,-0.019652,-0.01211,-0.030552
679,-0.019652,0.005964,-0.012473
680,-0.019652,0.005964,0.023687
681,-0.019652,0.005964,0.041767
682,-0.019652,0.005964,0.005607
683,-0.019652,-0.01211,0.041767
684,-0.001113,0.04211,0.114086
685,0.035965,0.060184,0.204486
686,0.017426,0.060184,0.204486
687,0.017426,0.060184,0.114086
688,-0.019652,0.024037,0.077927
689,-0.001113,0.04211,0.077927
690,-0.001113,0.005964,0.041767
691,-0.019652,0.005964,0.023687
692,-0.001113,0.005964,0.023687
693,0.017426,0.024037,-0.012473
694,-0.001113,0.005964,-0.048632
695,-0.001113,0.005964,0.005607
696,-0.001113,-0.01211,-0.030552
697,-0.001113,-0.01211,-0.048632
698,-0.019652,0.024037,-0.048632
699,-0.019652,0.024037,-0.030552
700,-0.038191,0.005964,-0.012473
701,-0.001113,0.024037,0.023687
702,-0.019652,0.024037,0.077927
703,-0.001113,0.024037,0.059847
704,-0.001113,0.005964,0.023687
705,0.017426,0.005964,0.023687
706,-0.019652,0.005964,0.005607
707,-0.001113,0.024037,0.005607
708,-0.001113,-0.01211,0.023687
709,-0.001113,0.005964,0.041767
710,-0.019652,0.005964,0.005607
711,-0.001113,0.005964,-0.012473
712,-0.019652,0.005964,-0.012473
713,-0.001113,0.005964,-0.012473
714,-0.001113,0.024037,-0.012473
715,-0.001113,0.005964,-0.012473
716,-0.001113,-0.01211,-0.012473
717,0.017426,-0.01211,-0.048632
718,0.017426,-0.01211,-0.084792
719,-0.019652,0.005964,-0.048632
720,-0.019652,-0.01211,-0.012473
721,-0.038191,-0.01211,0.023687
722,-0.001113,-0.01211,-0.012473
723,0.017426,-0.01211,-0.012473
724,-0.001113,-0.01211,0.023687
725,-0.019652,0.005964,0.005607
726,-0.001113,0.005964,0.059847
727,-0.001113,0.005964,0.023687
728,-0.001113,0.005964,-0.012473
729,-0.019652,0.005964,-0.030552
730,-0.001113,0.024037,-0.048632
731,-0.001113,0.005964,-0.048632
732,0.017426,0.005964,-0.066712
733,-0.001113,-0.01211,-0.048632
734,-0.001113,-0.01211,-0.030552
735,-0.019652,0.005964,-0.066712
736,-0.001113,0.005964,-0.066712
737,0.017426,0.005964,0.005607
738,-0.001113,0.005964,0.059847
739,-0.019652,0.005964,-0.012473
740,-0.038191,-0.01211,0.005607
741,-0.019652,-0.01211,0.041767
742,-0.019652,0.005964,0.041767
743,0.017426,0.024037,0.059847
744,0.017426,0.005964,0.096007
745,0.017426,0.005964,0.041767
746,-0.001113,0.04211,0.023687
747,-0.001113,0.005964,-0.012473
748,0.017426,-0.01211,-0.012473
749,-0.001113,0.024037,0.005607
750,-0.001113,0.04211,0.005607
751,-0.019652,0.005964,0.023687
752,-0.019652,0.005964,0.041767
753,-0.001113,0.005964,0.023687
754,-0.019652,0.005964,0.005607
755,-0.038191,0.005964,-0.012473
756,-0.001113,-0.01211,0.005607
757,-0.001113,0.005964,-0.012473
758,-0.019652,0.005964,0.023687
759,-0.038191,-0.01211,0.041767
760,-0.038191,0.005964,0.023687
761,-0.019652,0.024037,0.041767
762,-0.019652,0.005964,0.023687
763,-0.05673,0.04211,0.059847
764,-0.019652,0.04211,0.023687
765,-0.001113,0.024037,0.005607
766,0.054504,0.005964,-0.030552
767,0.073044,0.024037,-0.048632
768,0.017426,0.024037,-0.048632
769,-0.001113,-0.030183,-0.048632
770,-0.001113,-0.01211,-0.102872
771,-0.019652,-0.01211,-0.048632
772,-0.019652,-0.01211,-0.030552
773,-0.001113,-0.01211,-0.012473
774,-0.019652,0.024037,-0.048632
775,-0.019652,0.005964,-0.030552
776,0.017426,0.005964,-0.030552
777,-0.001113,0.005964,-0.012473
778,-0.001113,0.005964,-0.012473
779,-0.001113,-0.01211,-0.030552
780,-0.001113,0.005964,-0.030552
781,-0.019652,-0.01211,0.005607
782,0.017426,0.024037,0.041767
783,-0.001113,0.005964,0.077927
784,-0.019652,0.04211,0.059847
785,-0.001113,0.024037,0.023687
786,-0.001113,-0.01211,0.023687
787,-0.001113,0.005964,0.059847
788,-0.001113,0.005964,0.041767
789,0.017426,0.024037,0.041767
790,-0.001113,0.024037,0.023687
791,-0.019652,-0.01211,-0.030552
792,0.017426,0.005964,-0.030552
793,-0.001113,0.024037,-0.012473
794,-0.001113,0.005964,-0.066712
795,-0.001113,-0.030183,-0.066712
796,-0.001113,0.005964,-0.048632
797,-0.019652,0.005964,0.059847
798,-0.001113,0.024037,0.077927
799,0.017426,0.024037,0.059847
800,-0.001113,0.005964,0.023687
801,-0.019652,0.024037,-0.030552
802,-0.001113,0.005964,-0.012473
803,-0.001113,-0.01211,-0.030552
804,-0.019652,0.005964,0.005607
805,-0.001113,0.005964,-0.030552
806,-0.001113,-0.01211,0.005607
807,-0.001113,0.024037,0.041767
808,0.017426,0.005964,0.005607
809,-0.001113,0.005964,0.023687
810,-0.001113,0.005964,-0.012473
811,-0.001113,0.005964,-0.012473
812,0.017426,0.005964,0.005607
813,-0.001113,-0.01211,0.005607
814,-0.001113,0.005964,0.041767
815,-0.019652,-0.01211,-0.012473
816,-0.001113,-0.01211,-0.084792
817,-0.001113,0.024037,-0.066712
818,-0.038191,-0.01211,-0.066712
819,0.035965,0.024037,-0.084792
820,0.017426,-0.01211,-0.066712
821,-0.019652,-0.01211,-0.066712
822,-0.001113,0.005964,0.005607
823,-0.001113,0.024037,0.132166
824,-0.001113,0.024037,0.186406
825,0.017426,0.04211,0.114086
826,0.017426,0.024037,0.077927
827,-0.001113,0.024037,0.096007
828,-0.001113,0.024037,0.059847
829,-0.001113,0.024037,0.077927
830,-0.019652,0.005964,0.023687
831,-0.001113,-0.030183,-0.012473
832,-0.001113,0.005964,-0.084792
833,-0.038191,-0.01211,-0.102872
834,-0.038191,-0.030183,-0.048632
835,-0.019652,-0.01211,0.041767
836,-0.019652,-0.01211,-0.030552
837,-0.019652,-0.01211,0.023687
838,-0.05673,-0.01211,0.005607
839,-0.001113,-0.01211,0.023687
840,0.035965,0.005964,0.023687
841,0.073044,0.024037,0.041767
842,0.035965,0.024037,0.077927
843,0.017426,0.024037,0.041767
844,-0.001113,0.005964,0.023687
845,0.035965,0.005964,0.059847
846,0.017426,0.024037,0.059847
847,-0.001113,0.005964,0.005607
848,-0.001113,0.005964,-0.012473
849,0.017426,-0.030183,0.005607
850,-0.001113,-0.01211,0.005607
851,-0.001113,-0.01211,-0.012473
852,-0.001113,-0.01211,-0.030552
853,-0.001113,0.005964,-0.030552
854,-0.001113,-0.01211,-0.048632
855,0.017426,0.024037,-0.030552
856,0.017426,0.024037,0.023687
857,-0.001113,0.005964,0.005607
858,0.035965,0.005964,0.005607
859,-0.019652,0.005964,0.005607
860,-0.001113,-0.030183,-0.066712
861,-0.019652,-0.01211,-0.084792
862,-0.019652,-0.030183,-0.066712
863,-0.001113,-0.030183,0.005607
864,0.017426,0.005964,0.114086
865,0.017426,0.024037,0.132166
866,-0.001113,0.024037,0.096007
867,-0.001113,0.04211,-0.012473
868,-0.001113,0.005964,-0.066712
869,-0.019652,0.005964,-0.084792
870,-0.019652,-0.01211,-0.066712
871,-0.001113,-0.01211,-0.048632
872,-0.001113,0.005964,0.041767
873,-0.001113,0.04211,0.077927
874,-0.019652,0.024037,0.041767
875,0.017426,0.060184,0.096007
876,0.017426,0.060184,0.096007
877,-0.001113,0.024037,0.041767
878,-0.001113,0.005964,0.023687
879,-0.001113,-0.01211,-0.012473
880,-0.019652,0.005964,0.005607
881,-0.001113,-0.01211,-0.030552
882,-0.001113,0.005964,0.005607
883,0.017426,0.005964,0.023687
884,0.017426,-0.01211,-0.012473
885,-0.019652,0.005964,-0.066712
886,-0.001113,0.005964,-0.084792
887,0.017426,-0.030183,-0.066712
888,-0.001113,0.005964,-0.012473
889,0.017426,0.024037,0.005607
890,-0.001113,0.005964,0.041767
891,-0.019652,-0.01211,0.059847
892,-0.001113,-0.01211,0.005607
893,-0.001113,0.005964,0.059847
894,-0.001113,0.04211,0.077927
895,-0.038191,0.005964,0.059847
896,-0.019652,-0.01211,0.023687
897,-0.001113,-0.01211,0.023687
898,-0.001113,-0.01211,0.005607
899,0.017426,-0.030183,-0.030552
900,-0.001113,0.005964,-0.030552
901,-0.019652,-0.01211,-0.030552
902,-0.001113,-0.01211,-0.048632
903,0.017426,0.005964,0.059847
904,-0.001113,0.04211,0.077927
905,0.017426,0.024037,0.041767
906,-0.001113,0.005964,0.023687
907,0.017426,0.024037,0.005607
908,0.017426,0.005964,0.005607
909,0.017426,0.005964,0.023687
910,0.017426,0.005964,-0.012473
911,0.017426,0.005964,0.005607
912,0.017426,0.005964,0.005607
913,-0.001113,-0.048257,-0.084792
914,0.017426,-0.01211,0.023687
915,-0.019652,-0.030183,0.023687
916,-0.001113,0.005964,0.077927
917,-0.001113,0.04211,0.114086
918,-0.019652,0.024037,0.005607
919,-0.019652,0.005964,0.005607
920,-0.019652,0.005964,0.023687
921,0.017426,0.024037,-0.030552
922,-0.001113,0.005964,-0.012473
923,-0.001113,0.005964,-0.030552
924,-0.019652,-0.01211,-0.139032
925,-0.019652,-0.030183,-0.193271
926,-0.038191,-0.084403,-0.175191
927,-0.019652,-0.084403,-0.066712
928,-0.001113,-0.01211,0.059847
929,0.054504,0.024037,0.222566
930,0.017426,0.060184,0.385284
931,0.035965,0.096331,0.385284
932,0.035965,0.096331,0.258725
933,0.017426,0.024037,0.005607
934,-0.001113,0.005964,-0.102872
935,-0.038191,-0.048257,-0.157112
936,-0.019652,-0.048257,-0.193271
937,-0.019652,-0.030183,-0.120952
938,-0.019652,0.024037,-0.012473
939,-0.001113,-0.01211,-0.084792
940,0.017426,-0.01211,-0.066712
941,-0.019652,-0.048257,-0.030552
942,0.035965,0.005964,-0.048632
943,-0.001113,0.005964,-0.211351
944,0.017426,0.005964,-0.120952
945,-0.001113,-0.01211,0.041767
946,0.017426,0.024037,0.096007
947,-0.05673,0.005964,0.186406
948,-0.019652,-0.01211,0.168326
949,0.017426,0.078257,0.186406
950,0.017426,0.04211,0.059847
951,0.017426,0.024037,-0.066712
952,0.017426,-0.01211,-0.157112
953,-0.038191,-0.048257,-0.139032
954,-0.038191,-0.048257,0.005607
955,-0.038191,-0.01211,0.059847
956,-0.038191,-0.030183,0.005607
957,0.017426,0.005964,0.077927
958,0.035965,0.04211,0.096007
959,0.017426,0.060184,0.077927
960,-0.001113,0.005964,0.023687
961,-0.019652,-0.048257,0.077927
962,-0.07527,-0.048257,0.132166
963,-0.05673,-0.01211,-0.048632
964,-0.019652,-0.01211,0.005607
965,0.035965,0.060184,0.114086
966,0.035965,0.060184,0.150246
967,0.035965,0.005964,-0.030552
968,0.035965,0.005964,0.059847
969,0.017426,0.005964,0.023687
970,0.035965,0.024037,0.077927
971,0.035965,0.060184,0.041767
972,0.017426,0.005964,-0.193271
973,-0.001113,-0.030183,-0.31983
974,-0.038191,-0.06633,-0.35599
975,-0.05673,-0.12055,-0.446389
976,-0.05673,-0.12055,-0.33791
977,-0.05673,-0.102477,-0.084792
978,-0.019652,-0.01211,-0.048632
979,0.017426,0.024037,0.168326
980,0.035965,0.060184,0.331045
981,-0.001113,0.024037,0.367205
982,-0.001113,0.04211,0.204486
983,0.017426,0.024037,-0.012473
984,0.017426,0.024037,-0.066712
985,-0.001113,-0.048257,-0.193271
986,-0.038191,-0.030183,-0.139032
987,-0.019652,-0.01211,-0.157112
988,-0.001113,-0.048257,-0.283671
989,-0.001113,-0.030183,-0.139032
990,-0.001113,-0.01211,-0.030552
991,0.017426,0.005964,0.132166
992,0.017426,-0.01211,0.222566
993,0.035965,0.04211,0.150246
994,-0.001113,0.04211,-0.066712
995,0.017426,0.04211,0.168326
996,-0.038191,0.024037,0.439524
997,-0.019652,-0.01211,0.222566
998,-0.001113,0.024037,0.168326
999,0.073044,0.078257,0.222566
1000,0.091583,0.132477,0.276805
1001,0.054504,0.060184,0.168326
1002,-0.001113,0.024037,0.059847
1003,-0.038191,-0.01211,-0.030552
1004,-0.05673,-0.01211,-0.265591
1005,-0.019652,-0.06633,-0.31983
1006,-0.019652,-0.06633,-0.37407
1007,0.017426,-0.030183,-0.175191
1008,-0.001113,-0.048257,-0.048632
1009,-0.001113,-0.01211,0.276805
1010,-0.019652,-0.01211,0.168326
1011,-0.019652,-0.048257,-0.211351
1012,-0.019652,-0.06633,-0.42831
1013,0.017426,-0.01211,-0.175191
1014,0.035965,0.024037,-0.139032
1015,0.017426,-0.01211,-0.102872
1016,0.017426,-0.01211,-0.102872
1017,0.017426,-0.01211,-0.30175
1018,-0.019652,-0.030183,-0.175191
1019,-0.05673,0.024037,0.493764
1020,-0.001113,0.114404,0.710722
1021,-0.019652,0.060184,0.367205
1022,-0.019652,0.005964,-0.175191
1023,-0.05673,-0.06633,-0.41023
1024,-0.038191,-0.06633,-0.35599
1025,-0.05673,-0.048257,-0.012473
1026,-0.038191,-0.01211,0.222566
1027,0.035965,0.096331,0.367205
1028,0.073044,0.114404,0.222566
1029,0.073044,0.150551,0.385284
1030,0.054504,0.132477,0.548003
1031,0.017426,0.114404,0.439524
1032,0.035965,0.096331,0.240646
1033,-0.019652,-0.01211,-0.102872
1034,-0.07527,-0.102477,-0.229431
1035,-0.07527,-0.06633,-0.229431
1036,-0.019652,-0.030183,-0.229431
1037,-0.038191,-0.048257,-0.31983
1038,-0.001113,-0.048257,-0.39215
1039,-0.019652,-0.048257,-0.39215
1040,0.035965,0.005964,-0.084792
1041,0.073044,0.078257,0.457604
1042,0.091583,0.132477,0.475684
1043,-0.038191,-0.01211,-0.120952
1044,-0.07527,-0.048257,-0.31983
1045,-0.05673,-0.030183,-0.265591
1046,-0.038191,-0.06633,-0.084792
1047,-0.07527,-0.030183,0.077927
1048,-0.038191,0.04211,0.168326
1049,-0.001113,0.024037,0.059847
1050,-0.038191,-0.030183,-0.120952
1051,-0.05673,-0.084403,-0.102872
1052,-0.001113,0.024037,0.367205
1053,0.073044,0.096331,0.584163
1054,0.073044,0.114404,0.566083
1055,0.073044,0.114404,0.385284
1056,0.054504,0.060184,0.005607
1057,-0.001113,-0.048257,-0.35599
1058,-0.093809,-0.102477,-0.482549
1059,-0.07527,-0.084403,-0.31983
1060,-0.019652,-0.06633,-0.229431
1061,-0.038191,-0.06633,-0.211351
1062,-0.07527,-0.084403,-0.30175
1063,-0.038191,-0.06633,-0.175191
1064,-0.019652,-0.01211,0.150246
1065,0.054504,0.132477,0.475684
1066,0.110122,0.168624,0.331045
1067,0.091583,0.114404,0.005607
1068,-0.001113,-0.06633,-0.41023
1069,-0.112348,-0.156697,-0.41023
1070,-0.112348,-0.102477,-0.048632
1071,-0.038191,-0.030183,0.077927
1072,0.017426,-0.01211,0.168326
1073,-0.019652,0.024037,0.240646
1074,0.035965,0.060184,0.186406
1075,0.035965,0.04211,-0.175191
1076,0.073044,0.060184,-0.175191
1077,0.073044,0.04211,0.023687
1078,0.017426,0.078257,0.367205
1079,-0.05673,-0.01211,0.240646
1080,-0.019652,-0.030183,-0.066712
1081,-0.05673,-0.06633,-0.37407
1082,-0.001113,-0.084403,-0.645268
1083,-0.07527,-0.12055,-0.41023
1084,0.017426,-0.01211,0.276805
1085,0.073044,0.096331,0.511844
1086,0.073044,0.150551,0.493764
1087,-0.038191,0.024037,0.331045
1088,-0.019652,0.024037,0.493764
1089,-0.001113,0.04211,0.150246
1090,-0.001113,0.04211,0.041767
1091,-0.019652,0.005964,-0.066712
1092,-0.038191,-0.06633,-0.157112
1093,-0.038191,-0.06633,-0.157112
1094,0.035965,0.078257,0.150246
1095,0.054504,0.132477,0.168326
1096,0.035965,0.096331,0.114086
1097,-0.001113,0.005964,0.005607
1098,-0.038191,-0.048257,-0.030552
1099,0.017426,-0.01211,-0.193271
1100,-0.001113,-0.084403,-0.41023
1101,-0.07527,-0.102477,-0.482549
1102,-0.112348,-0.102477,-0.229431
1103,-0.038191,-0.048257,-0.048632
1104,-0.001113,0.005964,0.023687
1105,-0.038191,0.005964,-0.030552
1106,-0.038191,-0.01211,-0.030552
1107,-0.05673,-0.06633,-0.283671
1108,-0.05673,-0.048257,-0.247511
1109,0.054504,0.078257,-0.048632
1110,0.091583,0.078257,-0.102872
1111,0.035965,-0.01211,-0.030552
1112,-0.001113,-0.030183,0.168326
1113,-0.019652,0.024037,0.222566
1114,-0.038191,0.060184,0.276805
1115,-0.019652,0.005964,-0.120952
1116,-0.05673,-0.048257,-0.31983
1117,-0.038191,-0.06633,-0.247511
1118,-0.019652,-0.030183,0.059847
1119,0.017426,0.005964,0.150246
1120,0.017426,0.04211,0.077927
1121,-0.038191,0.04211,0.258725
1122,-0.001113,0.114404,0.511844
1123,0.128661,0.204771,0.692642
1124,0.1472,0.186697,0.475684
1125,0.035965,0.04211,0.114086
1126,-0.112348,-0.102477,-0.283671
1127,-0.112348,-0.12055,-0.500629
1128,-0.05673,-0.048257,-0.247511
1129,-0.001113,-0.048257,-0.193271
1130,-0.05673,-0.084403,-0.211351
1131,-0.05673,-0.06633,-0.229431
1132,0.017426,0.005964,-0.048632
1133,0.035965,0.04211,0.041767
1134,-0.05673,-0.048257,-0.283671
1135,-0.112348,-0.156697,-0.500629
1136,-0.093809,-0.12055,-0.30175
1137,0.017426,0.060184,0.385284
1138,0.128661,0.186697,0.475684
1139,0.128661,0.222844,0.331045
1140,0.110122,0.186697,0.331045
1141,-0.001113,0.024037,0.204486
1142,-0.038191,-0.030183,0.059847
1143,-0.038191,-0.01211,0.096007
1144,-0.019652,0.060184,0.258725
1145,-0.038191,-0.01211,-0.048632
1146,-0.019652,0.005964,-0.066712
1147,-0.019652,-0.048257,-0.084792
1148,-0.001113,-0.030183,-0.247511
1149,0.017426,-0.048257,-0.518709
1150,-0.038191,-0.06633,-0.265591
1151,-0.093809,-0.084403,0.204486
1152,-0.05673,-0.01211,0.186406
1153,-0.019652,0.005964,0.150246
1154,0.035965,0.024037,-0.175191
1155,-0.038191,-0.048257,-0.536789
1156,-0.05673,-0.102477,-0.37407
1157,-0.07527,-0.084403,-0.048632
1158,0.017426,0.096331,0.692642
1159,0.054504,0.150551,0.584163
1160,0.035965,0.132477,0.150246
1161,0.035965,0.078257,-0.084792
1162,0.017426,0.024037,-0.265591
1163,-0.001113,-0.048257,-0.229431
1164,-0.019652,-0.084403,-0.35599
1165,-0.05673,-0.102477,-0.41023
1166,-0.05673,-0.048257,-0.193271
1167,-0.001113,0.005964,0.059847
1168,0.035965,0.096331,0.801121
1169,0.035965,0.168624,0.764962
1170,0.035965,0.096331,0.240646
1171,0.017426,0.04211,0.077927
1172,-0.05673,-0.030183,-0.247511
1173,-0.038191,-0.06633,-0.35599
1174,-0.093809,-0.102477,-0.283671
1175,-0.019652,0.005964,0.132166
1176,0.054504,0.078257,0.294885
1177,0.035965,0.060184,0.204486
1178,-0.05673,-0.030183,-0.012473
1179,-0.07527,-0.06633,-0.157112
1180,0.017426,0.024037,-0.030552
1181,0.054504,0.096331,0.096007
1182,-0.038191,-0.01211,0.168326
1183,-0.038191,-0.01211,0.240646
1184,-0.038191,-0.048257,-0.120952
1185,-0.019652,-0.048257,-0.464469
1186,-0.038191,-0.084403,-0.554869
1187,-0.05673,-0.156697,-0.482549
1188,-0.038191,-0.084403,-0.066712
1189,0.054504,0.114404,0.367205
1190,0.091583,0.150551,0.656483
1191,0.017426,0.114404,0.566083
1192,-0.05673,0.024037,-0.048632
1193,-0.07527,-0.030183,-0.283671
1194,-0.05673,-0.030183,-0.084792
1195,-0.038191,-0.030183,-0.030552
1196,-0.038191,-0.048257,-0.30175
1197,-0.001113,-0.030183,-0.265591
1198,-0.05673,-0.084403,-0.35599
1199,-0.001113,-0.01211,0.349125
1200,0.054504,0.132477,0.837281
1201,0.091583,0.096331,0.457604
1202,0.017426,0.024037,-0.084792
1203,-0.001113,-0.030183,-0.283671
1204,0.017426,-0.048257,-0.33791
1205,-0.038191,-0.06633,-0.446389
1206,-0.019652,-0.030183,-0.120952
1207,-0.05673,-0.048257,0.222566
1208,-0.001113,0.04211,0.674562
1209,0.035965,0.078257,0.566083
1210,-0.001113,0.024037,0.168326
1211,0.017426,0.005964,-0.157112
1212,0.017426,0.005964,-0.120952
1213,0.017426,0.024037,-0.102872
1214,0.035965,0.005964,-0.048632
1215,0.035965,0.04211,0.005607
1216,0.054504,0.04211,-0.066712
1217,-0.038191,-0.084403,-0.211351
1218,-0.07527,-0.084403,-0.31983
1219,-0.038191,-0.084403,-0.572948
1220,-0.038191,-0.06633,-0.572948
1221,-0.05673,-0.06633,-0.33791
1222,-0.093809,-0.138624,-0.102872
1223,-0.07527,-0.01211,0.529923
1224,0.017426,0.114404,0.493764
1225,0.054504,0.132477,0.168326
1226,0.054504,0.114404,0.041767
1227,0.017426,0.024037,0.005607
1228,-0.05673,-0.030183,-0.012473
1229,-0.038191,-0.01211,0.096007
1230,-0.001113,0.04211,0.059847
1231,0.017426,0.078257,0.168326
1232,0.054504,0.114404,0.294885
1233,0.091583,0.096331,0.312965
1234,0.035965,0.005964,0.005607
1235,-0.038191,-0.06633,-0.283671
1236,-0.05673,-0.12055,-0.446389
1237,-0.05673,-0.102477,-0.120952
1238,-0.05673,-0.030183,0.150246
1239,-0.07527,-0.06633,-0.193271
1240,0.017426,0.005964,-0.247511
1241,0.035965,0.024037,0.005607
1242,0.017426,0.005964,0.023687
1243,-0.038191,-0.048257,-0.229431
1244,-0.07527,-0.102477,-0.30175
1245,-0.038191,-0.030183,-0.012473
1246,0.073044,0.096331,0.349125
1247,0.054504,0.078257,0.276805
1248,0.091583,0.04211,0.023687
1249,-0.038191,-0.01211,-0.084792
1250,-0.07527,-0.030183,-0.30175
1251,-0.05673,-0.048257,-0.30175
1252,-0.019652,0.005964,-0.012473
1253,0.035965,0.096331,0.421444
1254,0.035965,0.096331,0.403364
1255,0.035965,0.060184,0.186406
1256,0.035965,0.005964,-0.211351
1257,0.017426,0.04211,0.150246
1258,-0.019652,0.024037,0.132166
1259,-0.038191,-0.030183,-0.030552
1260,-0.038191,-0.01211,0.114086
1261,-0.038191,-0.01211,-0.048632
1262,0.017426,0.04211,0.023687
1263,0.073044,0.114404,0.457604
1264,-0.001113,0.024037,0.312965
1265,-0.112348,-0.102477,-0.283671
1266,-0.038191,-0.084403,-0.482549
1267,0.017426,-0.030183,-0.229431
1268,0.054504,0.005964,-0.283671
1269,0.054504,0.060184,0.023687
1270,0.017426,0.005964,0.059847
1271,0.017426,0.024037,0.312965
1272,-0.001113,0.005964,0.005607
1273,-0.001113,0.005964,-0.102872
1274,-0.05673,-0.102477,-0.229431
1275,-0.038191,-0.06633,-0.247511
1276,-0.019652,-0.048257,-0.120952
1277,-0.019652,-0.01211,0.114086
1278,-0.019652,0.024037,0.150246
1279,-0.038191,-0.01211,-0.030552
1280,0.035965,0.078257,0.023687
1281,0.035965,0.096331,0.294885
1282,-0.001113,0.024037,0.240646
1283,-0.07527,-0.048257,0.096007
1284,-0.093809,-0.084403,-0.102872
1285,-0.038191,-0.048257,-0.102872
1286,-0.001113,0.024037,0.005607
1287,0.017426,0.078257,0.150246
1288,0.054504,0.060184,-0.084792
1289,0.054504,0.04211,-0.211351
1290,-0.019652,-0.030183,-0.283671
1291,-0.05673,-0.048257,0.005607
1292,-0.019652,-0.030183,0.005607
1293,0.017426,0.024037,0.059847
1294,0.054504,0.078257,0.132166
1295,-0.019652,0.005964,-0.048632
1296,0.017426,0.04211,0.041767
1297,0.073044,0.078257,0.041767
1298,0.017426,0.04211,0.023687
1299,-0.05673,-0.030183,0.077927
1300,-0.093809,-0.06633,-0.066712
1301,-0.05673,-0.06633,-0.211351
1302,-0.038191,-0.01211,-0.048632
1303,0.035965,0.024037,0.005607
1304,-0.001113,-0.01211,-0.066712
1305,-0.019652,-0.01211,-0.012473
1306,-0.019652,-0.030183,0.096007
1307,0.017426,0.024037,0.204486
1308,0.035965,0.060184,0.222566
1309,0.017426,0.024037,-0.030552
1310,0.017426,0.024037,-0.175191
1311,-0.05673,-0.048257,-0.175191
1312,-0.019652,0.005964,0.059847
1313,-0.019652,-0.01211,-0.048632
1314,-0.038191,-0.030183,-0.39215
1315,-0.05673,-0.084403,-0.175191
1316,-0.001113,0.060184,0.385284
1317,0.035965,0.114404,0.385284
1318,0.054504,0.078257,0.041767
1319,-0.001113,0.04211,-0.066712
1320,-0.001113,0.04211,-0.193271
1321,0.017426,0.024037,-0.265591
1322,-0.093809,-0.084403,0.041767
1323,-0.07527,-0.048257,0.294885
1324,-0.001113,0.005964,0.367205
1325,0.017426,0.04211,0.132166
1326,0.017426,-0.01211,-0.084792
1327,-0.001113,-0.01211,-0.139032
1328,0.017426,0.005964,-0.084792
1329,-0.001113,-0.01211,-0.120952
1330,-0.001113,-0.030183,-0.030552
1331,0.017426,0.005964,-0.120952
1332,-0.001113,-0.048257,-0.193271
1333,0.017426,-0.01211,0.005607
1334,0.017426,-0.01211,0.222566
1335,0.017426,0.024037,0.222566
1336,0.017426,0.04211,0.114086
1337,0.017426,0.04211,0.276805
1338,-0.001113,0.04211,0.023687
1339,0.017426,-0.01211,-0.102872
1340,-0.038191,0.005964,-0.066712
1341,-0.05673,-0.030183,-0.084792
1342,-0.001113,-0.01211,-0.102872
1343,0.035965,0.04211,-0.120952
1344,0.091583,0.04211,-0.157112
1345,-0.001113,-0.030183,-0.048632
1346,-0.001113,0.005964,0.168326
1347,-0.07527,-0.030183,-0.030552
1348,-0.038191,-0.030183,0.041767
1349,-0.019652,-0.030183,-0.120952
1350,-0.038191,-0.01211,-0.048632
1351,0.035965,0.060184,0.096007
1352,0.091583,0.060184,0.096007
1353,0.035965,0.005964,-0.030552
1354,-0.038191,-0.030183,0.041767
1355,-0.05673,-0.030183,0.059847
1356,-0.001113,0.04211,0.204486
1357,0.017426,0.04211,0.331045
1358,-0.038191,-0.01211,0.023687
1359,-0.019652,-0.048257,-0.42831
1360,-0.001113,0.005964,-0.33791
1361,0.017426,-0.01211,-0.139032
1362,-0.001113,-0.01211,0.258725
1363,-0.001113,0.04211,0.240646
1364,-0.038191,0.005964,-0.030552
1365,0.054504,0.078257,0.059847
1366,0.017426,0.024037,-0.102872
1367,-0.001113,-0.030183,-0.084792
1368,-0.05673,-0.12055,-0.084792
1369,-0.093809,-0.06633,0.005607
1370,-0.019652,0.04211,0.204486
1371,-0.001113,0.024037,0.168326
1372,0.017426,0.005964,-0.048632
1373,0.017426,0.005964,-0.066712
1374,0.035965,0.024037,-0.048632
1375,-0.001113,0.005964,-0.030552
1376,-0.001113,0.005964,0.023687
1377,-0.019652,0.005964,0.077927
1378,0.035965,0.024037,0.150246
1379,0.054504,0.060184,0.186406
1380,0.035965,0.04211,0.114086
1381,0.017426,0.005964,-0.084792
1382,-0.05673,-0.084403,-0.211351
1383,-0.112348,-0.102477,-0.247511
1384,-0.001113,0.005964,-0.139032
1385,-0.001113,0.04211,-0.175191
1386,-0.038191,-0.01211,-0.175191
1387,-0.019652,-0.06633,-0.102872
1388,-0.001113,-0.01211,0.240646
1389,0.035965,0.060184,0.349125
1390,0.035965,0.060184,0.258725
1391,-0.001113,0.024037,-0.012473
1392,-0.038191,-0.048257,-0.283671
1393,-0.038191,-0.030183,-0.102872
1394,0.073044,0.060184,0.096007
1395,0.054504,0.04211,0.150246
1396,-0.05673,-0.030183,0.204486
1397,-0.05673,0.005964,0.114086
1398,-0.038191,0.024037,-0.157112
1399,-0.001113,0.024037,-0.084792
1400,0.017426,0.024037,-0.120952
1401,0.035965,0.005964,0.077927
1402,-0.001113,0.024037,0.403364
1403,-0.019652,0.04211,0.222566
1404,-0.038191,-0.01211,-0.120952
1405,-0.038191,-0.084403,-0.464469
1406,-0.07527,-0.12055,-0.518709
1407,-0.07527,-0.138624,-0.42831
1408,-0.038191,-0.030183,-0.102872
1409,0.017426,0.04211,0.294885
1410,0.073044,0.114404,0.493764
1411,0.054504,0.114404,0.493764
1412,0.035965,0.114404,0.204486
1413,0.017426,0.024037,0.059847
1414,-0.019652,-0.01211,-0.283671
1415,-0.001113,-0.01211,-0.41023
1416,-0.001113,-0.01211,-0.211351
1417,-0.001113,0.024037,0.204486
1418,-0.038191,-0.030183,0.041767
1419,-0.07527,-0.06633,-0.139032
1420,-0.07527,-0.06633,-0.175191
1421,-0.019652,0.005964,0.186406
1422,0.035965,0.096331,0.367205
1423,0.054504,0.096331,0.258725
1424,0.035965,0.04211,0.059847
1425,-0.001113,0.005964,-0.084792
1426,-0.001113,-0.030183,-0.193271
1427,-0.001113,-0.030183,0.041767
1428,-0.001113,0.005964,0.168326
1429,0.073044,0.078257,0.114086
1430,0.054504,0.060184,0.059847
1431,-0.019652,0.005964,-0.030552
1432,-0.05673,-0.048257,-0.120952
1433,-0.019652,-0.030183,-0.066712
1434,-0.019652,-0.01211,0.132166
1435,-0.038191,0.005964,0.168326
1436,-0.038191,-0.01211,-0.066712
1437,-0.038191,-0.048257,-0.247511
1438,-0.038191,-0.048257,-0.33791
1439,-0.038191,-0.06633,-0.283671
1440,-0.05673,-0.12055,-0.139032
1441,-0.019652,-0.030183,0.005607
1442,0.017426,0.005964,0.096007
1443,0.035965,0.096331,0.331045
1444,0.054504,0.114404,0.439524
1445,-0.001113,0.060184,0.204486
1446,-0.001113,0.04211,0.096007
1447,-0.05673,-0.048257,-0.247511
1448,-0.019652,-0.01211,-0.048632
1449,0.017426,0.005964,-0.066712
1450,-0.038191,-0.01211,-0.120952
1451,-0.001113,-0.01211,0.041767
1452,0.035965,0.078257,0.331045
1453,0.073044,0.096331,0.258725
1454,0.035965,0.04211,-0.012473
1455,-0.038191,-0.030183,-0.102872
1456,-0.038191,-0.030183,-0.048632
1457,0.054504,0.024037,-0.048632
1458,0.035965,0.024037,-0.193271
1459,-0.001113,-0.06633,-0.31983
1460,-0.112348,-0.084403,0.023687
1461,-0.05673,0.024037,0.186406
1462,-0.038191,-0.030183,-0.012473
1463,-0.038191,-0.01211,-0.102872
1464,-0.019652,-0.048257,-0.175191
1465,-0.038191,-0.048257,-0.30175
1466,-0.019652,-0.01211,-0.012473
1467,0.035965,0.078257,0.258725
1468,0.054504,0.060184,0.276805
1469,0.035965,0.005964,0.114086
1470,0.035965,0.04211,0.005607
1471,0.054504,0.060184,0.114086
1472,0.035965,0.005964,0.077927
1473,-0.001113,-0.01211,-0.030552
1474,-0.112348,-0.06633,-0.102872
1475,-0.038191,-0.01211,0.077927
1476,0.035965,0.078257,0.258725
1477,0.054504,0.04211,0.077927
1478,0.017426,-0.030183,-0.102872
1479,0.017426,-0.048257,-0.175191
1480,-0.019652,-0.06633,-0.157112
1481,-0.019652,-0.06633,-0.31983
1482,-0.019652,-0.06633,-0.211351
1483,0.035965,0.005964,0.023687
1484,0.035965,0.024037,0.077927
1485,0.054504,0.024037,0.114086
1486,0.017426,0.04211,0.132166
1487,-0.038191,0.005964,-0.012473
1488,-0.05673,-0.084403,-0.33791
1489,-0.093809,-0.084403,-0.464469
1490,-0.093809,-0.030183,-0.030552
1491,-0.05673,0.078257,0.240646
1492,-0.001113,0.060184,0.276805
1493,0.054504,0.114404,0.258725
1494,-0.001113,0.078257,0.258725
1495,-0.001113,0.005964,0.132166
1496,-0.038191,-0.030183,-0.120952
1497,-0.07527,-0.048257,-0.229431
1498,-0.001113,-0.030183,-0.048632
1499,0.017426,0.005964,0.077927
1500,0.017426,0.060184,0.168326
1501,0.035965,0.060184,0.150246
1502,0.017426,0.060184,0.168326
1503,-0.001113,0.078257,0.150246
1504,0.054504,0.024037,-0.012473
1505,0.017426,0.005964,-0.157112
1506,-0.001113,-0.048257,-0.247511
1507,-0.019652,-0.030183,-0.247511
1508,-0.038191,-0.01211,0.331045
1509,-0.038191,0.024037,0.367205
1510,-0.038191,-0.030183,0.005607
1511,-0.07527,-0.06633,-0.283671
1512,-0.019652,-0.030183,-0.120952
1513,-0.019652,0.024037,0.150246
1514,0.035965,0.04211,0.059847
1515,0.035965,0.04211,-0.066712
1516,0.035965,0.024037,-0.030552
1517,0.035965,0.04211,0.077927
1518,0.017426,0.04211,0.240646
1519,-0.019652,0.005964,0.096007
1520,-0.001113,0.024037,-0.084792
1521,-0.038191,-0.102477,-0.31983
1522,-0.038191,-0.048257,-0.139032
1523,0.017426,0.005964,-0.102872
1524,0.035965,0.060184,0.276805
1525,-0.019652,-0.030183,0.059847
1526,-0.05673,-0.01211,-0.102872
1527,-0.05673,-0.030183,-0.30175
1528,-0.038191,-0.06633,-0.265591
1529,-0.019652,-0.01211,0.096007
1530,0.035965,0.024037,0.294885
1531,0.054504,0.078257,0.294885
1532,-0.019652,-0.01211,-0.211351
1533,-0.001113,-0.048257,-0.33791
1534,-0.019652,-0.030183,-0.229431
1535,0.017426,0.024037,0.041767
1536,0.017426,0.060184,0.276805
1537,-0.001113,0.096331,0.312965
1538,0.035965,0.060184,0.204486
1539,-0.001113,0.024037,0.150246
1540,0.017426,0.024037,-0.030552
1541,-0.001113,0.005964,-0.048632
1542,-0.001113,-0.030183,0.023687
1543,-0.019652,0.005964,0.059847
1544,-0.019652,0.005964,-0.030552
1545,-0.019652,0.005964,-0.120952
1546,-0.019652,-0.030183,-0.102872
1547,0.035965,0.005964,0.096007
1548,0.091583,0.060184,0.132166
1549,-0.019652,0.024037,0.005607
1550,-0.038191,-0.030183,-0.157112
1551,-0.07527,-0.06633,-0.193271
1552,-0.038191,-0.048257,-0.229431
1553,-0.019652,-0.01211,-0.265591
1554,-0.001113,0.024037,0.005607
1555,-0.001113,0.005964,0.077927
1556,-0.038191,-0.01211,0.041767
1557,-0.019652,-0.01211,0.077927
1558,-0.019652,0.005964,0.023687
1559,-0.001113,0.024037,0.132166
1560,-0.001113,0.005964,0.059847
1561,-0.019652,-0.030183,0.023687
1562,0.017426,0.005964,-0.030552
1563,0.017426,0.005964,0.005607
1564,0.054504,0.04211,0.077927
1565,0.073044,0.04211,0.168326
1566,-0.001113,-0.01211,-0.048632
1567,-0.038191,-0.030183,-0.120952
1568,-0.05673,-0.048257,-0.157112
1569,-0.038191,-0.01211,-0.102872
1570,-0.05673,-0.048257,-0.084792
1571,-0.019652,-0.030183,-0.157112
1572,-0.019652,0.005964,-0.102872
1573,0.017426,0.060184,0.023687
1574,0.054504,0.04211,0.150246
1575,-0.019652,-0.01211,0.114086
1576,-0.019652,-0.01211,0.132166
1577,-0.001113,0.005964,0.077927
1578,0.017426,0.04211,0.059847
1579,0.017426,0.04211,0.041767
1580,-0.001113,0.024037,-0.048632
1581,-0.038191,-0.030183,-0.120952
1582,-0.019652,-0.01211,0.023687
1583,-0.001113,0.04211,0.222566
1584,0.035965,0.078257,0.204486
1585,0.035965,0.060184,0.150246
1586,0.073044,0.078257,0.168326
1587,0.017426,0.024037,0.041767
1588,-0.05673,-0.048257,-0.120952
1589,-0.038191,-0.048257,-0.193271
1590,-0.038191,-0.048257,-0.211351
1591,-0.05673,-0.06633,-0.193271
1592,-0.019652,-0.06633,-0.157112
1593,-0.019652,-0.030183,-0.193271
1594,-0.019652,-0.030183,-0.012473
1595,-0.038191,-0.01211,0.168326
1596,-0.001113,0.024037,0.150246
1597,-0.001113,0.024037,0.096007
1598,-0.001113,0.024037,0.041767
1599,0.017426,0.024037,0.041767
1600,-0.001113,0.04211,0.077927
1601,-0.001113,0.024037,0.041767
1602,0.035965,0.024037,0.023687
1603,-0.019652,-0.01211,-0.102872
1604,-0.038191,-0.048257,-0.247511
1605,-0.019652,-0.048257,0.023687
1606,-0.001113,0.005964,0.096007
1607,-0.001113,0.005964,0.041767
1608,-0.001113,0.024037,0.059847
1609,0.035965,0.024037,0.059847
1610,0.035965,0.04211,0.096007
1611,-0.019652,0.005964,-0.012473
1612,-0.05673,-0.048257,-0.157112
1613,-0.05673,-0.084403,-0.102872
1614,-0.001113,0.005964,0.023687
1615,0.017426,0.024037,0.005607
1616,-0.001113,0.005964,0.023687
1617,-0.001113,0.005964,0.059847
1618,-0.001113,0.005964,0.005607
1619,-0.001113,0.04211,0.041767
1620,0.017426,0.04211,0.096007
1621,0.054504,0.060184,0.077927
1622,0.054504,0.024037,-0.012473
1623,-0.019652,0.024037,0.005607
1624,0.017426,0.005964,0.023687
1625,-0.001113,0.005964,-0.084792
1626,-0.019652,-0.048257,-0.139032
1627,-0.07527,-0.084403,-0.120952
1628,-0.038191,-0.048257,-0.120952
1629,-0.05673,-0.048257,-0.066712
1630,-0.019652,-0.030183,-0.066712
1631,-0.019652,-0.01211,-0.030552
1632,-0.001113,0.024037,0.005607
1633,0.017426,0.060184,0.132166
1634,0.035965,0.078257,0.186406
1635,0.017426,0.060184,0.132166
1636,-0.019652,-0.01211,-0.139032
1637,-0.019652,-0.01211,-0.211351
1638,-0.019652,-0.030183,-0.211351
1639,-0.038191,0.005964,0.168326
1640,-0.05673,-0.01211,0.041767
1641,-0.038191,-0.048257,-0.048632
1642,-0.001113,0.005964,-0.066712
1643,-0.001113,0.024037,0.114086
1644,0.017426,0.024037,0.132166
1645,0.035965,0.024037,0.096007
1646,0.073044,0.060184,0.132166
1647,0.035965,0.04211,0.041767
1648,-0.001113,0.005964,-0.030552
1649,-0.001113,-0.030183,-0.048632
1650,-0.001113,0.005964,0.023687
1651,-0.001113,-0.01211,-0.012473
1652,-0.019652,-0.01211,-0.012473
1653,-0.001113,0.024037,0.005607
1654,0.017426,0.024037,0.077927
1655,-0.001113,0.005964,0.023687
1656,-0.019652,0.005964,0.041767
1657,-0.001113,0.024037,0.041767
1658,0.017426,0.04211,0.041767
1659,-0.001113,-0.01211,-0.066712
1660,0.017426,0.024037,0.041767
1661,-0.001113,0.005964,0.132166
1662,-0.001113,0.024037,0.168326
1663,-0.001113,-0.030183,-0.012473
1664,-0.038191,-0.01211,-0.030552
1665,-0.019652,-0.01211,-0.066712
1666,-0.019652,0.005964,-0.066712
1667,-0.019652,-0.01211,-0.066712
1668,0.017426,0.024037,0.041767
1669,-0.001113,0.024037,0.059847
1670,-0.001113,0.005964,-0.048632
1671,-0.038191,-0.01211,-0.084792
1672,-0.019652,-0.030183,-0.102872
1673,-0.019652,-0.030183,-0.120952
1674,-0.001113,-0.030183,-0.048632
1675,-0.001113,-0.01211,-0.012473
1676,-0.019652,-0.01211,0.005607
1677,0.017426,0.005964,0.005607
1678,0.017426,0.005964,0.041767
1679,0.035965,0.024037,0.059847
1680,0.017426,0.005964,0.041767
1681,0.035965,0.024037,0.059847
1682,-0.001113,0.024037,0.059847
1683,-0.001113,0.005964,0.023687
1684,-0.019652,-0.01211,-0.012473
1685,-0.019652,0.005964,0.005607
1686,-0.038191,-0.01211,-0.012473
1687,-0.038191,-0.01211,-0.012473
1688,-0.038191,0.005964,0.005607
1689,-0.019652,0.005964,0.005607
1690,-0.019652,0.005964,-0.012473
1691,-0.001113,0.024037,0.023687
1692,-0.001113,0.005964,0.023687
1693,-0.019652,-0.01211,0.023687
1694,-0.019652,0.005964,0.023687
1695,-0.001113,0.005964,0.041767
1696,-0.001113,0.005964,0.023687
1697,-0.001113,0.024037,0.005607
1698,0.035965,0.005964,0.005607
1699,-0.001113,0.024037,0.023687
1700,-0.001113,0.024037,0.005607
1701,-0.019652,-0.01211,-0.012473
1702,-0.038191,-0.01211,-0.012473
1703,-0.001113,0.005964,-0.012473
1704,-0.001113,0.005964,-0.012473
1705,-0.001113,-0.01211,0.005607
1706,0.017426,0.005964,0.005607
1707,0.017426,0.005964,0.023687
1708,-0.001113,0.005964,0.005607
1709,-0.019652,-0.01211,0.023687
1710,-0.019652,-0.01211,0.005607
1711,0.017426,0.024037,0.023687
1712,-0.001113,0.005964,0.023687
1713,-0.001113,0.005964,-0.030552
1714,-0.001113,-0.01211,-0.012473
1715,-0.001113,0.024037,0.023687
1716,-0.001113,0.005964,0.041767
1717,-0.001113,-0.01211,0.023687
1718,-0.001113,0.005964,0.023687
1719,0.017426,-0.01211,0.005607
1720,0.017426,0.005964,0.041767
1721,-0.001113,0.005964,0.005607
1722,0.017426,0.005964,-0.012473
1723,-0.001113,-0.01211,-0.012473
1724,-0.001113,-0.01211,-0.012473
1725,-0.001113,-0.01211,-0.048632
1726,-0.001113,0.005964,0.005607
1727,-0.001113,0.005964,0.023687
1728,-0.001113,0.005964,0.005607
1729,-0.001113,-0.01211,0.005607
1730,-0.019652,0.005964,0.005607
1731,-0.001113,-0.030183,-0.030552
1732,0.017426,0.024037,-0.048632
1733,-0.001113,0.024037,-0.048632
1734,-0.001113,-0.01211,-0.012473
1735,0.017426,0.04211,-0.030552
1736,-0.038191,0.024037,0.005607
1737,-0.001113,0.024037,0.041767
1738,0.017426,0.005964,0.005607
1739,0.017426,0.024037,0.023687
1740,0.017426,0.005964,0.041767
1741,0.035965,0.024037,0.041767
1742,0.054504,0.024037,0.041767
1743,0.054504,0.005964,0.041767
1744,0.054504,0.005964,0.059847
1745,0.054504,0.005964,0.023687
1746,0.035965,0.005964,0.005607
1747,0.017426,0.024037,0.023687
1748,-0.001113,0.005964,0.005607
1749,-0.001113,0.005964,0.005607
1750,-0.038191,-0.01211,-0.012473
1751,-0.07527,-0.01211,-0.012473
1752,-0.07527,-0.01211,-0.012473
1753,-0.019652,0.005964,-0.012473
1754,0.017426,0.005964,-0.012473
1755,0.017426,0.005964,-0.012473
1756,0.035965,0.024037,-0.012473
1757,0.017426,0.024037,0.005607
1758,-0.019652,0.005964,0.005607
1759,-0.038191,-0.030183,0.005607
1760,-0.019652,-0.01211,0.005607
1761,-0.019652,0.005964,0.005607
1762,-0.07527,-0.01211,0.023687
1763,-0.038191,0.005964,0.023687
1764,-0.019652,-0.01211,0.005607
1765,-0.001113,-0.01211,0.023687
1766,-0.019652,-0.01211,-0.012473
1767,-0.001113,0.005964,-0.012473
1768,-0.001113,0.024037,-0.012473
1769,-0.019652,0.024037,0.005607
1770,-0.019652,0.024037,-0.012473
1771,-0.019652,0.005964,-0.030552
1772,-0.05673,0.005964,-0.012473
1773,-0.001113,0.005964,0.005607
1774,-0.001113,0.005964,-0.012473
1775,0.054504,-0.01211,-0.012473
1776,0.073044,0.005964,0.023687
1777,0.035965,0.024037,0.041767
1778,0.017426,0.005964,0.023687
1779,0.035965,-0.01211,0.041767
1780,-0.001113,0.005964,0.041767
1781,-0.019652,0.005964,0.023687
1782,-0.019652,0.005964,0.023687
1783,-0.019652,0.005964,0.023687
1784,-0.038191,-0.01211,-0.030552
1785,-0.05673,-0.01211,-0.048632
1786,-0.05673,-0.030183,-0.030552
1787,-0.038191,-0.01211,-0.048632
1788,0.017426,0.024037,-0.048632
1789,0.017426,0.005964,0.005607
1790,-0.001113,0.005964,0.023687
1791,-0.001113,0.024037,0.005607
1792,0.017426,0.024037,0.041767
1793,-0.019652,0.005964,0.041767
1794,-0.019652,0.005964,0.059847
1795,0.017426,0.024037,0.023687
1796,0.017426,0.04211,0.059847
1797,-0.001113,0.024037,0.059847
1798,-0.001113,0.024037,0.005607
1799,0.035965,0.024037,-0.012473
1800,0.017426,0.024037,0.023687
1801,0.017426,0.005964,0.023687
1802,-0.001113,0.005964,0.023687
1803,-0.038191,-0.01211,-0.030552
1804,-0.019652,0.005964,-0.012473
1805,0.091583,0.005964,-0.012473
1806,0.128661,0.024037,-0.030552
1807,0.128661,0.024037,-0.012473
1808,0.128661,0.005964,0.005607
1809,0.110122,0.005964,-0.012473
1810,0.073044,0.005964,0.005607
1811,0.017426,-0.01211,0.041767
1812,-0.038191,0.005964,0.005607
1813,-0.038191,0.024037,0.023687
1814,-0.149426,-0.01211,0.023687
1815,-0.186504,-0.01211,0.005607
1816,-0.093809,-0.01211,-0.012473
1817,-0.038191,0.005964,-0.012473
1818,-0.05673,0.005964,-0.012473
1819,-0.038191,-0.01211,-0.030552
1820,-0.038191,-0.01211,-0.030552
1821,-0.038191,-0.01211,-0.012473
1822,-0.019652,-0.01211,-0.030552
1823,-0.038191,0.005964,-0.012473
1824,-0.038191,-0.01211,-0.012473
1825,-0.001113,-0.01211,0.023687
1826,-0.001113,-0.01211,0.023687
1827,0.035965,0.005964,0.023687
1828,0.091583,0.005964,0.041767
1829,0.110122,0.04211,0.041767
1830,0.110122,0.024037,0.005607
1831,0.073044,0.005964,0.077927
1832,0.017426,0.005964,0.005607
1833,0.054504,0.005964,-0.012473
1834,0.017426,-0.01211,-0.012473
1835,-0.149426,0.005964,0.005607
1836,-0.05673,0.005964,0.005607
1837,-0.001113,0.005964,-0.012473
1838,-0.001113,0.024037,0.005607
1839,-0.019652,0.024037,0.005607
1840,-0.019652,-0.01211,-0.012473
1841,-0.038191,-0.030183,-0.012473
1842,-0.019652,0.005964,-0.012473
1843,-0.07527,0.024037,0.005607
1844,-0.05673,0.024037,0.005607
1845,-0.019652,0.04211,0.023687
1846,-0.038191,0.04211,0.023687
1847,-0.038191,0.005964,0.005607
1848,-0.019652,0.005964,0.005607
1849,-0.019652,0.024037,0.023687
1850,-0.001113,0.024037,0.005607
1851,-0.038191,-0.01211,-0.012473
1852,-0.019652,0.024037,-0.030552
1853,-0.019652,0.005964,-0.030552
1854,-0.001113,0.005964,-0.030552
1855,-0.001113,0.024037,0.005607
1856,-0.019652,0.005964,0.005607
1857,-0.019652,0.005964,-0.012473
1858,-0.019652,0.005964,-0.012473
1859,-0.019652,-0.01211,0.005607
1860,-0.019652,0.005964,0.005607
1861,-0.001113,0.005964,0.005607
1862,0.017426,0.005964,0.023687
1863,0.017426,0.024037,0.023687
1864,0.017426,0.024037,0.005607
1865,0.017426,0.005964,-0.012473
1866,0.017426,0.024037,0.023687
1867,0.017426,0.005964,0.005607
1868,-0.001113,0.005964,-0.012473
1869,-0.038191,0.005964,-0.030552
1870,-0.038191,0.024037,0.005607
1871,-0.019652,0.024037,-0.030552
1872,-0.019652,0.005964,-0.012473
1873,-0.001113,0.005964,0.005607
1874,0.017426,0.024037,0.023687
1875,0.017426,0.005964,-0.012473
1876,0.017426,0.005964,0.005607
1877,-0.001113,0.005964,0.005607
1878,-0.019652,0.024037,0.005607
1879,-0.019652,-0.01211,0.005607
1880,0.035965,0.005964,0.023687
1881,0.165739,0.024037,0.023687
1882,0.184278,0.005964,-0.012473
1883,0.1472,0.024037,-0.012473
1884,0.091583,0.024037,0.005607
1885,0.073044,0.024037,-0.030552
1886,0.035965,0.005964,-0.030552
1887,-0.001113,0.005964,-0.012473
1888,-0.05673,0.005964,-0.030552
1889,-0.205043,-0.01211,-0.030552
1890,-0.186504,0.005964,-0.012473
1891,-0.07527,0.005964,0.005607
1892,-0.019652,0.005964,0.041767
1893,-0.019652,0.005964,-0.012473
1894,-0.038191,0.005964,0.023687
1895,-0.019652,0.024037,0.005607
1896,-0.038191,0.005964,-0.012473
1897,-0.019652,0.005964,0.023687
1898,-0.019652,0.005964,0.005607
1899,-0.001113,0.005964,-0.012473
1900,-0.019652,0.005964,-0.030552
1901,-0.001113,0.005964,0.005607
1902,-0.001113,0.005964,-0.012473
1903,-0.019652,0.024037,-0.012473
1904,-0.019652,0.005964,-0.012473
1905,-0.019652,0.005964,0.005607
1906,0.017426,0.005964,0.005607
1907,0.017426,0.024037,0.005607
1908,0.035965,0.024037,0.005607
1909,0.091583,0.024037,0.023687
1910,0.073044,0.024037,0.005607
1911,0.035965,0.024037,0.023687
1912,0.035965,0.024037,0.005607
1913,-0.038191,0.005964,-0.012473
1914,-0.05673,-0.01211,-0.030552
1915,-0.07527,-0.01211,0.005607
1916,-0.093809,-0.01211,-0.012473
1917,-0.05673,0.005964,0.005607
1918,-0.019652,0.005964,-0.012473
1919,-0.001113,0.005964,0.005607
1920,-0.001113,0.005964,-0.012473
1921,-0.001113,0.005964,-0.030552
1922,-0.001113,0.005964,0.005607
1923,-0.001113,0.024037,-0.012473
1924,0.017426,0.024037,-0.012473
1925,-0.001113,-0.01211,-0.012473
1926,-0.019652,-0.01211,-0.012473
1927,-0.019652,-0.01211,0.023687
1928,-0.001113,0.005964,-0.012473
1929,-0.019652,0.005964,0.005607
1930,-0.001113,-0.01211,0.023687
1931,-0.019652,0.005964,0.005607
1932,-0.001113,0.005964,0.023687
1933,-0.001113,0.005964,0.005607
1934,-0.001113,0.024037,0.005607
1935,-0.001113,0.024037,-0.012473
1936,-0.001113,0.005964,-0.012473
1937,-0.001113,-0.01211,-0.012473
1938,-0.001113,0.005964,-0.030552
1939,-0.001113,0.024037,-0.012473
1940,-0.001113,0.024037,0.005607
1941,0.017426,0.005964,-0.030552
1942,-0.019652,0.005964,-0.012473
1943,0.017426,0.005964,0.005607
1944,-0.019652,0.024037,0.005607
1945,-0.019652,0.005964,-0.012473
1946,-0.019652,0.005964,0.005607
1947,-0.001113,0.024037,0.005607
1948,-0.001113,0.024037,0.005607
1949,-0.001113,0.024037,-0.012473
1950,-0.001113,0.024037,0.023687
1951,-0.019652,0.005964,0.005607
1952,-0.001113,0.024037,-0.012473
1953,-0.001113,0.024037,-0.048632
1954,-0.001113,0.005964,-0.012473
1955,-0.001113,0.024037,-0.030552
1956,-0.019652,0.005964,-0.030552
1957,-0.019652,-0.01211,-0.012473
1958,-0.001113,0.005964,0.005607
1959,-0.001113,0.005964,-0.012473
1960,-0.001113,0.005964,0.023687
1961,-0.019652,0.005964,0.041767
1962,-0.001113,0.005964,0.041767
1963,-0.001113,0.005964,0.023687
1964,-0.019652,0.005964,0.023687
1965,-0.001113,0.005964,0.023687
1966,-0.001113,0.005964,0.005607
1967,-0.019652,0.005964,0.023687
1968,0.017426,0.005964,0.023687
1969,-0.019652,0.005964,0.005607
1970,-0.001113,0.024037,-0.030552
1971,-0.001113,0.005964,-0.012473
1972,-0.019652,0.005964,-0.012473
1973,-0.038191,0.005964,-0.030552
1974,-0.038191,0.005964,0.005607
1975,-0.05673,0.005964,-0.012473
1976,-0.019652,-0.01211,-0.030552
1977,0.017426,0.005964,0.023687
1978,0.035965,0.005964,0.023687
1979,0.054504,0.005964,0.023687
1980,-0.001113,0.005964,0.005607
1981,-0.001113,-0.01211,0.023687
1982,-0.019652,0.024037,0.023687
1983,-0.019652,0.005964,0.005607
1984,-0.001113,0.024037,-0.012473
1985,0.017426,0.005964,-0.012473
1986,-0.001113,0.04211,0.005607
1987,-0.019652,0.005964,-0.030552
1988,-0.019652,0.005964,-0.012473
1989,-0.001113,0.005964,0.005607
1990,-0.001113,-0.01211,-0.012473
1991,-0.001113,0.005964,-0.012473
1992,-0.001113,-0.01211,0.005607
1993,-0.019652,-0.01211,0.023687
1994,-0.001113,0.005964,-0.012473
1995,0.017426,0.005964,0.023687
1996,-0.019652,0.005964,0.023687
1997,-0.019652,-0.01211,0.005607
1998,-0.001113,0.005964,0.023687
1999,-0.001113,0.024037,0.023687
2000,0.017426,0.024037,-0.012473
2001,-0.019652,-0.01211,-0.012473
2002,-0.001113,0.005964,-0.012473
2003,-0.001113,0.005964,-0.012473
2004,-0.001113,0.005964,-0.030552
2005,-0.038191,0.005964,-0.030552
2006,-0.001113,0.024037,0.005607
2007,-0.038191,0.005964,-0.030552
2008,-0.001113,0.024037,-0.012473
2009,-0.019652,0.024037,-0.012473
2010,-0.001113,0.005964,0.005607
2011,-0.038191,0.005964,-0.012473
2012,-0.001113,0.005964,0.005607
2013,-0.001113,0.005964,0.023687
2014,-0.001113,0.005964,0.005607
2015,-0.001113,0.024037,0.005607
2016,-0.001113,0.005964,0.023687
2017,-0.001113,0.005964,0.023687
2018,-0.019652,0.005964,-0.012473
2019,-0.001113,-0.01211,-0.030552
2020,-0.001113,-0.01211,0.005607
2021,0.017426,-0.01211,-0.012473
2022,-0.001113,0.005964,-0.030552
2023,-0.019652,0.024037,0.005607
2024,-0.019652,-0.01211,0.005607
2025,-0.001113,0.005964,-0.048632
2026,0.017426,0.005964,0.005607
2027,-0.001113,-0.01211,0.005607
2028,-0.001113,-0.01211,0.005607
2029,-0.001113,0.005964,-0.012473
2030,-0.001113,-0.01211,0.023687
2031,0.017426,0.005964,0.023687
2032,0.017426,0.005964,0.005607
2033,-0.001113,0.005964,0.023687
2034,-0.019652,0.024037,0.005607
2035,-0.001113,0.024037,0.005607
2036,0.017426,0.024037,0.005607
2037,-0.001113,-0.01211,0.005607
2038,-0.038191,0.005964,-0.012473
2039,-0.019652,0.005964,-0.030552
2040,-0.001113,0.005964,-0.012473
2041,-0.001113,0.005964,-0.012473
2042,0.017426,0.005964,-0.030552
2043,-0.019652,-0.01211,-0.012473
2044,0.017426,-0.01211,0.005607
2045,-0.019652,0.005964,0.023687
2046,0.035965,0.005964,0.005607
2047,-0.019652,0.005964,0.023687
2048,-0.001113,-0.01211,0.041767
2049,-0.001113,-0.01211,0.005607
2050,-0.001113,0.005964,-0.012473
2051,-0.019652,0.005964,0.023687
2052,-0.019652,0.005964,0.005607
2053,-0.001113,-0.01211,-0.012473
2054,-0.001113,0.005964,-0.030552
2055,-0.001113,0.005964,0.005607
2056,0.017426,0.005964,-0.030552
2057,-0.019652,0.024037,-0.012473
2058,-0.019652,0.005964,0.005607
2059,-0.001113,-0.01211,0.005607
2060,-0.019652,0.005964,0.005607
2061,-0.001113,-0.01211,0.005607
2062,-0.019652,0.005964,0.023687
2063,-0.001113,0.024037,0.023687
2064,-0.001113,0.024037,0.005607
2065,-0.019652,0.005964,0.023687
2066,-0.001113,0.005964,0.005607
2067,0.017426,0.024037,-0.030552
2068,-0.019652,-0.01211,-0.012473
2069,0.017426,0.005964,0.005607
2070,-0.019652,0.005964,0.005607
2071,-0.001113,-0.01211,-0.030552
2072,-0.019652,0.005964,-0.012473
2073,-0.019652,0.005964,-0.030552
2074,0.017426,-0.01211,-0.048632
2075,-0.019652,0.005964,-0.012473
2076,-0.019652,0.024037,0.005607
2077,-0.001113,0.005964,-0.012473
2078,-0.001113,0.005964,0.005607
2079,-0.001113,0.005964,0.041767
2080,-0.019652,0.005964,0.023687
2081,-0.019652,-0.01211,-0.012473
2082,0.017426,0.005964,0.023687
2083,0.017426,0.005964,0.005607
2084,-0.001113,0.005964,-0.012473
2085,-0.019652,0.005964,-0.030552
2086,-0.001113,0.005964,0.005607
2087,-0.001113,-0.01211,-0.012473
2088,-0.019652,0.005964,-0.030552
2089,-0.001113,-0.01211,-0.012473
2090,-0.019652,0.005964,0.005607
2091,-0.019652,0.005964,-0.030552
2092,-0.001113,0.005964,-0.012473
2093,-0.001113,-0.01211,0.005607
2094,0.017426,-0.01211,0.023687
2095,-0.001113,0.005964,-0.012473
2096,0.017426,-0.01211,0.005607
2097,-0.019652,0.005964,0.005607
2098,-0.001113,0.005964,0.023687
2099,-0.001113,0.005964,0.023687
2100,-0.001113,0.005964,0.005607
2101,-0.001113,-0.01211,0.023687
2102,-0.001113,0.005964,-0.012473
2103,-0.001113,0.005964,-0.030552
2104,-0.001113,0.005964,0.005607
2105,-0.001113,0.005964,-0.030552
2106,-0.001113,-0.01211,-0.030552
2107,-0.019652,0.005964,0.005607
2108,-0.001113,0.005964,-0.030552
2109,-0.001113,0.024037,-0.012473
2110,-0.038191,0.024037,0.005607
2111,-0.001113,0.096331,0.023687
2112,-0.019652,0.005964,0.005607
2113,-0.019652,0.005964,0.005607
2114,-0.019652,0.005964,0.023687
2115,-0.001113,0.005964,0.023687
2116,-0.001113,0.024037,-0.012473
2117,-0.001113,0.005964,0.041767
2118,-0.001113,0.005964,0.005607
2119,-0.001113,0.005964,-0.012473
2120,-0.001113,0.024037,-0.030552
2121,-0.019652,0.005964,0.005607
2122,-0.001113,0.005964,-0.030552
2123,-0.001113,-0.01211,-0.030552
2124,-0.001113,0.005964,0.005607
2125,-0.038191,0.005964,0.023687
2126,-0.001113,0.005964,0.005607
2127,-0.001113,0.005964,0.023687
2128,-0.001113,0.005964,0.005607
2129,-0.001113,-0.01211,0.041767
2130,0.017426,0.005964,0.023687
2131,-0.001113,0.024037,0.023687
2132,-0.019652,0.005964,0.005607
2133,0.017426,0.005964,0.005607
2134,-0.001113,0.005964,-0.012473
2135,-0.001113,0.005964,0.023687
2136,0.017426,0.005964,-0.012473
2137,-0.019652,-0.01211,-0.030552
2138,-0.001113,0.005964,0.005607
2139,0.017426,0.024037,0.005607
2140,-0.001113,0.005964,-0.012473
2141,-0.019652,0.005964,0.005607
2142,-0.001113,0.005964,0.005607
2143,-0.019652,-0.030183,-0.012473
2144,-0.001113,0.005964,-0.012473
2145,-0.019652,0.005964,0.005607
2146,-0.019652,0.005964,0.023687
2147,-0.001113,0.005964,0.005607
2148,-0.019652,0.005964,0.023687
2149,-0.001113,0.005964,0.023687
2150,-0.001113,0.005964,0.005607
2151,-0.001113,0.005964,-0.012473
2152,-0.019652,-0.01211,-0.012473
2153,-0.001113,-0.01211,0.005607
2154,-0.001113,0.024037,0.005607
2155,-0.001113,0.005964,0.005607
2156,-0.001113,-0.01211,-0.012473
2157,-0.001113,-0.01211,-0.030552
2158,-0.001113,0.005964,-0.012473
2159,-0.038191,-0.01211,0.005607
2160,-0.019652,-0.01211,0.023687
2161,0.017426,0.005964,-0.012473
2162,-0.001113,-0.01211,0.023687
2163,0.017426,0.005964,0.041767
2164,-0.019652,-0.01211,0.023687
2165,-0.001113,0.005964,0.023687
2166,-0.019652,-0.01211,0.023687
2167,-0.019652,-0.01211,0.023687
2168,-0.001113,-0.01211,-0.012473
2169,-0.001113,0.005964,-0.012473
2170,-0.001113,-0.01211,0.005607
2171,-0.001113,-0.01211,-0.012473
2172,0.017426,0.024037,-0.012473
2173,-0.001113,0.005964,0.005607
2174,-0.019652,-0.01211,-0.030552
2175,-0.019652,0.005964,0.023687
2176,-0.019652,0.005964,0.005607
2177,-0.001113,-0.01211,0.005607
2178,-0.001113,0.005964,0.005607
2179,-0.001113,0.005964,0.005607
2180,0.017426,0.005964,0.023687
2181,-0.001113,0.024037,0.005607
2182,-0.019652,0.005964,0.005607
2183,-0.019652,0.005964,0.023687
2184,-0.001113,0.005964,0.005607
2185,-0.019652,0.024037,0.005607
2186,-0.019652,0.005964,-0.012473
2187,-0.001113,0.024037,0.005607
2188,-0.038191,-0.01211,-0.012473
2189,-0.001113,0.005964,-0.030552
2190,-0.001113,-0.01211,-0.012473
2191,-0.001113,0.005964,0.023687
2192,-0.001113,-0.01211,-0.012473
2193,-0.001113,0.005964,-0.012473
2194,-0.001113,0.005964,0.023687
2195,0.017426,-0.01211,0.023687
2196,-0.001113,0.024037,-0.012473
2197,-0.001113,0.005964,0.041767
2198,-0.038191,-0.01211,0.023687
2199,0.017426,0.024037,0.005607
2200,0.017426,0.005964,0.005607
2201,-0.019652,0.005964,0.005607
2202,-0.019652,-0.030183,0.005607
2203,-0.001113,0.005964,-0.012473
2204,-0.019652,-0.01211,-0.048632
2205,-0.019652,0.005964,0.005607
2206,-0.019652,0.005964,-0.030552
2207,-0.019652,0.005964,-0.012473
2208,-0.001113,0.024037,0.005607
2209,-0.001113,0.024037,-0.012473
2210,0.035965,0.005964,-0.030552
2211,-0.001113,0.024037,0.005607
2212,-0.001113,-0.01211,0.023687
2213,-0.019652,0.005964,0.005607
2214,-0.001113,0.005964,0.005607
2215,-0.001113,0.005964,0.023687
2216,0.017426,0.024037,0.005607
2217,-0.038191,-0.01211,0.005607
2218,-0.019652,0.024037,0.059847
2219,-0.019652,0.024037,0.005607
2220,-0.019652,0.005964,0.005607
2221,-0.001113,0.024037,-0.012473
2222,0.017426,0.005964,-0.012473
2223,0.017426,-0.01211,-0.012473
2224,-0.001113,0.005964,-0.030552
2225,-0.019652,-0.01211,0.005607
2226,-0.001113,-0.01211,0.005607
2227,-0.001113,0.005964,-0.012473
2228,-0.019652,0.024037,-0.012473
2229,-0.019652,0.005964,0.005607
2230,-0.001113,0.005964,0.023687
2231,-0.019652,-0.01211,0.005607
2232,0.017426,0.005964,0.023687
2233,-0.001113,0.005964,0.023687
2234,-0.001113,0.005964,0.005607
2235,-0.001113,0.005964,-0.012473
2236,-0.001113,0.005964,0.005607
2237,-0.019652,0.005964,-0.012473
2238,-0.001113,0.005964,-0.012473
2239,-0.001113,0.005964,-0.012473
2240,0.017426,-0.01211,0.005607
2241,-0.001113,-0.01211,-0.012473
2242,-0.019652,0.005964,0.023687
2243,-0.001113,0.005964,-0.012473
2244,-0.038191,0.005964,0.005607
2245,-0.001113,-0.01211,-0.012473
2246,-0.001113,-0.01211,-0.012473
2247,-0.001113,-0.01211,0.023687
2248,-0.001113,0.005964,0.041767
2249,-0.019652,0.005964,0.023687
2250,-0.001113,0.005964,0.023687
2251,-0.001113,0.005964,0.005607
2252,-0.019652,-0.01211,0.005607
2253,0.017426,0.005964,0.041767
2254,-0.001113,0.005964,0.005607
2255,0.017426,0.024037,0.005607
2256,0.017426,0.005964,-0.012473
2257,-0.019652,-0.01211,0.005607
2258,-0.019652,-0.01211,-0.030552
2259,-0.001113,0.005964,-0.030552
2260,-0.001113,0.005964,0.005607
2261,-0.001113,0.024037,0.005607
2262,-0.019652,0.005964,-0.030552
2263,0.017426,0.024037,0.005607
2264,0.017426,0.005964,0.005607
2265,-0.001113,0.005964,0.023687
2266,-0.001113,0.005964,0.005607
2267,0.017426,0.024037,0.005607
2268,-0.001113,0.024037,0.041767
2269,-0.001113,0.005964,0.005607
2270,-0.001113,-0.01211,0.005607
2271,-0.001113,0.005964,0.023687
2272,-0.001113,0.005964,-0.012473
2273,-0.038191,0.005964,-0.012473
2274,-0.001113,0.005964,-0.012473
2275,-0.001113,-0.01211,-0.012473
2276,-0.001113,0.005964,-0.030552
2277,-0.019652,-0.01211,-0.012473
2278,-0.001113,0.005964,0.005607
2279,0.017426,0.024037,0.005607
2280,0.017426,-0.01211,0.005607
2281,-0.019652,-0.01211,0.005607
2282,0.035965,0.005964,0.023687
2283,-0.019652,-0.01211,0.005607
2284,-0.001113,0.005964,0.023687
2285,-0.038191,0.005964,0.023687
2286,0.017426,0.024037,0.005607
2287,0.017426,0.005964,-0.012473
2288,-0.001113,0.005964,-0.012473
2289,-0.001113,0.005964,0.005607
2290,-0.001113,0.005964,-0.012473
2291,-0.019652,0.005964,-0.030552
2292,-0.001113,0.005964,0.005607
2293,-0.019652,-0.01211,-0.030552
2294,-0.038191,0.005964,-0.030552
2295,0.017426,0.024037,0.005607
2296,0.017426,-0.01211,0.023687
2297,-0.001113,0.005964,0.005607
2298,-0.001113,0.005964,0.005607
2299,-0.019652,0.060184,0.023687
2300,-0.001113,0.005964,0.041767
2301,-0.001113,-0.01211,0.005607
2302,-0.001113,0.005964,0.005607
2303,0.017426,0.005964,0.023687
2304,-0.001113,0.005964,0.005607
2305,-0.001113,-0.048257,-0.012473
2306,-0.001113,0.005964,0.005607
2307,-0.001113,0.024037,0.005607
2308,-0.019652,0.005964,-0.012473
2309,-0.001113,0.005964,-0.012473
2310,-0.001113,0.005964,-0.012473
2311,-0.001113,0.005964,-0.012473
2312,-0.019652,0.024037,-0.012473
2313,0.017426,0.005964,-0.012473
2314,0.017426,0.005964,0.023687
2315,-0.019652,-0.01211,0.005607
2316,-0.001113,0.005964,0.005607
2317,-0.019652,0.005964,0.023687
2318,-0.019652,-0.01211,0.023687
2319,0.017426,0.005964,0.023687
2320,-0.001113,-0.01211,0.041767
2321,-0.019652,0.024037,0.005607
2322,0.017426,0.005964,-0.012473
2323,-0.001113,0.005964,-0.030552
2324,-0.001113,0.024037,-0.012473
2325,0.017426,0.024037,0.005607
2326,0.035965,0.005964,-0.012473
2327,0.017426,0.005964,0.005607
2328,-0.001113,-0.01211,-0.012473
2329,-0.019652,0.005964,-0.048632
2330,-0.019652,-0.01211,-0.012473
2331,-0.038191,-0.01211,0.005607
2332,-0.001113,0.005964,0.023687
2333,-0.019652,0.005964,0.005607
2334,0.035965,0.04211,0.023687
2335,-0.001113,0.005964,0.023687
2336,0.035965,0.005964,0.005607
2337,-0.019652,-0.01211,0.023687
2338,-0.019652,0.005964,0.023687
2339,-0.019652,0.005964,0.005607
2340,-0.038191,0.005964,-0.030552
2341,-0.019652,0.024037,0.005607
2342,0.017426,0.024037,0.005607
2343,0.017426,-0.01211,0.005607
2344,0.017426,-0.01211,-0.030552
2345,-0.001113,0.005964,0.005607
2346,-0.001113,0.005964,-0.012473
2347,0.017426,0.005964,0.005607
2348,0.017426,0.005964,0.005607
2349,-0.001113,0.024037,0.023687
2350,0.017426,0.005964,0.005607
2351,-0.001113,-0.01211,0.023687
2352,-0.001113,0.005964,0.023687
2353,-0.001113,0.005964,0.023687
2354,0.017426,0.005964,0.005607
2355,-0.019652,0.005964,0.023687
2356,-0.001113,0.005964,0.005607
2357,0.017426,0.024037,-0.012473
2358,-0.001113,0.024037,-0.030552
2359,-0.001113,0.024037,0.005607
2360,-0.019652,0.005964,-0.012473
2361,-0.019652,-0.01211,-0.012473
2362,-0.001113,0.024037,0.023687
2363,-0.001113,0.005964,0.005607
2364,0.017426,0.024037,-0.012473
2365,-0.001113,0.024037,-0.012473
2366,-0.001113,0.005964,0.023687
2367,0.035965,0.005964,0.005607
2368,0.035965,0.005964,0.005607
2369,-0.019652,0.005964,0.023687
2370,-0.019652,0.005964,0.005607
2371,-0.019652,0.005964,-0.012473
2372,-0.001113,0.005964,0.023687
2373,-0.001113,0.005964,0.005607
2374,-0.001113,-0.01211,-0.012473
2375,-0.001113,0.005964,-0.012473
2376,-0.001113,0.005964,-0.012473
2377,-0.001113,0.005964,-0.012473
2378,-0.001113,0.005964,-0.012473
2379,-0.019652,0.005964,0.005607
2380,-0.019652,-0.01211,0.005607
2381,-0.001113,0.005964,-0.012473
2382,0.017426,0.005964,-0.012473
2383,0.017426,0.005964,0.041767
2384,0.017426,0.024037,0.041767
2385,-0.038191,-0.01211,0.005607
2386,-0.001113,0.005964,0.023687
2387,-0.001113,0.024037,0.023687
2388,-0.001113,-0.01211,-0.012473
2389,-0.001113,-0.01211,-0.012473
2390,-0.001113,0.005964,0.005607
2391,-0.001113,-0.01211,0.005607
2392,-0.001113,-0.01211,-0.030552
2393,-0.001113,0.005964,0.005607
2394,-0.001113,-0.01211,-0.012473
2395,-0.019652,-0.01211,-0.012473
2396,-0.001113,0.005964,-0.048632
2397,-0.001113,0.005964,0.005607
2398,-0.001113,0.005964,0.005607
2399,-0.019652,0.005964,0.005607
2400,-0.001113,0.024037,0.023687
2401,0.017426,0.024037,0.023687
2402,0.017426,0.005964,0.041767
2403,0.017426,0.024037,0.005607
2404,-0.001113,0.005964,0.023687
2405,-0.001113,-0.01211,0.005607
2406,-0.001113,0.005964,0.005607
2407,-0.001113,0.005964,0.005607
2408,-0.019652,0.005964,0.005607
2409,-0.019652,0.005964,-0.012473
2410,-0.001113,0.005964,-0.012473
2411,-0.019652,0.024037,0.005607
2412,-0.001113,0.005964,0.005607
2413,-0.019652,0.005964,-0.012473
2414,-0.001113,0.005964,0.005607
2415,-0.001113,0.005964,0.005607
2416,-0.019652,-0.01211,-0.030552
2417,-0.019652,0.024037,-0.012473
2418,0.035965,0.024037,0.005607
2419,-0.001113,0.005964,0.023687
2420,-0.001113,-0.01211,0.023687
2421,-0.001113,0.005964,0.005607
2422,-0.001113,0.005964,0.005607
2423,-0.001113,-0.01211,0.005607
2424,-0.001113,-0.01211,-0.012473
2425,0.017426,-0.01211,0.041767
2426,-0.019652,0.005964,0.005607
2427,-0.019652,0.005964,0.005607
2428,-0.001113,-0.01211,-0.030552
2429,-0.019652,0.005964,-0.012473
2430,0.017426,0.024037,-0.012473
2431,-0.001113,0.005964,-0.012473
2432,-0.001113,-0.01211,0.005607
2433,0.017426,0.024037,0.023687
2434,-0.001113,0.005964,0.005607
2435,-0.001113,-0.01211,0.005607
2436,-0.019652,-0.01211,0.023687
2437,-0.001113,0.024037,0.023687
2438,-0.019652,0.005964,0.005607
2439,-0.019652,-0.01211,0.005607
2440,-0.001113,0.005964,0.023687
2441,-0.001113,0.005964,-0.012473
2442,0.017426,0.005964,-0.030552
2443,-0.001113,-0.01211,0.023687
2444,-0.001113,0.005964,0.005607
2445,-0.001113,0.024037,-0.012473
2446,-0.001113,0.005964,-0.012473
2447,0.017426,0.005964,-0.012473
2448,-0.019652,0.005964,-0.012473
2449,0.017426,0.005964,0.005607
2450,-0.001113,0.005964,0.023687
2451,-0.001113,0.024037,-0.012473
2452,0.017426,0.005964,0.005607
2453,-0.001113,0.024037,0.023687
2454,0.017426,-0.01211,0.041767
2455,-0.019652,0.024037,0.005607
2456,-0.001113,0.005964,0.023687
2457,-0.001113,0.005964,0.005607
2458,-0.001113,0.005964,-0.030552
2459,-0.001113,0.005964,-0.012473
2460,-0.001113,0.024037,0.023687
2461,-0.019652,0.005964,-0.012473
2462,-0.019652,0.005964,-0.048632
2463,0.017426,0.005964,-0.030552
2464,-0.001113,0.005964,0.005607
2465,-0.001113,0.024037,-0.012473
2466,-0.019652,0.005964,-0.012473
2467,-0.001113,0.005964,0.005607
2468,-0.001113,0.005964,0.023687
2469,-0.001113,-0.01211,0.005607
2470,-0.001113,0.005964,0.005607
2471,-0.001113,0.024037,0.041767
2472,-0.019652,0.024037,0.005607
2473,-0.019652,0.005964,0.005607
2474,-0.001113,0.005964,0.041767
2475,-0.019652,0.005964,0.023687
2476,-0.001113,0.024037,-0.012473
2477,-0.001113,-0.01211,-0.030552
2478,-0.038191,0.005964,0.005607
2479,-0.001113,0.005964,-0.012473
2480,-0.019652,0.024037,-0.030552
2481,-0.001113,0.005964,0.023687
2482,-0.001113,0.005964,-0.012473
2483,-0.001113,0.005964,-0.012473
2484,-0.001113,0.005964,0.005607
2485,-0.001113,0.024037,0.023687
2486,-0.019652,0.005964,0.023687
2487,-0.001113,0.005964,0.005607
2488,0.017426,-0.01211,0.005607
2489,0.017426,0.024037,0.023687
2490,-0.019652,0.005964,0.005607
2491,-0.001113,0.005964,0.023687
2492,0.017426,-0.01211,0.023687
2493,0.017426,0.005964,0.005607
2494,-0.038191,0.024037,-0.012473
2495,-0.001113,0.005964,0.005607
2496,0.017426,0.024037,-0.012473
2497,-0.001113,0.005964,-0.012473
2498,-0.001113,0.005964,-0.012473
2499,-0.001113,0.005964,0.005607
2500,-0.019652,-0.01211,-0.030552
2501,-0.001113,0.024037,0.005607
2502,-0.001113,-0.01211,0.005607
2503,-0.019652,0.024037,0.005607
2504,-0.019652,0.005964,-0.012473
2505,-0.001113,-0.01211,0.023687
2506,-0.001113,0.005964,0.041767
2507,-0.001113,0.005964,-0.012473
2508,0.017426,0.024037,-0.030552
2509,-0.019652,0.005964,0.023687
2510,0.017426,-0.01211,-0.012473
2511,-0.001113,0.005964,-0.012473
2512,-0.001113,0.005964,0.005607
2513,0.017426,0.024037,0.005607
2514,-0.001113,0.024037,-0.012473
2515,0.017426,-0.01211,-0.012473
2516,-0.001113,0.005964,-0.012473
2517,-0.038191,0.024037,-0.012473
2518,-0.001113,-0.01211,-0.012473
2519,-0.019652,-0.01211,0.005607
2520,-0.001113,-0.01211,0.023687
2521,-0.019652,0.005964,0.023687
2522,-0.001113,0.024037,-0.012473
2523,0.017426,0.005964,0.023687
2524,0.017426,0.04211,0.023687
2525,-0.019652,0.005964,0.005607
2526,0.017426,0.005964,0.005607
2527,-0.019652,0.005964,-0.012473
2528,-0.019652,-0.01211,-0.012473
2529,-0.001113,0.005964,-0.030552
2530,0.017426,0.005964,0.005607
2531,-0.038191,0.005964,-0.012473
2532,-0.001113,0.024037,0.005607
2533,-0.001113,0.005964,0.023687
2534,-0.001113,0.024037,0.023687
2535,-0.001113,0.024037,0.005607
2536,-0.019652,0.024037,0.005607
2537,-0.019652,0.005964,-0.012473
2538,-0.001113,-0.01211,0.005607
2539,-0.001113,0.005964,-0.012473
2540,-0.001113,0.005964,0.005607
2541,-0.001113,0.005964,0.005607
2542,-0.019652,0.024037,0.005607
2543,-0.001113,0.005964,0.005607
2544,-0.019652,0.005964,0.041767
2545,-0.001113,0.005964,0.005607
2546,-0.001113,0.005964,-0.012473
2547,-0.019652,0.005964,-0.012473
2548,-0.001113,0.005964,0.005607
2549,-0.001113,0.024037,-0.012473
2550,0.017426,0.005964,-0.012473
2551,0.017426,0.024037,0.005607
2552,-0.001113,-0.01211,0.023687
2553,-0.001113,0.005964,-0.012473
2554,-0.001113,0.005964,-0.030552
2555,-0.019652,0.005964,0.023687
2556,-0.001113,0.005964,0.023687
2557,-0.001113,0.005964,0.023687
2558,-0.001113,0.005964,0.005607
2559,-0.001113,0.005964,0.005607
2560,-0.001113,0.005964,0.005607
2561,-0.001113,0.005964,0.023687
2562,-0.001113,0.005964,0.005607
2563,-0.001113,0.005964,0.005607
2564,-0.001113,0.005964,-0.012473
2565,-0.001113,0.005964,0.005607
2566,-0.001113,0.005964,0.005607
2567,-0.019652,0.005964,-0.012473
2568,-0.019652,0.005964,0.005607
2569,-0.019652,0.005964,0.023687
2570,0.035965,0.005964,-0.012473
2571,-0.019652,0.005964,-0.012473
2572,0.017426,0.005964,0.005607
2573,0.017426,-0.01211,0.005607
2574,-0.001113,0.04211,0.023687
2575,-0.001113,0.005964,0.023687
2576,-0.001113,-0.01211,0.023687
2577,0.091583,0.005964,0.005607
2578,-0.001113,0.005964,-0.012473
2579,-0.001113,-0.01211,0.077927
2580,-0.001113,-0.01211,0.005607
2581,-0.001113,0.005964,-0.012473
2582,-0.001113,0.024037,-0.012473
2583,-0.019652,0.005964,-0.012473
2584,-0.019652,0.005964,0.005607
2585,-0.019652,-0.01211,-0.012473
2586,-0.019652,-0.01211,0.005607
2587,-0.001113,-0.01211,0.023687
2588,-0.019652,0.005964,-0.012473
2589,-0.001113,-0.01211,0.005607
2590,-0.001113,0.005964,0.005607
2591,0.017426,-0.01211,0.005607
2592,-0.001113,0.005964,0.005607
2593,-0.001113,0.005964,0.023687
2594,-0.001113,-0.01211,0.005607
2595,-0.001113,0.024037,-0.030552
2596,-0.001113,0.005964,-0.012473
2597,-0.001113,-0.01211,0.005607
2598,-0.019652,0.005964,0.005607
2599,0.017426,0.005964,-0.012473
2600,-0.019652,0.024037,0.005607
2601,-0.001113,0.024037,-0.012473
2602,-0.019652,0.024037,-0.012473
2603,-0.001113,-0.01211,0.005607
2604,0.017426,0.005964,0.005607
2605,-0.001113,0.005964,-0.030552
2606,-0.001113,0.005964,0.005607
2607,-0.019652,0.005964,0.005607
2608,-0.001113,0.005964,0.041767
2609,-0.001113,0.005964,0.005607
2610,-0.001113,0.024037,0.005607
2611,0.017426,0.005964,0.023687
2612,-0.001113,0.005964,0.005607
2613,-0.019652,0.005964,-0.012473
2614,-0.001113,-0.01211,0.023687
2615,-0.001113,0.005964,-0.012473
2616,0.017426,0.024037,-0.012473
2617,-0.001113,0.005964,-0.012473
2618,-0.001113,0.005964,0.005607
2619,-0.001113,0.005964,0.005607
2620,-0.019652,0.024037,0.005607
2621,-0.001113,-0.01211,0.005607
2622,-0.019652,0.005964,0.005607
2623,-0.019652,-0.01211,0.005607
2624,0.017426,0.005964,0.005607
2625,0.017426,0.024037,0.023687
2626,-0.001113,0.024037,0.023687
2627,-0.019652,-0.01211,0.023687
2628,-0.019652,0.005964,0.023687
2629,-0.001113,0.005964,0.005607
2630,-0.038191,0.005964,0.005607
2631,0.017426,0.005964,0.005607
2632,-0.001113,0.005964,0.005607
2633,-0.001113,0.024037,-0.012473
2634,-0.019652,0.024037,-0.012473
2635,0.017426,0.005964,0.005607
2636,-0.001113,0.024037,-0.012473
2637,-0.001113,0.005964,-0.012473
2638,0.017426,-0.01211,-0.012473
2639,0.017426,0.005964,0.005607
2640,-0.001113,0.005964,0.005607
2641,0.017426,0.005964,-0.012473
2642,0.017426,-0.01211,-0.012473
2643,-0.001113,0.005964,0.005607
2644,-0.001113,0.005964,0.005607
2645,-0.019652,0.024037,0.041767
2646,-0.001113,0.024037,0.023687
2647,0.035965,0.005964,0.005607
2648,-0.019652,0.024037,-0.012473
2649,-0.001113,0.024037,0.023687
2650,-0.001113,0.005964,-0.012473
2651,-0.001113,0.005964,0.005607
2652,-0.019652,0.005964,-0.030552
2653,0.017426,0.024037,-0.012473
2654,-0.019652,0.024037,-0.030552
2655,-0.001113,-0.01211,-0.012473
2656,0.017426,-0.01211,0.005607
2657,-0.019652,0.005964,0.005607
2658,-0.038191,0.005964,0.005607
2659,-0.019652,0.005964,0.023687
2660,-0.001113,0.024037,0.041767
2661,0.017426,0.005964,0.023687
2662,-0.001113,0.005964,-0.012473
2663,-0.019652,0.005964,0.023687
2664,-0.001113,0.005964,0.005607
2665,-0.001113,0.005964,0.023687
2666,-0.019652,0.024037,-0.030552
2667,-0.019652,0.005964,0.005607
2668,0.017426,0.005964,-0.012473
2669,-0.001113,-0.01211,-0.012473
2670,-0.001113,0.005964,0.005607
2671,-0.001113,-0.01211,-0.030552
2672,-0.001113,0.005964,-0.012473
2673,-0.001113,0.005964,-0.012473
2674,-0.019652,-0.01211,0.005607
2675,-0.019652,0.024037,0.041767
2676,-0.001113,0.005964,-0.012473
2677,0.017426,0.005964,0.023687
2678,-0.001113,0.005964,0.023687
2679,0.017426,0.005964,0.005607
2680,-0.001113,0.005964,0.023687
2681,-0.001113,-0.01211,0.005607
2682,-0.019652,0.024037,0.005607
2683,-0.001113,0.005964,0.005607
2684,-0.001113,0.005964,0.005607
2685,0.017426,-0.01211,-0.012473
2686,-0.038191,-0.01211,-0.012473
2687,-0.001113,-0.01211,0.005607
2688,0.017426,0.005964,0.005607
2689,-0.019652,0.005964,-0.030552
2690,-0.001113,0.005964,-0.012473
2691,-0.019652,0.005964,0.005607
2692,-0.001113,0.005964,0.041767
2693,-0.001113,0.005964,0.005607
2694,-0.019652,-0.01211,0.005607
2695,-0.001113,0.024037,0.041767
2696,0.017426,0.005964,0.005607
2697,-0.001113,0.005964,-0.012473
2698,-0.001113,0.005964,0.023687
2699,-0.001113,0.024037,0.005607
2700,-0.019652,0.024037,-0.012473
2701,-0.001113,0.024037,-0.012473
2702,0.017426,0.005964,0.005607
2703,-0.001113,-0.01211,-0.012473
2704,-0.019652,0.005964,-0.012473
2705,-0.019652,0.005964,0.005607
2706,0.017426,0.024037,0.005607
2707,-0.019652,0.005964,-0.012473
2708,-0.019652,0.005964,0.005607
2709,-0.001113,-0.01211,0.023687
2710,-0.019652,0.005964,0.023687
2711,-0.019652,0.005964,0.005607
2712,-0.019652,0.005964,0.023687
2713,-0.001113,0.005964,0.005607
2714,-0.019652,-0.01211,0.005607
2715,-0.001113,0.005964,0.023687
2716,0.017426,-0.01211,0.023687
2717,-0.001113,0.005964,0.005607
2718,-0.019652,0.005964,0.005607
2719,-0.019652,0.005964,0.005607
2720,-0.019652,0.024037,-0.030552
2721,-0.001113,0.005964,-0.030552
2722,-0.001113,0.024037,0.005607
2723,-0.019652,0.024037,0.005607
2724,-0.019652,-0.01211,-0.030552
2725,0.017426,-0.01211,0.005607
2726,0.017426,0.005964,0.023687
2727,-0.001113,0.005964,0.023687
2728,0.017426,0.005964,0.005607
2729,-0.001113,0.005964,0.023687
2730,0.017426,0.024037,0.041767
2731,-0.001113,-0.01211,0.005607
2732,-0.001113,0.005964,-0.012473
2733,-0.001113,0.005964,0.005607
2734,-0.001113,0.005964,0.005607
2735,-0.019652,0.005964,-0.012473
2736,-0.001113,-0.01211,0.005607
2737,0.017426,0.024037,-0.012473
2738,-0.001113,0.005964,-0.030552
2739,-0.019652,0.005964,-0.012473
2740,-0.001113,-0.01211,0.005607
2741,-0.001113,0.024037,0.023687
2742,-0.001113,0.005964,0.005607
2743,-0.001113,0.024037,0.005607
2744,-0.019652,0.005964,-0.012473
2745,-0.019652,0.005964,-0.012473
2746,-0.019652,-0.01211,0.005607
2747,-0.038191,0.005964,0.005607
2748,-0.001113,-0.01211,0.005607
2749,0.017426,-0.01211,0.005607
2750,0.017426,0.005964,-0.012473
2751,-0.001113,-0.01211,-0.012473
2752,-0.001113,-0.030183,-0.012473
2753,-0.001113,-0.030183,-0.030552
2754,0.017426,0.005964,0.005607
2755,-0.019652,0.024037,-0.012473
2756,0.017426,0.024037,-0.012473
2757,-0.001113,-0.01211,-0.012473
2758,-0.019652,0.005964,-0.012473
2759,-0.001113,0.005964,-0.012473
2760,-0.001113,0.005964,0.023687
2761,-0.001113,-0.01211,0.005607
2762,-0.019652,0.005964,0.005607
2763,-0.001113,0.005964,0.005607
2764,-0.001113,0.005964,0.023687
2765,-0.001113,0.005964,0.023687
2766,-0.001113,0.005964,0.005607
2767,-0.001113,0.024037,0.005607
2768,-0.001113,-0.01211,0.005607
2769,0.017426,0.005964,-0.030552
2770,-0.05673,-0.01211,-0.012473
2771,-0.019652,-0.01211,-0.030552
2772,-0.001113,-0.01211,0.023687
2773,-0.001113,-0.01211,-0.030552
2774,-0.019652,0.005964,-0.012473
2775,0.017426,0.005964,0.005607
2776,-0.019652,-0.01211,0.023687
2777,-0.001113,0.005964,-0.012473
2778,-0.001113,-0.01211,0.005607
2779,-0.019652,-0.01211,0.041767
2780,-0.019652,0.005964,0.005607
2781,-0.019652,0.005964,0.005607
2782,-0.001113,0.005964,0.023687
2783,-0.001113,0.005964,0.023687
2784,0.017426,0.005964,-0.012473
2785,-0.001113,0.005964,-0.012473
2786,-0.001113,0.005964,0.005607
2787,0.017426,0.005964,-0.012473
2788,0.017426,0.005964,0.005607
2789,-0.001113,-0.01211,0.005607
2790,-0.001113,0.005964,-0.030552
2791,-0.001113,-0.01211,-0.012473
2792,-0.001113,0.005964,0.005607
2793,-0.019652,0.005964,0.005607
2794,-0.001113,0.005964,0.023687
2795,-0.001113,0.005964,0.005607
2796,-0.001113,0.024037,0.005607
2797,-0.001113,0.005964,0.005607
2798,-0.019652,0.005964,0.005607
2799,-0.001113,0.005964,0.023687
2800,-0.001113,0.024037,0.005607
2801,-0.001113,0.005964,-0.012473
2802,-0.001113,0.005964,-0.012473
2803,-0.001113,0.005964,0.005607
2804,-0.019652,0.005964,-0.012473
2805,0.017426,0.005964,-0.030552
2806,-0.001113,0.024037,0.005607
2807,-0.001113,0.005964,0.005607
2808,-0.001113,0.005964,-0.030552
2809,-0.001113,0.024037,-0.012473
2810,-0.001113,0.005964,0.005607
2811,-0.001113,0.005964,0.023687
2812,-0.001113,0.005964,-0.012473
2813,-0.001113,0.005964,0.023687
2814,-0.019652,0.005964,0.023687
2815,-0.019652,0.005964,0.023687
2816,0.017426,0.005964,-0.012473
2817,-0.001113,-0.01211,0.023687
2818,-0.001113,0.005964,-0.012473
2819,-0.001113,-0.01211,-0.012473
2820,-0.019652,0.005964,-0.030552
2821,-0.001113,-0.01211,-0.012473
2822,0.017426,0.005964,-0.030552
2823,-0.001113,-0.01211,-0.030552
2824,-0.001113,-0.01211,-0.012473
2825,-0.001113,0.005964,-0.012473
2826,0.017426,0.005964,0.005607
2827,-0.001113,0.005964,0.005607
2828,-0.001113,0.005964,0.005607
2829,-0.001113,0.024037,0.005607
2830,-0.001113,0.005964,0.023687
2831,-0.019652,0.005964,0.023687
2832,-0.001113,0.005964,0.005607
2833,-0.001113,0.024037,-0.012473
2834,-0.001113,0.005964,0.041767
2835,-0.001113,0.005964,0.023687
2836,-0.001113,-0.01211,-0.012473
2837,-0.001113,0.005964,-0.048632
2838,-0.001113,-0.01211,-0.012473
2839,-0.019652,0.005964,-0.012473
2840,-0.001113,0.005964,-0.030552
2841,-0.001113,-0.01211,-0.012473
2842,-0.019652,0.005964,0.005607
2843,-0.019652,0.024037,-0.012473
2844,-0.001113,0.005964,-0.012473
2845,-0.001113,0.024037,0.041767
2846,0.017426,0.005964,0.023687
2847,0.017426,-0.01211,0.005607
2848,-0.001113,0.005964,0.041767
2849,-0.001113,0.005964,0.023687
2850,-0.001113,0.005964,0.023687
2851,-0.001113,0.005964,0.005607
2852,-0.001113,0.005964,0.005607
2853,-0.001113,0.005964,0.005607
2854,-0.001113,0.024037,-0.012473
2855,-0.001113,0.005964,-0.030552
2856,-0.019652,0.005964,0.005607
2857,-0.001113,0.005964,-0.030552
2858,-0.019652,-0.01211,-0.012473
2859,-0.001113,-0.01211,0.005607
2860,-0.001113,0.005964,0.005607
2861,-0.019652,0.005964,0.005607
2862,-0.001113,0.005964,-0.012473
2863,0.091583,0.005964,0.041767
2864,-0.001113,0.005964,0.005607
2865,-0.001113,0.005964,0.077927
2866,-0.001113,0.005964,0.041767
2867,-0.001113,0.005964,0.023687
2868,0.017426,0.024037,0.005607
2869,-0.001113,0.005964,0.023687
2870,-0.001113,0.005964,-0.012473
2871,-0.001113,0.005964,-0.030552
2872,-0.001113,0.005964,-0.030552
2873,-0.001113,0.005964,-0.012473
2874,-0.001113,0.024037,-0.030552
2875,-0.001113,0.024037,0.005607
2876,-0.001113,0.005964,-0.012473
2877,0.017426,0.005964,0.005607
2878,-0.001113,0.005964,-0.012473
2879,-0.001113,-0.01211,0.023687
2880,0.017426,0.005964,0.023687
2881,-0.001113,-0.01211,0.023687
2882,-0.019652,0.005964,0.023687
2883,-0.001113,-0.01211,0.041767
2884,-0.019652,-0.01211,-0.012473
2885,-0.019652,0.005964,0.005607
2886,-0.001113,0.024037,0.005607
2887,-0.001113,0.024037,0.005607
2888,-0.001113,-0.01211,-0.030552
2889,-0.001113,0.005964,-0.030552
2890,-0.019652,0.005964,-0.012473
2891,0.017426,0.005964,-0.012473
2892,-0.001113,0.005964,-0.030552
2893,-0.001113,-0.01211,0.005607
2894,-0.001113,0.024037,0.005607
2895,-0.019652,0.005964,0.023687
2896,-0.001113,-0.01211,0.005607
2897,-0.019652,0.005964,0.023687
2898,-0.001113,0.005964,0.041767
2899,0.017426,-0.01211,0.005607
2900,-0.019652,-0.01211,0.023687
2901,-0.001113,0.005964,0.023687
2902,-0.001113,0.005964,0.005607
2903,-0.001113,0.005964,-0.012473
2904,-0.001113,-0.01211,-0.030552
2905,-0.001113,0.024037,-0.012473
2906,-0.001113,-0.01211,-0.012473
2907,-0.001113,0.005964,-0.012473
2908,0.017426,-0.01211,0.005607
2909,-0.001113,-0.01211,-0.030552
2910,-0.019652,0.005964,-0.012473
2911,-0.001113,0.005964,0.005607
2912,0.017426,0.005964,0.023687
2913,-0.038191,-0.01211,-0.012473
2914,-0.001113,0.005964,0.005607
2915,-0.001113,0.005964,0.023687
2916,-0.001113,0.005964,0.005607
2917,-0.019652,-0.01211,0.005607
2918,0.017426,0.005964,0.023687
2919,-0.001113,0.005964,-0.012473
2920,-0.019652,0.005964,-0.012473
2921,-0.001113,0.005964,-0.012473
2922,-0.019652,0.005964,0.005607
2923,-0.001113,0.005964,-0.012473
2924,-0.001113,0.005964,-0.030552
2925,0.017426,0.005964,-0.012473
2926,-0.019652,-0.01211,0.023687
2927,-0.019652,0.005964,-0.012473
2928,-0.001113,0.005964,-0.012473
2929,-0.001113,0.005964,0.023687
2930,-0.019652,-0.01211,0.005607
2931,-0.001113,0.024037,0.005607
2932,-0.001113,-0.01211,0.005607
2933,-0.001113,0.005964,0.023687
2934,-0.019652,0.005964,0.005607
2935,-0.019652,-0.01211,0.023687
2936,-0.038191,0.005964,0.005607
2937,0.017426,0.024037,0.005607
2938,-0.001113,0.005964,-0.030552
2939,-0.001113,0.005964,-0.030552
2940,-0.001113,0.005964,-0.012473
2941,-0.001113,0.005964,-0.030552
2942,0.017426,0.005964,0.005607
2943,-0.019652,0.005964,0.005607
2944,-0.019652,-0.01211,0.005607
2945,-0.001113,0.005964,0.005607
2946,-0.001113,0.005964,0.005607
2947,-0.001113,0.096331,0.023687
2948,-0.001113,0.005964,0.023687
2949,-0.019652,0.024037,0.005607
2950,0.017426,0.024037,0.041767
2951,-0.001113,-0.01211,0.023687
2952,-0.019652,-0.01211,-0.012473
2953,0.017426,0.005964,0.041767
2954,-0.001113,0.005964,0.023687
2955,-0.001113,0.005964,-0.030552
2956,-0.001113,-0.01211,-0.030552
2957,-0.019652,-0.01211,0.005607
2958,-0.001113,0.024037,-0.030552
2959,-0.001113,0.005964,-0.012473
2960,-0.019652,0.024037,0.005607
2961,-0.001113,0.005964,0.023687
2962,-0.001113,0.005964,-0.012473
2963,-0.019652,0.005964,0.023687
2964,-0.019652,0.005964,0.005607
2965,-0.019652,0.005964,0.005607
2966,-0.001113,0.005964,0.005607
2967,-0.019652,-0.01211,0.005607
2968,-0.001113,0.005964,0.005607
2969,-0.001113,0.005964,0.005607
2970,-0.001113,0.005964,-0.012473
2971,-0.001113,0.024037,0.005607
2972,0.017426,0.005964,0.005607
2973,0.017426,0.024037,-0.030552
2974,-0.019652,0.005964,-0.012473
2975,-0.001113,0.005964,-0.030552
2976,-0.001113,0.005964,-0.012473
2977,-0.038191,0.005964,-0.012473
2978,-0.019652,0.005964,0.005607
2979,-0.019652,0.024037,-0.030552
2980,-0.019652,0.005964,0.005607
2981,-0.001113,0.005964,0.023687
2982,0.017426,0.005964,0.023687
2983,0.017426,-0.01211,0.005607
2984,-0.001113,0.005964,0.041767
2985,-0.001113,0.005964,0.023687
2986,0.017426,0.024037,0.005607
2987,-0.001113,0.005964,0.005607
2988,-0.019652,0.005964,0.023687
2989,-0.001113,0.005964,-0.012473
2990,-0.001113,-0.030183,-0.012473
2991,-0.001113,0.005964,-0.048632
2992,-0.001113,0.024037,-0.012473
2993,-0.038191,0.005964,-0.030552
2994,-0.001113,-0.01211,-0.030552
2995,-0.019652,0.005964,-0.012473
2996,0.017426,0.005964,0.005607
2997,-0.001113,0.005964,-0.012473
2998,-0.001113,0.005964,0.005607
2999,-0.019652,0.024037,0.023687
3000,-0.001113,0.005964,0.005607
3001,-0.001113,0.005964,0.041767
3002,-0.001113,-0.01211,0.041767
3003,-0.001113,0.005964,-0.012473
3004,0.017426,0.024037,0.005607
3005,0.017426,0.005964,-0.012473
3006,-0.001113,-0.01211,0.005607
3007,-0.019652,-0.01211,-0.030552
3008,-0.001113,0.005964,-0.012473
3009,-0.019652,0.024037,-0.012473
3010,-0.001113,0.005964,-0.012473
3011,-0.001113,-0.01211,-0.048632
3012,-0.001113,0.005964,0.005607
3013,0.017426,0.005964,0.005607
3014,-0.001113,-0.01211,0.023687
3015,0.017426,0.005964,0.005607
3016,-0.001113,-0.01211,0.023687
3017,-0.001113,0.024037,0.041767
3018,-0.019652,0.005964,-0.012473
3019,-0.001113,0.005964,0.005607
3020,-0.019652,-0.01211,0.023687
3021,0.017426,0.005964,0.005607
3022,-0.001113,0.024037,-0.012473
3023,-0.001113,-0.01211,-0.030552
3024,-0.001113,0.005964,0.005607
3025,-0.019652,0.005964,-0.012473
3026,-0.001113,0.005964,-0.012473
3027,-0.001113,0.005964,-0.012473
3028,-0.001113,0.005964,-0.012473
3029,-0.001113,0.005964,-0.012473
3030,-0.001113,-0.01211,0.005607
3031,-0.001113,0.005964,0.023687
3032,-0.019652,0.005964,-0.012473
3033,-0.001113,0.005964,0.023687
3034,0.017426,0.005964,0.023687
3035,-0.001113,0.005964,0.041767
3036,-0.019652,0.024037,0.023687
3037,-0.019652,0.005964,0.023687
3038,-0.001113,0.024037,0.005607
3039,-0.019652,0.005964,-0.030552
3040,-0.001113,0.005964,-0.012473
3041,-0.001113,0.005964,0.005607
3042,-0.001113,-0.01211,-0.030552
3043,0.017426,0.005964,-0.030552
3044,-0.001113,0.005964,-0.012473
3045,-0.001113,0.005964,-0.012473
3046,-0.001113,0.005964,-0.030552
3047,-0.001113,0.005964,0.005607
3048,-0.001113,0.005964,0.023687
3049,-0.001113,-0.01211,0.023687
3050,0.017426,-0.01211,0.005607
3051,-0.019652,0.005964,0.041767
3052,-0.038191,-0.01211,0.023687
3053,-0.001113,0.005964,-0.012473
3054,-0.019652,-0.01211,0.005607
3055,-0.001113,0.005964,-0.012473
3056,-0.001113,0.005964,-0.012473
3057,-0.001113,0.005964,0.005607
3058,-0.019652,-0.01211,-0.012473
3059,-0.019652,-0.01211,-0.012473
3060,-0.019652,0.005964,-0.012473
3061,-0.038191,-0.01211,0.005607
3062,-0.001113,0.024037,0.023687
3063,-0.019652,-0.01211,-0.012473
3064,-0.001113,0.005964,0.005607
3065,-0.019652,0.024037,0.005607
3066,-0.001113,0.024037,0.023687
3067,-0.019652,0.005964,0.005607
3068,-0.001113,0.024037,0.005607
3069,0.017426,-0.01211,0.005607
3070,-0.001113,-0.01211,-0.012473
3071,-0.019652,0.005964,-0.012473
3072,0.017426,0.005964,0.023687
3073,-0.019652,0.005964,-0.012473
3074,-0.019652,-0.01211,-0.012473
3075,-0.001113,0.005964,-0.030552
3076,-0.001113,-0.01211,-0.012473
3077,-0.001113,-0.01211,-0.030552
3078,-0.019652,0.005964,-0.012473
3079,-0.001113,0.005964,-0.012473
3080,-0.001113,0.005964,0.023687
3081,-0.001113,0.005964,0.005607
3082,-0.001113,0.005964,0.005607
3083,-0.001113,0.04211,0.041767
3084,-0.001113,-0.01211,0.005607
3085,0.017426,0.04211,0.005607
3086,-0.001113,0.005964,0.041767
3087,0.017426,-0.01211,-0.012473
3088,-0.001113,0.005964,-0.012473
3089,-0.019652,0.005964,0.005607
3090,-0.001113,0.005964,0.005607
3091,-0.001113,0.005964,0.005607
3092,-0.001113,0.005964,-0.030552
3093,-0.019652,-0.01211,-0.012473
3094,-0.001113,0.024037,-0.012473
3095,-0.001113,-0.01211,-0.012473
3096,-0.001113,0.005964,0.005607
3097,0.017426,0.005964,0.023687
3098,-0.001113,0.005964,0.005607
3099,-0.001113,0.024037,0.005607
3100,-0.001113,-0.01211,0.023687
3101,-0.001113,-0.01211,0.023687
3102,0.017426,-0.01211,0.023687
3103,-0.001113,0.005964,0.005607
3104,-0.019652,-0.01211,0.023687
3105,0.017426,-0.01211,0.005607
3106,0.017426,0.005964,-0.012473
3107,-0.001113,-0.01211,-0.012473
3108,0.017426,0.005964,-0.012473
3109,-0.019652,0.005964,-0.030552
3110,-0.001113,0.005964,-0.030552
3111,0.017426,0.005964,-0.012473
3112,-0.019652,0.005964,-0.030552
3113,-0.001113,0.005964,0.005607
3114,-0.019652,0.005964,0.023687
3115,-0.019652,0.005964,0.023687
3116,-0.019652,0.024037,0.023687
3117,-0.001113,0.024037,0.005607
3118,-0.001113,0.005964,0.023687
3119,-0.001113,0.005964,0.005607
3120,-0.001113,0.005964,0.005607
3121,-0.001113,-0.01211,0.023687
3122,-0.001113,-0.01211,-0.012473
3123,-0.001113,0.005964,0.005607
3124,-0.001113,0.024037,-0.012473
3125,-0.001113,0.005964,0.005607
3126,-0.001113,0.005964,-0.030552
3127,-0.019652,-0.01211,-0.030552
3128,-0.001113,0.005964,0.005607
3129,-0.001113,0.024037,-0.012473
3130,-0.001113,0.005964,-0.012473
3131,-0.019652,0.005964,0.023687
3132,-0.001113,0.005964,0.023687
3133,-0.001113,0.005964,-0.030552
3134,-0.001113,0.024037,0.005607
3135,-0.019652,-0.01211,0.023687
3136,-0.019652,0.005964,-0.012473
3137,-0.001113,0.005964,0.005607
3138,-0.019652,0.005964,0.023687
3139,-0.019652,0.005964,-0.012473
3140,-0.001113,0.005964,-0.030552
3141,-0.001113,0.005964,0.005607
3142,0.017426,0.024037,0.005607
3143,0.017426,0.024037,0.005607
3144,0.017426,-0.01211,0.005607
3145,-0.001113,0.005964,0.005607
3146,-0.001113,0.005964,0.005607
3147,-0.001113,-0.01211,-0.012473
3148,-0.001113,0.005964,0.005607
3149,-0.001113,0.024037,0.023687
3150,-0.001113,0.024037,0.041767
3151,-0.001113,0.005964,0.005607
3152,-0.001113,0.005964,0.005607
3153,0.017426,0.005964,0.005607
3154,-0.019652,0.005964,0.023687
3155,-0.001113,0.005964,0.023687
3156,-0.001113,0.005964,0.023687
3157,-0.001113,0.005964,0.005607
3158,-0.001113,-0.01211,-0.012473
3159,-0.001113,0.005964,-0.030552
3160,-0.019652,-0.01211,-0.012473
3161,-0.019652,0.005964,-0.012473
3162,0.017426,0.005964,0.005607
3163,-0.019652,0.024037,0.005607
3164,-0.038191,0.005964,-0.012473
3165,-0.019652,0.024037,0.005607
3166,0.017426,0.024037,0.005607
3167,-0.019652,0.005964,0.041767
3168,-0.001113,0.005964,0.005607
3169,-0.001113,-0.01211,0.005607
3170,-0.019652,0.024037,0.023687
3171,-0.001113,0.005964,0.005607
3172,-0.001113,-0.01211,-0.012473
3173,-0.019652,-0.01211,0.023687
3174,0.017426,0.024037,0.005607
3175,-0.001113,-0.01211,-0.012473
3176,-0.001113,0.005964,-0.012473
3177,-0.001113,0.005964,0.005607
3178,0.035965,0.005964,0.005607
3179,-0.019652,-0.01211,-0.030552
3180,-0.019652,0.005964,-0.012473
3181,-0.001113,0.005964,0.005607
3182,-0.019652,-0.01211,-0.012473
3183,-0.001113,0.024037,0.005607
3184,-0.001113,0.005964,0.005607
3185,-0.001113,0.005964,0.041767
3186,-0.001113,0.005964,0.005607
3187,0.017426,0.005964,0.005607
3188,0.017426,0.005964,0.041767
3189,0.017426,0.005964,-0.012473
3190,-0.019652,0.005964,-0.012473
3191,-0.001113,0.005964,0.023687
3192,0.035965,0.005964,0.005607
3193,-0.001113,-0.01211,-0.012473
3194,0.017426,0.005964,-0.030552
3195,-0.001113,0.024037,0.005607
3196,-0.001113,0.005964,-0.030552
3197,-0.001113,0.005964,-0.030552
3198,-0.001113,0.024037,0.005607
3199,-0.001113,0.024037,-0.012473
3200,-0.038191,-0.01211,-0.012473
3201,-0.001113,0.005964,0.005607
3202,-0.019652,0.005964,0.023687
3203,-0.019652,0.005964,0.023687
3204,-0.001113,-0.01211,0.023687
3205,-0.001113,0.024037,0.041767
3206,-0.001113,0.005964,0.023687
3207,-0.019652,0.005964,0.005607
3208,-0.019652,-0.01211,0.023687
3209,-0.019652,0.005964,0.005607
3210,-0.001113,0.005964,-0.030552
3211,-0.019652,0.005964,-0.030552
3212,0.017426,0.005964,-0.012473
3213,-0.001113,-0.01211,-0.012473
3214,-0.019652,-0.01211,-0.048632
3215,-0.001113,0.005964,0.005607
3216,-0.019652,0.005964,0.023687
3217,-0.001113,0.005964,-0.012473
3218,0.017426,0.005964,0.005607
3219,-0.001113,-0.01211,0.023687
3220,-0.019652,0.024037,0.023687
3221,-0.001113,0.005964,0.005607
3222,-0.001113,0.005964,0.023687
3223,-0.001113,0.005964,0.005607
3224,-0.019652,0.024037,0.005607
3225,-0.001113,0.005964,-0.012473
3226,-0.019652,0.005964,0.023687
3227,-0.001113,0.024037,0.023687
3228,-0.019652,0.005964,-0.030552
3229,-0.001113,0.005964,-0.030552
3230,-0.001113,0.024037,-0.012473
3231,-0.001113,0.024037,-0.012473
3232,0.017426,0.024037,-0.012473
3233,-0.001113,-0.01211,0.023687
3234,0.017426,-0.01211,0.023687
3235,-0.001113,-0.01211,-0.030552
3236,0.017426,-0.01211,0.005607
3237,0.035965,-0.01211,0.023687
3238,-0.001113,0.005964,0.041767
3239,0.017426,-0.01211,0.005607
3240,-0.001113,0.005964,0.005607
3241,-0.001113,-0.01211,0.005607
3242,-0.001113,-0.01211,0.005607
3243,-0.001113,0.005964,0.023687
3244,-0.001113,0.005964,-0.012473
3245,-0.001113,-0.01211,0.023687
3246,-0.001113,0.005964,-0.012473
3247,-0.001113,0.024037,-0.030552
3248,-0.001113,0.024037,-0.012473
3249,0.017426,-0.030183,-0.012473
3250,0.017426,-0.01211,-0.012473
3251,-0.001113,0.024037,0.005607
3252,-0.001113,0.005964,-0.012473
3253,-0.019652,0.024037,0.005607
3254,0.017426,-0.01211,0.005607
3255,-0.019652,0.005964,0.023687
3256,-0.019652,0.024037,0.023687
3257,-0.001113,0.005964,0.005607
3258,0.017426,0.005964,0.005607
3259,-0.019652,0.005964,0.005607
3260,-0.019652,0.005964,0.005607
3261,-0.019652,0.024037,0.023687
3262,-0.019652,0.005964,0.005607
3263,0.035965,0.005964,-0.012473
3264,-0.001113,0.024037,-0.012473
3265,-0.001113,0.005964,0.005607
3266,-0.001113,0.005964,-0.012473
3267,-0.001113,0.005964,-0.012473
3268,-0.001113,0.005964,-0.012473
3269,-0.019652,0.005964,0.023687
3270,-0.001113,-0.01211,-0.012473
3271,-0.019652,-0.030183,-0.012473
3272,-0.019652,0.005964,0.005607
3273,-0.019652,0.005964,0.023687
3274,-0.019652,0.005964,0.005607
3275,-0.019652,0.005964,0.023687
3276,-0.001113,-0.01211,0.023687
3277,0.017426,0.005964,0.005607
3278,-0.001113,0.024037,0.005607
3279,0.017426,0.005964,0.005607
3280,-0.001113,0.024037,0.005607
3281,0.091583,0.024037,-0.012473
3282,-0.001113,0.005964,-0.012473
3283,-0.001113,0.005964,0.005607
3284,-0.019652,0.024037,-0.012473
3285,0.017426,0.005964,-0.012473
3286,-0.001113,0.005964,-0.012473
3287,-0.019652,0.005964,-0.030552
3288,-0.019652,-0.01211,0.005607
3289,-0.001113,0.005964,0.005607
3290,-0.001113,0.005964,0.005607
3291,-0.019652,0.024037,0.023687
3292,-0.038191,0.005964,0.005607
3293,-0.001113,0.005964,0.023687
3294,0.017426,0.005964,0.005607
3295,-0.019652,0.005964,0.005607
3296,0.017426,0.005964,0.041767
3297,0.017426,0.005964,0.023687
3298,-0.001113,0.005964,0.005607
3299,-0.001113,0.024037,-0.012473
3300,-0.001113,0.005964,0.023687
3301,-0.019652,0.024037,-0.030552
3302,-0.001113,0.024037,-0.012473
3303,-0.001113,-0.01211,0.005607
3304,0.017426,0.005964,0.005607
3305,-0.019652,0.005964,-0.012473
3306,-0.001113,0.005964,0.005607
3307,-0.001113,0.005964,0.023687
3308,-0.001113,-0.01211,0.005607
3309,-0.019652,-0.01211,-0.012473
3310,-0.001113,-0.01211,0.023687
3311,-0.001113,0.005964,0.005607
3312,0.017426,0.005964,-0.012473
3313,-0.001113,0.005964,-0.012473
3314,0.017426,0.005964,0.005607
3315,-0.019652,0.005964,-0.012473
3316,-0.019652,-0.01211,-0.012473
3317,0.017426,0.005964,0.005607
3318,-0.001113,0.024037,0.005607
3319,0.017426,0.024037,-0.030552
3320,-0.001113,0.005964,-0.012473
3321,-0.001113,-0.01211,0.005607
3322,-0.001113,0.005964,0.041767
3323,-0.001113,-0.01211,0.005607
3324,-0.001113,0.005964,0.005607
3325,-0.001113,0.005964,0.023687
3326,-0.001113,0.005964,0.023687
3327,0.017426,0.005964,0.023687
3328,-0.001113,0.005964,0.041767
3329,0.017426,0.005964,0.005607
3330,-0.001113,0.005964,-0.012473
3331,-0.001113,0.005964,0.005607
3332,-0.001113,0.024037,0.005607
3333,-0.001113,0.005964,-0.012473
3334,-0.019652,-0.01211,0.005607
3335,-0.019652,-0.01211,0.005607
3336,-0.019652,0.005964,-0.012473
3337,-0.001113,0.005964,-0.030552
3338,-0.019652,0.024037,-0.012473
3339,-0.001113,-0.01211,0.005607
3340,-0.019652,0.024037,-0.012473
3341,-0.001113,0.005964,0.005607
3342,-0.001113,-0.030183,0.023687
3343,-0.001113,0.005964,0.023687
3344,-0.001113,0.005964,-0.012473
3345,-0.001113,0.024037,0.041767
3346,-0.001113,0.005964,0.005607
3347,-0.038191,0.005964,0.005607
3348,-0.019652,0.005964,-0.030552
3349,-0.001113,0.005964,0.005607
3350,-0.001113,0.005964,-0.012473
3351,-0.001113,0.024037,-0.030552
3352,-0.019652,-0.01211,0.005607
3353,-0.001113,0.005964,-0.012473
3354,0.017426,0.005964,-0.012473
3355,-0.019652,0.005964,0.005607
3356,-0.001113,0.005964,0.023687
3357,-0.019652,-0.01211,0.023687
3358,-0.019652,0.005964,0.005607
3359,-0.001113,-0.01211,0.023687
3360,-0.001113,-0.01211,0.005607
3361,0.017426,0.024037,-0.012473
3362,-0.001113,-0.01211,0.023687
3363,-0.001113,0.005964,0.005607
3364,-0.019652,0.005964,0.005607
3365,-0.001113,0.005964,-0.012473
3366,-0.001113,0.024037,-0.012473
3367,0.017426,0.005964,-0.030552
3368,-0.019652,0.005964,-0.012473
3369,0.017426,0.005964,0.005607
3370,-0.019652,0.005964,0.005607
3371,-0.001113,0.024037,-0.030552
3372,-0.001113,0.005964,0.005607
3373,-0.001113,0.005964,0.005607
3374,-0.019652,0.005964,0.023687
3375,-0.019652,0.024037,0.023687
3376,-0.019652,0.024037,0.005607
3377,-0.001113,0.005964,0.023687
3378,-0.001113,-0.01211,0.005607
3379,0.017426,0.005964,0.005607
3380,-0.001113,0.024037,0.023687
3381,-0.001113,0.005964,0.005607
3382,-0.019652,0.024037,-0.012473
3383,-0.001113,-0.01211,-0.030552
3384,-0.001113,0.005964,-0.012473
3385,-0.001113,-0.01211,-0.048632
3386,-0.001113,-0.01211,-0.012473
3387,-0.019652,0.005964,-0.012473
3388,-0.001113,0.005964,0.005607
3389,-0.001113,0.005964,-0.012473
3390,-0.038191,0.005964,0.005607
3391,0.035965,0.005964,0.005607
3392,0.017426,0.005964,0.023687
3393,-0.001113,0.005964,0.005607
3394,0.017426,0.005964,0.023687
3395,0.017426,0.005964,0.023687
3396,-0.001113,0.005964,-0.012473
3397,-0.019652,0.024037,0.023687
3398,0.017426,0.005964,0.023687
3399,-0.001113,0.024037,0.005607
3400,-0.001113,0.005964,-0.030552
3401,-0.019652,-0.01211,-0.012473
3402,-0.019652,0.005964,-0.030552
3403,-0.019652,-0.01211,-0.012473
3404,-0.001113,0.005964,0.005607
3405,-0.001113,0.024037,0.005607
3406,0.017426,0.005964,-0.048632
3407,0.017426,0.005964,0.023687
3408,-0.001113,0.005964,0.023687
3409,-0.019652,0.005964,0.005607
3410,-0.001113,0.024037,0.005607
3411,0.017426,0.005964,0.005607
3412,-0.019652,0.005964,0.023687
3413,-0.001113,0.005964,0.023687
3414,-0.019652,-0.01211,-0.030552
3415,-0.019652,0.005964,0.041767
3416,-0.019652,0.005964,0.005607
3417,-0.001113,0.005964,-0.012473
3418,-0.001113,0.005964,-0.030552
3419,-0.001113,-0.01211,0.005607
3420,-0.001113,-0.01211,-0.012473
3421,-0.001113,-0.01211,-0.030552
3422,-0.019652,0.024037,-0.012473
3423,-0.019652,0.005964,0.023687
3424,0.017426,-0.01211,-0.030552
3425,-0.001113,-0.01211,-0.012473
3426,-0.001113,0.005964,0.005607
3427,-0.001113,0.005964,0.023687
3428,-0.019652,-0.01211,0.005607
3429,0.017426,-0.01211,0.041767
3430,-0.001113,0.024037,0.005607
3431,-0.019652,-0.01211,0.005607
3432,0.017426,-0.01211,-0.012473
3433,-0.019652,0.005964,0.023687
3434,-0.001113,0.005964,0.005607
3435,-0.001113,0.024037,-0.012473
3436,-0.001113,0.005964,-0.012473
3437,-0.001113,0.005964,-0.012473
3438,0.017426,0.005964,-0.030552
3439,-0.001113,0.005964,-0.048632
3440,-0.001113,-0.01211,0.005607
3441,-0.019652,-0.01211,0.005607
3442,-0.001113,0.005964,-0.012473
3443,-0.001113,0.005964,0.005607
3444,-0.001113,-0.01211,0.023687
3445,-0.001113,0.005964,0.023687
3446,-0.001113,0.005964,0.005607
3447,-0.001113,0.024037,0.023687
3448,-0.019652,0.005964,0.005607
3449,-0.001113,-0.01211,0.005607
3450,-0.001113,0.005964,0.023687
3451,-0.001113,0.005964,0.005607
3452,-0.001113,0.005964,0.005607
3453,-0.001113,0.005964,-0.030552
3454,-0.019652,-0.01211,-0.012473
3455,-0.001113,0.024037,-0.012473
3456,-0.019652,0.005964,-0.030552
3457,-0.001113,0.024037,0.005607
3458,-0.019652,0.005964,0.005607
3459,-0.019652,-0.01211,-0.048632
3460,-0.001113,-0.01211,-0.012473
3461,-0.001113,-0.01211,0.005607
3462,-0.001113,-0.01211,0.023687
3463,-0.001113,0.005964,0.023687
3464,-0.001113,0.005964,0.023687
3465,-0.001113,-0.01211,0.023687
3466,-0.001113,0.005964,0.005607
3467,-0.001113,0.024037,-0.012473
3468,-0.019652,0.005964,0.023687
3469,-0.001113,0.005964,-0.012473
3470,-0.019652,0.024037,-0.012473
3471,-0.019652,-0.01211,-0.030552
3472,-0.001113,0.005964,0.023687
3473,-0.001113,0.005964,-0.012473
3474,-0.001113,0.005964,-0.030552
3475,-0.019652,-0.01211,0.005607
3476,-0.001113,0.005964,0.005607
3477,-0.001113,0.005964,-0.030552
3478,-0.001113,0.005964,-0.012473
3479,-0.001113,0.005964,0.041767
3480,-0.019652,0.024037,0.041767
3481,0.017426,0.005964,-0.012473
3482,-0.001113,0.005964,0.023687
3483,-0.001113,0.024037,0.041767
3484,-0.001113,0.005964,0.005607
3485,-0.001113,-0.01211,0.023687
3486,-0.001113,-0.01211,0.041767
3487,-0.001113,0.005964,-0.012473
3488,-0.001113,0.005964,-0.030552
3489,-0.001113,0.005964,-0.012473
3490,-0.001113,-0.01211,0.005607
3491,-0.019652,0.024037,-0.012473
3492,-0.019652,-0.01211,-0.012473
3493,-0.001113,0.005964,-0.012473
3494,-0.001113,0.005964,0.005607
3495,-0.001113,0.005964,-0.012473
3496,-0.001113,0.005964,-0.012473
3497,-0.001113,0.005964,0.005607
3498,-0.001113,0.005964,0.023687
3499,-0.001113,0.005964,0.005607
3500,-0.001113,0.005964,0.023687
3501,0.017426,0.024037,0.023687
3502,0.017426,0.024037,0.023687
3503,-0.001113,0.005964,0.023687
3504,-0.001113,0.005964,0.005607
3505,-0.001113,-0.01211,0.005607
3506,-0.001113,0.005964,-0.012473
3507,-0.019652,-0.01211,0.023687
3508,-0.001113,0.005964,-0.012473
3509,-0.001113,0.024037,0.005607
3510,-0.001113,0.005964,-0.012473
3511,-0.019652,0.005964,-0.012473
3512,-0.019652,0.005964,-0.012473
3513,-0.001113,0.005964,-0.030552
3514,-0.001113,0.005964,0.005607
3515,-0.001113,-0.01211,0.005607
3516,-0.001113,-0.01211,-0.012473
3517,-0.001113,0.005964,0.023687
3518,-0.001113,0.005964,0.023687
3519,-0.019652,0.024037,0.041767
3520,-0.001113,0.024037,0.023687
3521,-0.001113,0.005964,0.023687
3522,-0.001113,0.005964,0.023687
3523,0.017426,-0.01211,0.005607
3524,-0.019652,0.005964,-0.012473
3525,-0.019652,0.005964,0.059847
3526,-0.001113,0.024037,0.005607
3527,-0.001113,0.024037,-0.012473
3528,-0.001113,0.005964,-0.012473
3529,-0.019652,-0.030183,-0.012473
3530,-0.001113,0.005964,-0.012473
3531,-0.001113,0.005964,-0.012473
3532,-0.019652,0.024037,0.005607
3533,-0.001113,0.024037,0.023687
3534,-0.001113,0.024037,-0.012473
3535,-0.019652,-0.01211,0.005607
3536,0.017426,-0.01211,0.023687
3537,-0.019652,0.005964,0.023687
3538,-0.001113,0.005964,0.005607
3539,-0.019652,-0.01211,0.005607
3540,-0.001113,0.024037,0.059847
3541,-0.001113,0.024037,0.005607
3542,-0.019652,0.024037,0.005607
3543,-0.001113,0.005964,0.023687
3544,-0.019652,0.005964,0.041767
3545,-0.001113,0.005964,0.005607
3546,-0.001113,0.005964,-0.030552
3547,-0.001113,-0.01211,0.005607
3548,-0.001113,0.005964,-0.030552
3549,-0.001113,0.024037,-0.012473
3550,-0.001113,0.005964,0.005607
3551,-0.001113,0.005964,0.005607
3552,-0.001113,0.024037,-0.012473
3553,0.017426,0.005964,0.005607
3554,-0.001113,0.005964,0.023687
3555,-0.001113,0.005964,0.005607
3556,-0.001113,0.005964,0.005607
3557,-0.001113,0.005964,0.023687
3558,-0.019652,-0.01211,0.005607
3559,-0.001113,0.024037,0.005607
3560,-0.001113,0.005964,0.023687
3561,-0.019652,0.005964,0.005607
3562,-0.001113,0.005964,0.005607
3563,-0.019652,-0.01211,-0.030552
3564,0.017426,0.005964,-0.030552
3565,-0.019652,0.024037,-0.012473
3566,-0.019652,-0.01211,0.005607
3567,-0.019652,-0.01211,0.005607
3568,0.017426,0.005964,0.005607
3569,-0.001113,0.005964,-0.012473
3570,-0.001113,-0.01211,0.005607
3571,-0.001113,0.005964,0.005607
3572,-0.001113,0.005964,0.023687
3573,0.035965,0.005964,0.005607
3574,0.017426,0.005964,0.023687
3575,-0.001113,0.005964,0.023687
3576,-0.001113,0.005964,-0.012473
3577,-0.001113,0.005964,-0.012473
3578,-0.019652,0.005964,0.041767
3579,-0.019652,0.005964,0.005607
3580,-0.001113,0.005964,0.005607
3581,-0.001113,0.024037,-0.030552
3582,-0.001113,-0.01211,-0.012473
3583,-0.019652,0.005964,0.005607
3584,-0.001113,0.005964,-0.012473
3585,-0.019652,0.005964,0.041767
3586,-0.019652,0.024037,0.005607
3587,-0.019652,0.005964,-0.012473
3588,-0.001113,-0.01211,-0.012473
3589,0.017426,0.005964,0.005607
3590,0.017426,0.005964,0.005607
3591,-0.019652,0.024037,0.005607
3592,-0.019652,0.005964,0.005607
3593,-0.001113,0.005964,0.023687
3594,-0.001113,0.005964,0.005607
3595,-0.001113,-0.030183,0.023687
3596,-0.001113,0.005964,0.005607
3597,-0.001113,0.005964,0.005607
3598,-0.019652,-0.01211,-0.030552
3599,0.017426,0.005964,-0.012473
3600,-0.019652,0.005964,-0.012473
3601,-0.001113,-0.01211,-0.012473
3602,0.017426,-0.01211,0.005607
3603,-0.001113,-0.01211,0.005607
3604,-0.019652,-0.01211,-0.030552
3605,-0.001113,0.024037,0.005607
3606,-0.001113,0.005964,0.005607
3607,-0.001113,0.005964,0.023687
3608,-0.019652,0.024037,0.023687
3609,0.017426,0.005964,0.005607
3610,-0.019652,-0.01211,0.023687
3611,-0.019652,-0.01211,-0.012473
3612,-0.019652,0.005964,0.005607
3613,-0.001113,0.005964,0.041767
3614,0.017426,0.005964,0.005607
3615,-0.001113,0.024037,-0.012473
3616,-0.001113,0.005964,-0.012473
3617,-0.019652,0.005964,-0.012473
3618,-0.001113,0.005964,-0.012473
3619,-0.001113,0.005964,-0.012473
3620,0.017426,-0.01211,-0.012473
3621,-0.001113,0.005964,0.023687
3622,-0.001113,-0.01211,0.005607
3623,-0.001113,0.005964,0.023687
3624,-0.001113,0.005964,0.023687
3625,-0.001113,0.005964,0.023687
3626,0.017426,0.005964,0.023687
3627,-0.001113,0.005964,0.023687
3628,-0.001113,0.005964,0.005607
3629,-0.019652,-0.01211,0.005607
3630,-0.001113,0.005964,0.005607
3631,-0.038191,0.005964,0.005607
3632,-0.001113,0.005964,-0.012473
3633,0.017426,0.005964,0.005607
3634,-0.001113,-0.01211,0.005607
3635,-0.001113,0.005964,-0.012473
3636,-0.001113,0.005964,-0.012473
3637,-0.001113,0.005964,0.005607
