# Requested Sampling Rate (Hz):,1000
# Actual Sampling Rate (Hz):,999.383
# Requested Duration (s):,5.0
# Actual Duration (s):,5.049
# REST Calibration:,832.0600347222207,831.6700347222207,832.6898611111126
# MAX Calibration:,886.0000,887.0000,888.0000
# Normalization: MVC-based  (x_norm = (x - REST) / (MAX - REST))
sample_idx,EMG1,EMG2,EMG3
0,-0.019652,0.005964,-0.030552
1,-0.001113,0.005964,-0.012473
2,-0.001113,0.005964,-0.012473
3,-0.001113,0.005964,-0.012473
4,-0.019652,-0.030183,-0.012473
5,-0.038191,0.005964,0.023687
6,-0.001113,0.005964,0.023687
7,-0.019652,0.024037,0.005607
8,-0.001113,0.024037,0.023687
9,0.017426,-0.01211,0.023687
10,-0.001113,0.005964,0.023687
11,0.035965,0.024037,0.041767
12,-0.019652,0.024037,0.041767
13,-0.001113,-0.01211,0.005607
14,-0.019652,0.005964,-0.012473
15,-0.019652,0.005964,-0.012473
16,-0.001113,0.005964,-0.030552
17,-0.001113,0.005964,-0.030552
18,-0.001113,0.024037,-0.012473
19,-0.001113,0.005964,-0.012473
20,-0.019652,0.024037,-0.030552
21,0.035965,0.005964,0.005607
22,-0.019652,-0.01211,0.005607
23,0.035965,0.005964,0.023687
24,-0.019652,0.005964,0.023687
25,0.017426,0.024037,0.023687
26,0.035965,0.005964,0.023687
27,-0.019652,-0.01211,0.041767
28,-0.019652,-0.01211,0.059847
29,-0.019652,-0.01211,0.023687
30,0.017426,0.005964,0.005607
31,-0.019652,0.005964,0.005607
32,-0.019652,-0.01211,-0.012473
33,-0.001113,0.005964,-0.012473
34,-0.001113,0.005964,-0.012473
35,0.017426,0.005964,0.005607
36,-0.019652,0.024037,-0.012473
37,-0.001113,0.005964,0.005607
38,-0.001113,0.024037,0.005607
39,-0.001113,0.024037,-0.012473
40,-0.001113,-0.01211,0.005607
41,-0.038191,0.005964,0.023687
42,-0.001113,0.024037,0.041767
43,-0.001113,0.024037,0.023687
44,-0.001113,0.005964,0.023687
45,-0.001113,0.024037,0.023687
46,-0.001113,-0.01211,0.005607
47,-0.001113,0.024037,0.023687
48,-0.001113,0.005964,-0.012473
49,0.017426,0.005964,-0.030552
50,-0.001113,0.005964,-0.012473
51,-0.001113,-0.01211,-0.030552
52,-0.001113,0.024037,-0.030552
53,-0.001113,0.005964,0.005607
54,-0.001113,0.005964,0.005607
55,-0.001113,0.005964,-0.012473
56,-0.038191,0.005964,0.005607
57,0.017426,0.005964,0.023687
58,-0.001113,0.005964,0.023687
59,-0.001113,0.005964,0.041767
60,-0.019652,0.005964,0.041767
61,-0.019652,0.005964,0.005607
62,-0.001113,-0.01211,0.005607
63,-0.001113,0.005964,0.005607
64,0.017426,-0.01211,0.005607
65,-0.019652,0.005964,-0.012473
66,-0.019652,0.005964,-0.030552
67,-0.019652,0.005964,-0.030552
68,-0.001113,0.005964,0.005607
69,-0.001113,0.005964,-0.012473
70,0.017426,0.005964,-0.012473
71,-0.001113,0.005964,0.023687
72,0.017426,0.005964,0.005607
73,-0.001113,0.024037,0.023687
74,-0.001113,0.005964,0.023687
75,0.017426,-0.01211,0.023687
76,-0.019652,-0.01211,0.023687
77,-0.001113,0.005964,0.041767
78,-0.001113,-0.01211,0.005607
79,-0.001113,0.005964,-0.012473
80,-0.001113,0.024037,0.005607
81,-0.019652,0.005964,-0.012473
82,-0.019652,0.024037,-0.012473
83,-0.001113,-0.01211,-0.030552
84,-0.001113,-0.01211,-0.012473
85,-0.001113,0.005964,-0.030552
86,-0.019652,0.005964,-0.012473
87,-0.001113,0.005964,0.005607
88,-0.001113,0.005964,-0.012473
89,0.017426,0.024037,0.005607
90,0.035965,0.005964,0.041767
91,-0.001113,0.005964,0.041767
92,-0.019652,0.024037,0.041767
93,-0.001113,0.005964,0.041767
94,-0.019652,0.005964,0.041767
95,0.017426,0.005964,0.023687
96,-0.019652,-0.01211,0.023687
97,-0.019652,-0.01211,-0.012473
98,-0.001113,0.005964,-0.012473
99,-0.001113,-0.01211,-0.012473
100,-0.019652,0.005964,-0.030552
101,-0.001113,-0.01211,-0.012473
102,0.035965,0.005964,-0.012473
103,-0.019652,0.005964,0.023687
104,0.017426,-0.030183,0.005607
105,-0.019652,0.005964,0.005607
106,-0.001113,-0.01211,0.005607
107,-0.001113,0.005964,0.023687
108,0.017426,0.005964,0.023687
109,-0.001113,0.005964,0.041767
110,-0.019652,0.024037,0.023687
111,-0.001113,0.005964,0.005607
112,-0.001113,0.005964,0.005607
113,-0.019652,0.005964,-0.012473
114,-0.019652,0.005964,-0.012473
115,-0.001113,0.005964,-0.012473
116,-0.001113,0.024037,0.005607
117,-0.001113,0.005964,-0.012473
118,-0.001113,0.005964,-0.030552
119,-0.001113,0.005964,-0.012473
120,-0.001113,0.005964,-0.012473
121,0.017426,0.005964,-0.012473
122,-0.001113,0.005964,0.023687
123,-0.001113,-0.01211,0.023687
124,-0.019652,0.005964,0.023687
125,-0.001113,-0.01211,0.023687
126,0.017426,0.024037,0.041767
127,-0.001113,0.024037,0.023687
128,-0.038191,0.005964,0.005607
129,-0.019652,0.005964,-0.012473
130,-0.019652,0.005964,-0.012473
131,-0.038191,-0.01211,-0.012473
132,-0.038191,-0.01211,0.023687
133,0.017426,0.005964,-0.012473
134,-0.019652,0.005964,-0.030552
135,-0.001113,0.005964,-0.030552
136,-0.001113,0.005964,-0.012473
137,-0.001113,-0.01211,-0.012473
138,-0.001113,-0.01211,0.005607
139,-0.001113,0.005964,0.005607
140,-0.001113,0.005964,0.023687
141,-0.001113,0.024037,0.023687
142,-0.001113,0.005964,0.023687
143,-0.001113,-0.01211,0.041767
144,0.017426,0.005964,0.041767
145,0.017426,-0.01211,0.005607
146,-0.001113,0.024037,0.005607
147,-0.001113,0.005964,-0.012473
148,-0.001113,0.005964,-0.012473
149,-0.001113,0.005964,-0.012473
150,-0.001113,0.005964,-0.012473
151,-0.019652,0.005964,-0.030552
152,-0.001113,0.024037,0.005607
153,-0.019652,0.005964,-0.012473
154,0.017426,0.005964,0.005607
155,-0.019652,0.005964,0.041767
156,-0.001113,0.005964,0.041767
157,-0.001113,0.005964,0.023687
158,-0.001113,-0.01211,0.023687
159,-0.019652,0.005964,0.041767
160,-0.019652,0.005964,0.023687
161,0.017426,0.024037,0.023687
162,-0.001113,0.024037,0.005607
163,0.035965,0.005964,-0.012473
164,-0.001113,0.005964,-0.012473
165,-0.001113,0.024037,-0.030552
166,-0.019652,0.005964,-0.030552
167,-0.019652,0.024037,-0.030552
168,-0.001113,0.005964,-0.012473
169,-0.001113,0.024037,-0.012473
170,-0.001113,0.024037,0.005607
171,-0.001113,0.005964,0.023687
172,-0.001113,0.005964,0.023687
173,-0.019652,0.005964,0.023687
174,-0.001113,-0.01211,0.023687
175,-0.001113,0.005964,0.041767
176,-0.001113,0.005964,0.005607
177,-0.001113,0.005964,0.005607
178,-0.001113,0.024037,0.005607
179,-0.001113,0.005964,-0.012473
180,-0.019652,-0.01211,-0.012473
181,-0.019652,-0.01211,-0.030552
182,-0.001113,-0.01211,-0.030552
183,-0.019652,-0.01211,-0.030552
184,-0.038191,0.005964,-0.030552
185,-0.019652,-0.01211,-0.012473
186,0.017426,0.005964,0.005607
187,-0.019652,0.024037,0.005607
188,-0.001113,0.005964,0.023687
189,-0.019652,0.005964,0.023687
190,0.017426,-0.01211,0.023687
191,-0.001113,0.04211,0.041767
192,0.017426,0.024037,0.023687
193,-0.001113,0.005964,0.005607
194,-0.001113,0.024037,0.005607
195,-0.019652,0.005964,-0.012473
196,-0.001113,0.024037,-0.030552
197,-0.001113,-0.030183,-0.030552
198,-0.001113,0.005964,-0.030552
199,-0.019652,-0.01211,-0.048632
200,-0.001113,0.005964,0.005607
201,-0.001113,0.024037,-0.012473
202,-0.001113,0.024037,0.005607
203,-0.001113,0.005964,0.005607
204,-0.019652,-0.01211,0.023687
205,-0.019652,0.005964,0.023687
206,-0.001113,0.005964,0.023687
207,-0.019652,0.005964,0.023687
208,-0.001113,0.005964,0.023687
209,0.017426,0.005964,-0.012473
210,-0.019652,0.024037,0.023687
211,-0.001113,0.005964,0.005607
212,-0.001113,0.005964,-0.012473
213,-0.019652,-0.01211,-0.012473
214,-0.019652,-0.01211,-0.030552
215,-0.019652,0.024037,-0.048632
216,-0.001113,0.005964,-0.012473
217,-0.001113,0.005964,-0.012473
218,-0.001113,-0.01211,0.005607
219,-0.019652,0.005964,0.005607
220,-0.001113,0.024037,0.005607
221,0.017426,0.024037,0.005607
222,-0.001113,0.005964,0.023687
223,-0.019652,0.005964,0.059847
224,-0.001113,0.005964,0.041767
225,-0.001113,0.005964,0.005607
226,-0.019652,0.005964,0.005607
227,-0.001113,0.024037,0.005607
228,-0.001113,0.005964,-0.012473
229,-0.019652,0.024037,-0.012473
230,-0.001113,0.005964,-0.048632
231,-0.001113,0.005964,-0.030552
232,0.017426,0.005964,-0.030552
233,-0.019652,0.005964,-0.012473
234,0.017426,-0.01211,0.005607
235,-0.019652,0.005964,0.005607
236,-0.001113,0.04211,0.005607
237,-0.001113,0.005964,0.023687
238,-0.019652,0.005964,0.041767
239,0.035965,0.005964,0.023687
240,0.017426,-0.01211,0.041767
241,-0.001113,0.005964,0.023687
242,-0.001113,0.024037,0.005607
243,0.017426,0.005964,0.005607
244,-0.001113,-0.01211,-0.012473
245,-0.001113,0.005964,-0.030552
246,-0.001113,0.005964,-0.012473
247,0.017426,0.005964,-0.030552
248,-0.001113,0.024037,-0.030552
249,-0.019652,-0.01211,-0.030552
250,-0.019652,0.005964,0.005607
251,-0.019652,0.024037,-0.012473
252,-0.001113,0.005964,-0.012473
253,0.017426,-0.01211,0.023687
254,-0.038191,0.005964,0.023687
255,-0.019652,0.005964,0.023687
256,-0.019652,0.005964,0.023687
257,0.017426,0.024037,0.023687
258,-0.001113,0.005964,0.023687
259,-0.019652,0.024037,0.005607
260,-0.001113,0.005964,0.023687
261,0.017426,0.024037,0.023687
262,-0.001113,0.005964,0.005607
263,0.017426,0.005964,-0.012473
264,-0.001113,0.005964,-0.012473
265,-0.001113,0.005964,-0.048632
266,-0.019652,0.005964,-0.030552
267,-0.019652,-0.01211,0.005607
268,-0.001113,-0.01211,0.005607
269,-0.001113,0.005964,0.005607
270,-0.001113,0.005964,0.023687
271,-0.019652,0.024037,0.005607
272,0.017426,-0.01211,0.041767
273,-0.019652,0.005964,0.041767
274,0.017426,0.005964,0.023687
275,-0.019652,0.005964,0.005607
276,-0.019652,0.005964,0.005607
277,-0.001113,0.024037,0.005607
278,-0.001113,0.005964,-0.012473
279,0.017426,0.024037,-0.030552
280,-0.001113,0.005964,-0.012473
281,-0.001113,0.024037,-0.030552
282,-0.001113,0.005964,-0.048632
283,-0.001113,0.005964,-0.030552
284,0.017426,0.005964,-0.012473
285,-0.001113,0.005964,0.005607
286,-0.001113,0.005964,0.023687
287,-0.019652,0.005964,0.023687
288,-0.001113,0.005964,0.005607
289,0.017426,0.024037,0.023687
290,-0.019652,-0.01211,0.041767
291,-0.019652,0.005964,0.023687
292,-0.001113,0.005964,0.005607
293,0.017426,-0.01211,-0.012473
294,-0.019652,0.024037,0.005607
295,-0.001113,0.005964,-0.030552
296,-0.001113,0.005964,-0.012473
297,-0.001113,0.005964,-0.012473
298,-0.001113,0.005964,-0.030552
299,-0.001113,0.005964,-0.012473
300,-0.001113,0.005964,0.005607
301,-0.038191,0.005964,0.005607
302,0.017426,0.005964,0.005607
303,-0.001113,0.024037,0.023687
304,-0.001113,-0.01211,0.005607
305,-0.001113,0.005964,0.005607
306,0.017426,0.005964,0.041767
307,-0.019652,0.024037,0.023687
308,-0.001113,0.005964,0.005607
309,-0.019652,0.024037,0.005607
310,-0.019652,0.005964,-0.012473
311,-0.001113,0.005964,-0.030552
312,-0.019652,0.005964,-0.012473
313,-0.001113,0.005964,-0.012473
314,-0.001113,0.024037,-0.030552
315,-0.001113,0.024037,-0.012473
316,-0.019652,0.005964,0.005607
317,0.017426,0.024037,-0.012473
318,0.017426,-0.01211,0.005607
319,0.017426,0.005964,0.005607
320,-0.001113,0.005964,0.023687
321,-0.001113,-0.01211,0.041767
322,-0.001113,0.005964,0.023687
323,-0.001113,0.024037,0.023687
324,-0.019652,0.04211,0.005607
325,-0.001113,0.005964,0.005607
326,-0.001113,0.024037,0.005607
327,-0.038191,0.024037,0.005607
328,-0.019652,0.024037,-0.012473
329,0.017426,0.005964,-0.012473
330,-0.019652,0.005964,-0.030552
331,-0.019652,0.005964,-0.030552
332,-0.019652,0.005964,-0.012473
333,-0.001113,0.005964,-0.012473
334,-0.001113,0.024037,0.005607
335,0.017426,0.005964,0.023687
336,-0.001113,0.005964,0.023687
337,-0.001113,0.005964,0.023687
338,-0.019652,0.024037,0.041767
339,-0.019652,0.005964,0.041767
340,-0.019652,0.005964,0.023687
341,-0.001113,0.005964,0.023687
342,-0.001113,-0.01211,0.005607
343,-0.019652,0.005964,0.005607
344,-0.001113,0.005964,-0.012473
345,0.017426,0.005964,-0.012473
346,-0.001113,0.024037,-0.012473
347,-0.001113,0.005964,-0.030552
348,-0.001113,0.005964,-0.012473
349,-0.019652,-0.01211,-0.012473
350,-0.001113,-0.030183,0.005607
351,0.017426,0.024037,0.005607
352,-0.001113,0.024037,0.023687
353,0.017426,0.005964,0.023687
354,-0.001113,0.024037,0.023687
355,-0.001113,0.005964,0.023687
356,-0.001113,0.005964,0.023687
357,-0.001113,0.005964,0.023687
358,-0.019652,0.005964,0.023687
359,-0.001113,-0.01211,0.005607
360,0.017426,0.005964,-0.012473
361,-0.001113,-0.01211,-0.012473
362,-0.001113,0.005964,0.005607
363,-0.001113,0.005964,-0.012473
364,-0.001113,0.024037,-0.012473
365,-0.019652,0.005964,-0.030552
366,-0.019652,0.005964,-0.012473
367,-0.019652,0.005964,-0.030552
368,-0.019652,-0.01211,-0.012473
369,-0.001113,0.005964,0.005607
370,-0.019652,0.024037,0.023687
371,-0.001113,0.005964,0.023687
372,0.017426,0.005964,0.059847
373,-0.019652,0.024037,0.041767
374,-0.001113,0.005964,0.023687
375,-0.001113,0.005964,0.005607
376,-0.001113,0.005964,-0.012473
377,-0.038191,0.005964,0.005607
378,-0.001113,0.005964,-0.012473
379,-0.001113,0.024037,-0.030552
380,-0.019652,0.005964,-0.030552
381,-0.019652,0.005964,-0.012473
382,-0.001113,0.005964,-0.012473
383,-0.001113,0.005964,-0.012473
384,0.017426,0.005964,-0.012473
385,-0.019652,0.005964,0.005607
386,-0.001113,0.005964,0.023687
387,-0.001113,0.024037,0.023687
388,-0.001113,0.024037,0.023687
389,-0.001113,0.005964,0.041767
390,-0.001113,-0.01211,0.023687
391,-0.001113,0.005964,0.005607
392,-0.001113,0.005964,0.005607
393,-0.038191,0.005964,0.005607
394,-0.019652,-0.01211,-0.012473
395,-0.019652,0.005964,-0.012473
396,-0.019652,0.005964,-0.012473
397,-0.019652,0.024037,-0.030552
398,-0.019652,0.005964,-0.012473
399,-0.001113,0.005964,-0.030552
400,-0.019652,0.005964,-0.012473
401,-0.001113,-0.01211,-0.012473
402,-0.001113,0.005964,0.005607
403,0.017426,0.005964,0.005607
404,-0.001113,0.005964,0.023687
405,0.017426,0.024037,0.005607
406,-0.019652,0.005964,0.023687
407,-0.001113,0.024037,0.023687
408,-0.019652,0.024037,0.023687
409,-0.001113,-0.01211,0.023687
410,0.017426,0.005964,0.005607
411,-0.001113,0.024037,0.005607
412,0.017426,-0.01211,-0.012473
413,-0.001113,-0.01211,-0.012473
414,-0.019652,0.005964,-0.030552
415,-0.001113,0.005964,-0.012473
416,-0.001113,0.005964,-0.012473
417,-0.001113,-0.01211,0.005607
418,0.017426,0.024037,0.005607
419,-0.001113,0.005964,0.005607
420,-0.019652,0.005964,0.005607
421,0.017426,-0.01211,0.023687
422,-0.001113,0.005964,0.023687
423,-0.001113,0.005964,0.041767
424,0.017426,-0.01211,0.023687
425,-0.001113,0.005964,0.023687
426,-0.001113,0.005964,0.023687
427,-0.001113,0.024037,0.005607
428,-0.019652,0.005964,-0.012473
429,-0.019652,-0.01211,-0.012473
430,-0.019652,0.005964,-0.030552
431,-0.001113,0.005964,-0.030552
432,-0.019652,0.005964,-0.012473
433,-0.019652,0.005964,-0.030552
434,-0.001113,0.005964,0.005607
435,-0.001113,0.005964,-0.012473
436,-0.019652,-0.01211,0.005607
437,0.017426,0.005964,0.005607
438,-0.001113,0.005964,0.023687
439,0.017426,0.005964,0.023687
440,-0.019652,0.024037,0.023687
441,-0.001113,0.005964,0.041767
442,-0.001113,0.005964,0.023687
443,-0.001113,0.024037,0.005607
444,-0.001113,0.005964,0.005607
445,-0.019652,0.005964,0.005607
446,-0.001113,0.005964,-0.012473
447,-0.001113,0.005964,-0.012473
448,-0.019652,-0.01211,-0.012473
449,-0.019652,-0.01211,-0.030552
450,-0.001113,-0.01211,-0.030552
451,-0.001113,0.005964,-0.012473
452,-0.001113,0.024037,-0.012473
453,-0.001113,0.024037,0.005607
454,-0.001113,0.005964,0.023687
455,-0.001113,0.024037,0.023687
456,-0.001113,-0.01211,0.023687
457,-0.001113,-0.01211,0.023687
458,0.017426,0.024037,0.023687
459,0.017426,0.005964,0.023687
460,-0.001113,-0.01211,0.005607
461,-0.001113,0.024037,0.005607
462,-0.001113,0.005964,0.005607
463,-0.019652,-0.01211,-0.012473
464,-0.001113,0.005964,-0.030552
465,0.017426,0.005964,-0.012473
466,-0.019652,0.024037,-0.012473
467,-0.038191,0.005964,-0.048632
468,-0.019652,0.005964,0.005607
469,-0.001113,-0.01211,-0.012473
470,-0.001113,0.024037,0.005607
471,0.017426,0.005964,0.023687
472,-0.038191,0.024037,0.005607
473,0.017426,0.024037,0.023687
474,-0.001113,0.005964,0.023687
475,0.017426,-0.01211,0.041767
476,-0.038191,-0.01211,0.023687
477,-0.001113,0.005964,0.005607
478,-0.001113,0.005964,0.005607
479,-0.001113,0.005964,-0.012473
480,-0.001113,-0.01211,-0.012473
481,-0.019652,0.005964,-0.012473
482,-0.001113,-0.01211,0.005607
483,-0.001113,0.005964,-0.030552
484,-0.001113,0.024037,-0.030552
485,-0.019652,0.005964,-0.030552
486,-0.019652,0.005964,-0.012473
487,-0.001113,-0.01211,0.005607
488,-0.001113,0.005964,0.005607
489,-0.001113,0.005964,-0.012473
490,-0.001113,-0.01211,0.023687
491,-0.001113,0.005964,0.023687
492,-0.001113,0.005964,0.023687
493,-0.001113,-0.01211,0.023687
494,-0.001113,0.005964,0.041767
495,-0.019652,0.024037,0.023687
496,-0.001113,0.005964,-0.012473
497,-0.019652,-0.01211,0.005607
498,-0.001113,0.024037,-0.030552
499,-0.019652,0.005964,-0.012473
500,-0.001113,0.005964,0.005607
501,-0.001113,0.005964,-0.012473
502,-0.001113,0.005964,-0.030552
503,-0.001113,0.005964,-0.048632
504,-0.001113,0.024037,0.005607
505,-0.001113,0.005964,0.005607
506,-0.001113,-0.01211,0.005607
507,-0.019652,-0.01211,0.005607
508,-0.001113,0.005964,0.023687
509,-0.001113,0.005964,0.023687
510,0.017426,0.005964,0.023687
511,-0.001113,0.005964,0.005607
512,-0.019652,-0.01211,0.005607
513,-0.019652,-0.01211,-0.012473
514,0.017426,-0.01211,-0.012473
515,-0.001113,0.005964,-0.012473
516,-0.019652,-0.01211,-0.012473
517,0.017426,0.005964,-0.012473
518,-0.001113,-0.01211,-0.048632
519,-0.001113,0.005964,-0.030552
520,-0.001113,0.005964,-0.030552
521,-0.019652,0.005964,-0.030552
522,-0.001113,0.005964,-0.012473
523,-0.001113,0.005964,0.023687
524,-0.001113,0.024037,0.023687
525,0.017426,0.024037,0.041767
526,-0.001113,0.005964,0.041767
527,-0.001113,-0.01211,0.041767
528,-0.001113,0.024037,0.041767
529,-0.001113,0.005964,0.023687
530,-0.019652,0.005964,0.023687
531,0.017426,-0.01211,0.023687
532,0.017426,-0.01211,-0.012473
533,-0.019652,0.005964,0.005607
534,-0.019652,-0.01211,-0.012473
535,-0.019652,0.005964,-0.012473
536,-0.001113,0.005964,-0.030552
537,-0.001113,0.005964,-0.030552
538,-0.019652,0.005964,-0.012473
539,-0.019652,-0.01211,-0.012473
540,-0.019652,0.005964,0.005607
541,-0.001113,0.005964,0.023687
542,0.035965,0.005964,0.023687
543,-0.001113,0.005964,0.023687
544,-0.001113,-0.01211,0.041767
545,-0.019652,0.005964,0.023687
546,-0.001113,0.005964,0.005607
547,0.017426,0.005964,0.005607
548,0.017426,0.005964,-0.012473
549,-0.019652,-0.01211,-0.012473
550,-0.001113,-0.01211,-0.012473
551,-0.001113,0.005964,-0.030552
552,-0.019652,0.005964,0.005607
553,-0.001113,0.005964,-0.012473
554,-0.019652,0.024037,-0.012473
555,-0.019652,0.024037,-0.012473
556,-0.001113,0.024037,0.005607
557,-0.001113,-0.01211,-0.012473
558,-0.001113,-0.030183,0.005607
559,-0.001113,0.005964,0.005607
560,-0.001113,0.005964,0.005607
561,-0.001113,0.005964,0.005607
562,-0.019652,0.005964,0.023687
563,-0.019652,0.005964,0.041767
564,-0.001113,-0.01211,0.005607
565,-0.019652,-0.01211,-0.030552
566,-0.019652,0.024037,-0.012473
567,-0.001113,-0.01211,-0.012473
568,-0.001113,0.005964,-0.012473
569,-0.019652,0.005964,-0.030552
570,-0.019652,0.005964,-0.048632
571,-0.019652,0.005964,-0.012473
572,-0.001113,0.005964,0.005607
573,-0.001113,0.005964,0.005607
574,-0.001113,0.024037,0.023687
575,0.017426,0.024037,0.023687
576,-0.001113,0.005964,0.023687
577,-0.001113,0.005964,0.023687
578,0.017426,0.005964,0.041767
579,-0.019652,-0.01211,0.005607
580,-0.001113,-0.01211,-0.030552
581,-0.001113,-0.01211,-0.048632
582,0.017426,-0.01211,-0.048632
583,-0.019652,0.005964,-0.030552
584,-0.019652,-0.048257,-0.048632
585,-0.019652,-0.01211,-0.030552
586,-0.019652,0.005964,-0.030552
587,0.017426,-0.030183,-0.048632
588,-0.001113,-0.01211,0.023687
589,0.017426,0.024037,0.059847
590,-0.001113,0.024037,0.077927
591,0.017426,0.024037,0.059847
592,-0.001113,0.024037,0.059847
593,-0.001113,0.024037,0.059847
594,-0.001113,0.005964,0.059847
595,-0.001113,0.024037,0.041767
596,-0.001113,0.005964,0.023687
597,-0.019652,-0.01211,0.023687
598,-0.001113,-0.01211,0.005607
599,-0.001113,-0.01211,-0.012473
600,0.017426,0.005964,-0.012473
601,-0.001113,-0.01211,-0.012473
602,-0.001113,0.024037,-0.012473
603,-0.019652,-0.01211,-0.012473
604,-0.001113,0.024037,-0.030552
605,-0.001113,0.005964,-0.030552
606,-0.038191,0.005964,-0.012473
607,0.017426,-0.01211,-0.012473
608,-0.001113,0.005964,-0.012473
609,-0.001113,0.005964,-0.012473
610,-0.001113,-0.01211,0.023687
611,-0.038191,-0.01211,0.041767
612,-0.001113,0.024037,0.041767
613,-0.019652,0.024037,0.023687
614,-0.019652,0.005964,0.005607
615,-0.001113,0.005964,-0.012473
616,0.017426,0.024037,-0.030552
617,0.017426,-0.01211,-0.048632
618,-0.019652,0.005964,-0.012473
619,-0.001113,-0.030183,-0.012473
620,-0.019652,0.024037,0.005607
621,-0.001113,0.005964,-0.048632
622,-0.019652,0.005964,-0.030552
623,-0.019652,0.04211,0.005607
624,-0.001113,0.005964,0.005607
625,0.017426,0.005964,0.005607
626,-0.019652,0.024037,0.023687
627,-0.001113,0.005964,0.023687
628,-0.001113,0.005964,-0.012473
629,-0.001113,-0.01211,-0.012473
630,-0.019652,0.005964,-0.012473
631,-0.001113,0.005964,-0.030552
632,0.017426,-0.01211,-0.012473
633,0.017426,-0.01211,-0.030552
634,-0.001113,-0.01211,-0.048632
635,-0.019652,-0.01211,-0.066712
636,-0.001113,-0.01211,-0.030552
637,-0.001113,0.005964,0.023687
638,-0.001113,0.024037,0.023687
639,-0.001113,0.005964,0.023687
640,0.035965,0.005964,0.041767
641,-0.019652,-0.01211,0.059847
642,-0.001113,0.024037,0.059847
643,-0.001113,0.005964,0.059847
644,0.017426,0.005964,0.059847
645,-0.001113,0.005964,0.059847
646,-0.001113,0.005964,0.041767
647,-0.001113,0.005964,0.005607
648,0.017426,-0.01211,-0.012473
649,-0.038191,-0.01211,-0.030552
650,0.017426,0.005964,-0.012473
651,-0.001113,0.005964,-0.012473
652,-0.019652,-0.01211,-0.066712
653,-0.001113,0.04211,-0.030552
654,-0.019652,0.005964,-0.048632
655,-0.001113,-0.030183,-0.030552
656,-0.001113,0.024037,-0.012473
657,0.017426,0.005964,0.005607
658,-0.019652,0.005964,0.005607
659,-0.001113,-0.01211,0.041767
660,-0.001113,0.005964,0.041767
661,-0.001113,0.024037,0.059847
662,-0.038191,0.005964,0.041767
663,0.017426,0.024037,0.005607
664,-0.001113,-0.01211,0.023687
665,-0.001113,0.005964,0.005607
666,-0.019652,0.005964,-0.012473
667,-0.001113,0.005964,-0.012473
668,-0.019652,0.024037,0.005607
669,-0.001113,0.024037,0.005607
670,-0.001113,0.005964,0.005607
671,0.017426,0.005964,-0.012473
672,-0.001113,-0.01211,-0.012473
673,-0.019652,0.024037,0.005607
674,0.017426,0.024037,0.005607
675,-0.001113,0.024037,0.005607
676,-0.019652,0.005964,-0.012473
677,-0.001113,0.024037,0.005607
678,-0.001113,0.005964,-0.030552
679,-0.019652,0.005964,-0.048632
680,-0.001113,0.005964,-0.012473
681,-0.001113,0.005964,-0.012473
682,-0.001113,0.005964,0.023687
683,-0.019652,0.005964,0.059847
684,0.017426,0.005964,0.023687
685,0.017426,0.005964,-0.012473
686,-0.001113,0.024037,-0.030552
687,0.017426,0.005964,-0.012473
688,-0.019652,0.024037,-0.012473
689,-0.019652,0.024037,-0.012473
690,-0.019652,0.005964,0.005607
691,-0.019652,-0.01211,0.023687
692,-0.001113,-0.01211,0.005607
693,0.017426,0.005964,-0.012473
694,-0.001113,0.005964,-0.012473
695,-0.001113,-0.01211,0.005607
696,-0.019652,0.024037,0.005607
697,-0.001113,0.005964,0.023687
698,-0.019652,-0.01211,0.023687
699,0.017426,0.024037,0.041767
700,-0.001113,0.024037,0.041767
701,-0.001113,0.005964,0.041767
702,-0.019652,0.005964,0.041767
703,-0.001113,0.024037,0.023687
704,-0.001113,0.024037,0.023687
705,-0.001113,0.005964,-0.012473
706,-0.019652,0.024037,-0.030552
707,-0.001113,0.005964,-0.048632
708,-0.019652,0.005964,-0.048632
709,-0.001113,-0.030183,-0.066712
710,-0.038191,0.005964,-0.084792
711,-0.038191,-0.01211,-0.066712
712,-0.019652,0.005964,-0.048632
713,-0.05673,-0.01211,-0.030552
714,-0.038191,-0.01211,-0.012473
715,-0.019652,-0.01211,-0.012473
716,0.054504,0.005964,0.005607
717,0.035965,0.024037,-0.012473
718,0.035965,0.005964,0.005607
719,0.035965,0.005964,0.005607
720,0.017426,0.005964,0.023687
721,-0.001113,0.024037,0.023687
722,-0.001113,-0.01211,0.023687
723,-0.038191,0.005964,0.041767
724,-0.019652,0.024037,0.059847
725,-0.019652,0.024037,0.114086
726,-0.001113,0.024037,0.059847
727,-0.001113,0.024037,0.059847
728,-0.001113,0.005964,0.059847
729,-0.001113,0.005964,0.041767
730,-0.001113,0.005964,0.041767
731,0.017426,0.024037,0.041767
732,-0.001113,0.005964,0.041767
733,-0.001113,0.005964,0.023687
734,-0.001113,-0.01211,0.005607
735,-0.001113,0.005964,-0.012473
736,-0.001113,-0.01211,-0.048632
737,-0.038191,-0.030183,-0.066712
738,-0.001113,0.005964,-0.066712
739,-0.001113,0.005964,-0.030552
740,0.035965,0.024037,-0.030552
741,-0.001113,-0.01211,-0.030552
742,-0.038191,-0.01211,-0.030552
743,-0.019652,-0.01211,-0.012473
744,-0.001113,0.005964,0.023687
745,-0.019652,0.005964,0.023687
746,-0.019652,0.005964,0.059847
747,0.017426,0.005964,0.096007
748,-0.001113,0.005964,0.077927
749,-0.001113,0.024037,0.041767
750,0.017426,0.024037,0.059847
751,-0.001113,0.024037,0.005607
752,0.017426,0.005964,-0.030552
753,-0.001113,0.005964,-0.084792
754,-0.001113,0.005964,-0.048632
755,0.017426,0.005964,-0.030552
756,-0.001113,-0.01211,-0.048632
757,-0.038191,-0.01211,-0.084792
758,-0.019652,0.005964,-0.066712
759,-0.019652,-0.01211,-0.048632
760,-0.001113,0.005964,0.005607
761,-0.001113,0.04211,0.059847
762,-0.001113,0.024037,0.096007
763,-0.001113,0.024037,0.059847
764,-0.019652,0.024037,0.077927
765,-0.001113,0.024037,0.059847
766,-0.019652,0.005964,0.023687
767,0.017426,0.024037,0.023687
768,-0.019652,-0.01211,0.041767
769,-0.001113,0.005964,0.059847
770,-0.019652,0.005964,0.023687
771,-0.019652,0.005964,-0.012473
772,-0.001113,0.005964,-0.012473
773,-0.038191,0.024037,-0.012473
774,-0.019652,0.024037,0.005607
775,-0.038191,0.005964,-0.012473
776,-0.05673,-0.01211,-0.030552
777,-0.038191,0.005964,-0.030552
778,0.017426,-0.01211,-0.030552
779,0.054504,0.005964,0.005607
780,0.054504,0.005964,-0.012473
781,0.035965,0.024037,-0.012473
782,-0.001113,-0.01211,-0.012473
783,-0.001113,-0.01211,-0.012473
784,-0.019652,-0.01211,-0.030552
785,0.017426,-0.01211,-0.012473
786,-0.001113,0.005964,-0.012473
787,-0.001113,0.005964,0.005607
788,-0.001113,0.005964,0.077927
789,-0.001113,-0.01211,0.005607
790,-0.019652,-0.01211,-0.030552
791,-0.001113,0.024037,-0.030552
792,-0.001113,0.005964,-0.030552
793,-0.038191,0.024037,-0.048632
794,-0.019652,0.024037,-0.012473
795,-0.001113,0.005964,0.005607
796,-0.001113,0.005964,-0.012473
797,-0.001113,0.024037,0.041767
798,-0.001113,0.04211,0.059847
799,-0.019652,0.024037,0.041767
800,-0.019652,-0.01211,0.041767
801,-0.019652,0.005964,0.041767
802,0.017426,0.024037,0.023687
803,0.035965,0.024037,-0.012473
804,0.035965,0.005964,-0.066712
805,-0.001113,0.005964,-0.084792
806,-0.019652,-0.01211,-0.084792
807,-0.019652,0.005964,-0.066712
808,-0.038191,0.005964,0.005607
809,-0.019652,0.024037,0.023687
810,0.035965,0.04211,0.096007
811,0.017426,0.024037,0.132166
812,-0.001113,0.005964,0.132166
813,-0.001113,0.024037,0.114086
814,0.017426,0.04211,0.077927
815,0.017426,0.04211,0.023687
816,0.017426,0.005964,-0.030552
817,-0.001113,-0.01211,-0.030552
818,-0.038191,-0.01211,0.023687
819,-0.001113,0.024037,0.005607
820,-0.019652,0.024037,0.059847
821,0.054504,0.024037,0.041767
822,-0.019652,0.024037,0.041767
823,-0.038191,0.005964,0.041767
824,-0.019652,-0.01211,-0.030552
825,-0.001113,-0.01211,-0.084792
826,-0.001113,-0.01211,-0.066712
827,-0.001113,-0.01211,-0.066712
828,-0.019652,0.005964,-0.012473
829,-0.001113,0.04211,0.041767
830,-0.001113,0.005964,0.077927
831,-0.019652,0.04211,0.059847
832,-0.019652,0.005964,0.041767
833,-0.001113,0.005964,0.005607
834,-0.001113,0.024037,0.041767
835,0.017426,0.024037,0.041767
836,-0.001113,0.024037,0.041767
837,0.017426,0.005964,-0.012473
838,0.017426,0.005964,0.005607
839,-0.001113,0.005964,-0.030552
840,-0.019652,0.005964,-0.012473
841,-0.001113,0.005964,-0.048632
842,0.017426,0.024037,-0.048632
843,0.017426,-0.01211,-0.012473
844,-0.001113,0.024037,0.005607
845,-0.001113,0.005964,0.023687
846,0.017426,0.024037,0.005607
847,0.035965,0.04211,0.023687
848,0.017426,0.024037,0.059847
849,0.017426,-0.01211,0.005607
850,-0.001113,-0.01211,0.041767
851,-0.019652,0.005964,0.005607
852,0.035965,0.024037,0.005607
853,0.017426,-0.01211,0.005607
854,-0.001113,-0.01211,-0.102872
855,-0.019652,-0.01211,-0.066712
856,-0.019652,0.024037,-0.030552
857,-0.001113,0.005964,-0.120952
858,-0.019652,0.005964,-0.120952
859,-0.038191,0.024037,-0.030552
860,-0.001113,-0.01211,-0.048632
861,-0.001113,-0.01211,-0.048632
862,0.017426,0.005964,0.023687
863,0.017426,0.005964,0.132166
864,-0.001113,0.024037,0.132166
865,-0.019652,0.04211,0.168326
866,-0.001113,0.024037,0.204486
867,-0.038191,0.005964,0.114086
868,-0.038191,0.005964,-0.012473
869,0.035965,0.04211,-0.030552
870,0.073044,0.005964,-0.048632
871,0.073044,0.024037,-0.048632
872,0.035965,0.005964,-0.048632
873,-0.001113,0.005964,-0.012473
874,-0.001113,-0.01211,0.041767
875,0.017426,0.005964,0.096007
876,0.017426,0.005964,0.041767
877,0.017426,-0.01211,0.023687
878,0.017426,0.005964,-0.048632
879,0.035965,0.005964,-0.030552
880,-0.001113,-0.048257,0.005607
881,0.017426,-0.01211,0.023687
882,0.017426,0.005964,0.059847
883,0.017426,-0.01211,0.005607
884,0.017426,0.024037,0.023687
885,0.035965,0.024037,0.005607
886,0.017426,0.024037,0.059847
887,0.017426,0.024037,0.023687
888,-0.038191,-0.048257,-0.120952
889,-0.001113,-0.01211,-0.084792
890,-0.019652,-0.01211,0.077927
891,0.017426,0.04211,0.114086
892,-0.019652,0.005964,0.041767
893,0.017426,0.024037,0.059847
894,0.035965,0.04211,0.059847
895,0.017426,-0.01211,-0.048632
896,-0.001113,-0.01211,-0.102872
897,-0.019652,-0.048257,-0.139032
898,-0.019652,-0.030183,-0.084792
899,-0.019652,-0.030183,-0.066712
900,-0.001113,0.005964,-0.048632
901,0.017426,0.005964,-0.066712
902,-0.001113,0.005964,0.005607
903,-0.001113,0.024037,0.059847
904,-0.001113,0.005964,0.041767
905,0.017426,0.04211,0.059847
906,0.035965,0.04211,0.132166
907,-0.001113,0.04211,0.059847
908,0.017426,0.005964,-0.030552
909,-0.038191,-0.06633,-0.120952
910,-0.019652,-0.06633,-0.175191
911,-0.038191,-0.048257,-0.030552
912,-0.001113,0.005964,0.114086
913,0.017426,0.024037,0.258725
914,0.035965,0.060184,0.059847
915,0.035965,0.04211,-0.102872
916,0.017426,0.005964,-0.193271
917,-0.001113,0.024037,-0.120952
918,0.035965,0.005964,-0.066712
919,0.017426,0.024037,-0.012473
920,-0.001113,0.04211,0.186406
921,-0.001113,0.04211,0.312965
922,-0.001113,0.04211,0.204486
923,-0.001113,-0.01211,0.077927
924,-0.038191,-0.030183,0.005607
925,-0.001113,0.024037,0.041767
926,-0.001113,-0.01211,-0.012473
927,0.017426,-0.01211,-0.030552
928,-0.019652,0.005964,-0.012473
929,-0.001113,0.005964,0.023687
930,-0.001113,0.005964,0.023687
931,-0.001113,-0.01211,-0.084792
932,-0.019652,-0.030183,-0.048632
933,-0.001113,-0.01211,-0.012473
934,0.017426,0.005964,0.041767
935,0.017426,0.024037,0.023687
936,0.017426,0.024037,0.041767
937,0.017426,0.024037,-0.030552
938,-0.001113,-0.01211,0.059847
939,-0.019652,-0.01211,-0.012473
940,0.017426,0.005964,-0.030552
941,-0.019652,-0.030183,-0.048632
942,-0.019652,-0.048257,-0.102872
943,-0.038191,-0.030183,-0.084792
944,-0.019652,-0.030183,-0.048632
945,-0.019652,-0.030183,-0.030552
946,0.017426,-0.01211,0.023687
947,0.035965,0.04211,0.114086
948,0.054504,0.04211,0.096007
949,-0.001113,0.005964,0.005607
950,-0.019652,-0.01211,0.132166
951,0.017426,0.024037,0.059847
952,-0.019652,-0.030183,-0.175191
953,-0.038191,-0.030183,-0.102872
954,-0.019652,-0.030183,-0.193271
955,-0.019652,0.005964,-0.066712
956,-0.001113,-0.01211,0.005607
957,-0.001113,-0.01211,0.005607
958,0.035965,0.024037,0.041767
959,0.035965,0.060184,0.204486
960,0.054504,0.096331,0.331045
961,-0.019652,0.04211,0.096007
962,0.035965,0.024037,-0.139032
963,0.035965,0.024037,-0.084792
964,-0.019652,0.005964,-0.048632
965,-0.019652,-0.030183,-0.102872
966,-0.038191,-0.030183,-0.066712
967,-0.019652,-0.030183,-0.030552
968,-0.038191,-0.030183,-0.030552
969,-0.019652,-0.048257,0.041767
970,-0.001113,-0.01211,0.041767
971,-0.001113,0.005964,-0.012473
972,-0.001113,0.024037,0.041767
973,0.035965,0.04211,0.041767
974,0.035965,0.04211,0.041767
975,0.035965,0.024037,0.114086
976,-0.001113,0.024037,0.077927
977,0.017426,-0.01211,0.114086
978,-0.001113,-0.030183,0.096007
979,0.017426,-0.030183,-0.048632
980,-0.001113,0.024037,0.132166
981,-0.001113,0.024037,0.005607
982,0.017426,-0.01211,-0.157112
983,-0.019652,-0.06633,-0.247511
984,-0.019652,-0.048257,-0.229431
985,-0.001113,-0.030183,-0.211351
986,-0.038191,-0.084403,-0.31983
987,-0.05673,-0.084403,-0.265591
988,-0.05673,-0.084403,-0.030552
989,0.017426,0.04211,0.204486
990,0.017426,0.04211,0.168326
991,0.017426,0.04211,0.186406
992,0.035965,0.04211,0.204486
993,-0.001113,0.005964,-0.066712
994,-0.019652,-0.01211,-0.120952
995,-0.019652,-0.01211,-0.066712
996,-0.019652,-0.01211,0.005607
997,0.035965,0.060184,0.276805
998,0.091583,0.078257,0.204486
999,0.073044,0.078257,-0.012473
1000,0.035965,0.005964,-0.229431
1001,-0.001113,0.005964,0.005607
1002,-0.038191,-0.030183,0.096007
1003,-0.019652,-0.01211,0.312965
1004,-0.001113,0.060184,0.276805
1005,-0.019652,0.024037,0.150246
1006,-0.019652,0.04211,0.023687
1007,-0.038191,-0.01211,-0.193271
1008,-0.038191,-0.048257,-0.283671
1009,-0.019652,-0.06633,-0.139032
1010,-0.001113,-0.048257,-0.102872
1011,-0.05673,-0.048257,-0.193271
1012,-0.001113,-0.030183,0.005607
1013,0.054504,0.096331,0.331045
1014,0.054504,0.132477,0.240646
1015,0.035965,0.04211,0.041767
1016,-0.019652,0.024037,-0.012473
1017,-0.038191,-0.01211,0.005607
1018,-0.001113,0.005964,0.041767
1019,-0.038191,-0.048257,-0.193271
1020,-0.05673,-0.102477,-0.30175
1021,-0.07527,-0.12055,-0.229431
1022,-0.001113,-0.030183,-0.030552
1023,0.017426,-0.01211,-0.175191
1024,-0.001113,-0.06633,-0.39215
1025,-0.038191,-0.084403,-0.265591
1026,-0.001113,-0.01211,0.005607
1027,0.035965,0.060184,0.312965
1028,0.054504,0.04211,0.421444
1029,0.017426,0.096331,0.548003
1030,0.017426,0.078257,0.331045
1031,0.035965,0.096331,0.258725
1032,0.035965,0.060184,0.096007
1033,0.035965,0.04211,0.114086
1034,-0.001113,-0.01211,-0.066712
1035,-0.038191,-0.030183,-0.229431
1036,0.017426,0.024037,0.114086
1037,0.035965,0.078257,0.276805
1038,0.017426,0.024037,-0.084792
1039,-0.019652,-0.030183,-0.229431
1040,-0.093809,-0.102477,-0.35599
1041,-0.07527,-0.084403,-0.33791
1042,-0.019652,-0.06633,-0.30175
1043,0.035965,0.005964,-0.211351
1044,0.035965,0.024037,0.041767
1045,0.035965,0.060184,0.475684
1046,0.017426,0.096331,0.276805
1047,0.054504,0.060184,0.041767
1048,0.035965,0.04211,-0.030552
1049,-0.038191,-0.048257,-0.265591
1050,-0.05673,-0.06633,-0.229431
1051,-0.05673,-0.030183,0.096007
1052,0.017426,0.04211,0.403364
1053,0.035965,0.078257,0.132166
1054,0.073044,0.078257,-0.084792
1055,-0.001113,0.024037,-0.102872
1056,-0.07527,-0.06633,-0.211351
1057,-0.038191,-0.06633,-0.175191
1058,-0.038191,-0.048257,0.005607
1059,-0.038191,-0.01211,-0.120952
1060,0.017426,-0.01211,-0.157112
1061,0.017426,0.04211,0.204486
1062,0.017426,0.024037,0.258725
1063,-0.001113,0.060184,0.258725
1064,0.035965,0.04211,0.403364
1065,-0.019652,0.005964,0.150246
1066,-0.038191,-0.06633,-0.120952
1067,-0.019652,-0.01211,-0.030552
1068,-0.001113,-0.01211,-0.193271
1069,-0.019652,-0.030183,-0.39215
1070,-0.019652,-0.06633,-0.35599
1071,-0.07527,-0.12055,-0.229431
1072,-0.038191,-0.12055,-0.283671
1073,-0.019652,0.005964,-0.139032
1074,0.091583,0.114404,-0.012473
1075,0.091583,0.168624,0.385284
1076,-0.001113,0.060184,0.204486
1077,-0.038191,0.005964,0.602243
1078,-0.05673,0.04211,0.674562
1079,-0.001113,0.132477,0.511844
1080,-0.001113,0.078257,0.240646
1081,0.017426,0.04211,0.041767
1082,-0.019652,-0.01211,0.077927
1083,-0.019652,-0.01211,-0.012473
1084,-0.038191,-0.01211,-0.265591
1085,0.017426,-0.01211,-0.39215
1086,-0.001113,-0.01211,-0.175191
1087,-0.001113,-0.01211,-0.157112
1088,-0.019652,-0.030183,-0.139032
1089,-0.001113,-0.01211,-0.084792
1090,-0.05673,-0.084403,-0.012473
1091,-0.019652,-0.048257,0.186406
1092,-0.001113,0.005964,0.059847
1093,0.035965,0.04211,-0.030552
1094,0.073044,0.096331,-0.066712
1095,0.073044,0.078257,-0.102872
1096,-0.019652,-0.048257,-0.35599
1097,-0.05673,-0.084403,-0.35599
1098,-0.07527,-0.048257,0.186406
1099,-0.07527,-0.01211,0.204486
1100,-0.038191,-0.030183,0.041767
1101,-0.019652,0.005964,0.114086
1102,0.017426,0.04211,0.059847
1103,0.017426,0.024037,-0.120952
1104,0.035965,0.005964,-0.012473
1105,-0.038191,0.005964,0.150246
1106,-0.001113,0.060184,0.421444
1107,-0.001113,0.078257,0.150246
1108,0.054504,0.060184,-0.120952
1109,-0.019652,0.005964,-0.193271
1110,-0.001113,0.005964,-0.030552
1111,-0.038191,-0.06633,-0.102872
1112,-0.07527,-0.048257,-0.229431
1113,-0.038191,0.005964,-0.102872
1114,-0.05673,-0.084403,-0.193271
1115,-0.038191,-0.048257,-0.030552
1116,-0.001113,0.005964,0.150246
1117,-0.001113,-0.01211,-0.030552
1118,0.017426,0.024037,-0.066712
1119,-0.001113,0.005964,-0.229431
1120,-0.019652,-0.01211,-0.012473
1121,-0.001113,-0.01211,0.168326
1122,-0.001113,0.024037,0.132166
1123,0.035965,0.078257,0.222566
1124,-0.038191,0.005964,-0.193271
1125,-0.05673,-0.048257,-0.30175
1126,-0.07527,-0.102477,-0.39215
1127,-0.05673,-0.06633,-0.175191
1128,-0.05673,0.005964,0.421444
1129,0.017426,0.060184,0.240646
1130,0.035965,0.078257,0.186406
1131,0.017426,0.096331,0.258725
1132,0.035965,0.024037,0.150246
1133,0.035965,0.060184,0.240646
1134,0.017426,0.04211,0.096007
1135,0.054504,0.096331,0.276805
1136,0.017426,0.04211,0.186406
1137,-0.019652,-0.030183,0.005607
1138,0.017426,0.005964,0.005607
1139,-0.038191,0.024037,-0.030552
1140,-0.038191,-0.048257,-0.283671
1141,-0.038191,-0.01211,-0.175191
1142,0.017426,0.04211,0.005607
1143,-0.001113,0.005964,-0.102872
1144,-0.07527,-0.12055,-0.048632
1145,-0.112348,-0.102477,-0.139032
1146,-0.038191,-0.030183,-0.175191
1147,-0.019652,-0.06633,-0.265591
1148,0.017426,-0.030183,-0.265591
1149,-0.05673,-0.048257,-0.193271
1150,-0.019652,-0.01211,-0.030552
1151,0.017426,0.04211,0.114086
1152,0.017426,0.078257,0.475684
1153,-0.038191,0.005964,0.294885
1154,-0.019652,0.005964,0.222566
1155,0.035965,0.078257,0.168326
1156,0.073044,0.060184,-0.139032
1157,0.035965,-0.01211,-0.283671
1158,-0.112348,-0.156697,-0.265591
1159,-0.093809,-0.084403,0.258725
1160,-0.019652,0.078257,0.294885
1161,0.054504,0.114404,0.240646
1162,0.035965,0.078257,0.005607
1163,0.017426,0.024037,-0.012473
1164,0.035965,0.024037,-0.120952
1165,0.017426,-0.01211,-0.283671
1166,-0.019652,-0.048257,-0.211351
1167,-0.038191,-0.084403,-0.265591
1168,-0.05673,-0.084403,-0.193271
1169,-0.038191,-0.06633,0.059847
1170,-0.019652,0.04211,0.276805
1171,0.073044,0.078257,0.276805
1172,0.035965,0.078257,0.421444
1173,0.035965,0.060184,0.222566
1174,0.054504,0.132477,0.240646
1175,0.035965,0.078257,-0.211351
1176,-0.07527,-0.102477,-0.554869
1177,-0.112348,-0.12055,-0.30175
1178,-0.07527,-0.102477,0.059847
1179,-0.05673,-0.030183,0.367205
1180,0.035965,0.04211,0.204486
1181,0.035965,0.060184,0.204486
1182,0.017426,0.024037,0.041767
1183,-0.05673,-0.06633,-0.193271
1184,-0.038191,-0.030183,-0.229431
1185,-0.05673,-0.048257,-0.283671
1186,-0.019652,-0.06633,-0.139032
1187,-0.001113,-0.01211,0.222566
1188,-0.001113,0.04211,0.349125
1189,-0.001113,0.024037,0.041767
1190,-0.019652,0.024037,-0.102872
1191,-0.019652,0.005964,-0.211351
1192,-0.019652,-0.01211,-0.247511
1193,-0.001113,-0.048257,-0.229431
1194,-0.019652,-0.048257,-0.500629
1195,-0.019652,-0.102477,-0.464469
1196,0.054504,0.04211,0.096007
1197,0.091583,0.132477,0.674562
1198,0.073044,0.114404,0.728802
1199,0.035965,0.04211,0.421444
1200,-0.038191,-0.01211,0.222566
1201,-0.001113,0.005964,0.096007
1202,-0.019652,-0.030183,-0.102872
1203,-0.038191,-0.048257,-0.139032
1204,-0.05673,-0.102477,-0.41023
1205,-0.001113,-0.048257,-0.211351
1206,0.017426,0.024037,0.150246
1207,-0.001113,0.04211,0.204486
1208,-0.019652,-0.030183,-0.247511
1209,-0.093809,-0.102477,-0.554869
1210,-0.019652,-0.102477,-0.446389
1211,-0.019652,-0.01211,0.059847
1212,-0.001113,0.024037,0.150246
1213,-0.019652,0.04211,0.276805
1214,0.017426,0.060184,0.349125
1215,-0.019652,0.04211,0.186406
1216,-0.001113,0.078257,0.059847
1217,0.035965,0.04211,0.204486
1218,-0.019652,-0.048257,-0.157112
1219,-0.019652,-0.06633,-0.41023
1220,0.035965,-0.048257,-0.446389
1221,-0.07527,-0.102477,-0.30175
1222,-0.093809,-0.06633,0.168326
1223,0.017426,0.096331,0.783042
1224,0.054504,0.150551,0.493764
1225,0.073044,0.096331,0.168326
1226,0.073044,0.078257,-0.012473
1227,-0.001113,-0.01211,-0.175191
1228,-0.038191,-0.030183,-0.084792
1229,-0.019652,-0.030183,-0.193271
1230,-0.038191,-0.030183,-0.084792
1231,-0.038191,-0.06633,-0.211351
1232,-0.038191,-0.048257,-0.31983
1233,-0.019652,-0.01211,-0.048632
1234,-0.001113,0.060184,0.240646
1235,0.035965,0.04211,0.114086
1236,-0.019652,-0.01211,0.005607
1237,-0.038191,-0.048257,-0.175191
1238,-0.019652,-0.01211,-0.139032
1239,0.035965,0.060184,0.077927
1240,-0.019652,0.096331,0.367205
1241,-0.019652,0.005964,0.186406
1242,-0.001113,0.04211,0.258725
1243,0.017426,0.04211,0.150246
1244,-0.019652,-0.06633,-0.265591
1245,-0.05673,-0.084403,-0.42831
1246,-0.038191,-0.06633,-0.554869
1247,-0.019652,-0.030183,-0.39215
1248,-0.001113,0.005964,0.132166
1249,-0.038191,0.078257,0.548003
1250,0.035965,0.096331,0.548003
1251,0.073044,0.096331,0.385284
1252,0.054504,0.096331,0.222566
1253,-0.019652,-0.01211,0.023687
1254,-0.038191,-0.06633,-0.193271
1255,-0.019652,-0.01211,-0.157112
1256,-0.05673,-0.048257,-0.247511
1257,-0.07527,-0.06633,-0.157112
1258,-0.038191,-0.048257,-0.175191
1259,-0.001113,-0.01211,0.023687
1260,0.035965,0.024037,0.204486
1261,-0.001113,0.04211,0.222566
1262,-0.001113,0.04211,0.077927
1263,-0.019652,0.005964,-0.265591
1264,-0.019652,-0.01211,-0.157112
1265,-0.019652,-0.01211,0.168326
1266,0.017426,0.005964,0.132166
1267,-0.001113,-0.048257,-0.120952
1268,-0.001113,-0.048257,-0.283671
1269,0.054504,0.060184,-0.193271
1270,0.073044,0.096331,0.132166
1271,-0.093809,-0.084403,0.077927
1272,-0.112348,-0.06633,0.041767
1273,-0.019652,0.04211,-0.066712
1274,0.017426,0.04211,-0.193271
1275,0.017426,0.005964,0.005607
1276,-0.019652,0.024037,0.168326
1277,-0.001113,0.005964,-0.120952
1278,0.035965,0.005964,-0.157112
1279,0.054504,0.024037,-0.084792
1280,0.091583,0.060184,0.096007
1281,0.035965,0.060184,0.132166
1282,0.017426,0.04211,0.132166
1283,-0.038191,0.005964,0.367205
1284,-0.07527,-0.084403,-0.120952
1285,-0.112348,-0.102477,-0.175191
1286,-0.038191,-0.048257,-0.120952
1287,0.017426,-0.01211,-0.175191
1288,0.017426,0.024037,-0.102872
1289,-0.001113,0.005964,-0.120952
1290,-0.093809,-0.030183,-0.048632
1291,-0.019652,0.04211,0.222566
1292,0.054504,0.096331,0.385284
1293,0.073044,0.114404,0.312965
1294,0.035965,0.096331,0.312965
1295,-0.001113,0.04211,0.132166
1296,-0.019652,-0.01211,-0.048632
1297,-0.05673,-0.030183,-0.193271
1298,-0.038191,-0.048257,-0.283671
1299,-0.001113,-0.06633,-0.33791
1300,-0.019652,-0.06633,-0.229431
1301,-0.038191,-0.030183,0.349125
1302,-0.001113,0.060184,0.457604
1303,0.035965,0.04211,0.186406
1304,-0.001113,0.005964,-0.120952
1305,-0.001113,-0.01211,-0.42831
1306,-0.001113,-0.06633,-0.536789
1307,-0.019652,-0.030183,-0.39215
1308,0.035965,0.078257,0.403364
1309,0.054504,0.114404,0.674562
1310,-0.019652,0.060184,0.258725
1311,-0.038191,-0.01211,-0.193271
1312,-0.038191,-0.048257,-0.33791
1313,-0.019652,-0.06633,-0.31983
1314,-0.038191,-0.048257,0.077927
1315,-0.05673,-0.030183,0.114086
1316,-0.001113,0.060184,0.276805
1317,-0.001113,0.005964,0.041767
1318,-0.019652,-0.01211,-0.120952
1319,0.017426,-0.01211,-0.229431
1320,0.017426,0.04211,-0.066712
1321,0.054504,0.078257,0.168326
1322,0.035965,0.078257,0.475684
1323,-0.001113,0.024037,0.367205
1324,-0.05673,-0.01211,0.005607
1325,-0.038191,-0.030183,-0.102872
1326,-0.019652,0.024037,-0.120952
1327,0.017426,0.005964,0.005607
1328,0.091583,0.078257,0.041767
1329,0.073044,0.04211,0.023687
1330,0.017426,-0.01211,-0.084792
1331,-0.07527,-0.084403,-0.084792
1332,-0.07527,-0.102477,-0.33791
1333,-0.05673,-0.048257,-0.283671
1334,-0.038191,0.024037,0.059847
1335,0.017426,0.04211,0.222566
1336,-0.001113,-0.01211,-0.084792
1337,-0.038191,-0.084403,-0.500629
1338,-0.038191,-0.102477,-0.500629
1339,-0.05673,-0.048257,-0.175191
1340,-0.05673,-0.030183,0.077927
1341,-0.001113,0.005964,0.367205
1342,0.054504,0.132477,0.728802
1343,0.073044,0.204771,0.656483
1344,0.017426,0.114404,0.349125
1345,-0.019652,0.005964,0.005607
1346,-0.05673,-0.048257,-0.211351
1347,-0.001113,-0.01211,-0.175191
1348,0.035965,0.024037,-0.012473
1349,0.017426,-0.01211,-0.211351
1350,-0.019652,-0.030183,-0.139032
1351,-0.001113,0.060184,0.312965
1352,0.017426,0.078257,0.222566
1353,0.017426,-0.01211,-0.048632
1354,-0.05673,-0.030183,-0.211351
1355,-0.05673,-0.048257,-0.157112
1356,-0.07527,-0.048257,-0.175191
1357,-0.019652,-0.01211,-0.139032
1358,-0.038191,0.024037,0.005607
1359,-0.001113,0.005964,0.258725
1360,-0.001113,0.060184,0.439524
1361,0.091583,0.078257,0.168326
1362,0.054504,0.04211,-0.120952
1363,-0.001113,-0.06633,-0.193271
1364,-0.019652,-0.030183,0.023687
1365,-0.05673,-0.048257,-0.066712
1366,-0.05673,-0.06633,-0.247511
1367,-0.038191,-0.048257,-0.175191
1368,-0.001113,-0.01211,-0.229431
1369,-0.001113,0.005964,-0.175191
1370,-0.038191,-0.030183,-0.193271
1371,-0.001113,0.005964,0.059847
1372,0.035965,0.078257,0.168326
1373,-0.001113,0.024037,0.023687
1374,0.035965,0.04211,0.114086
1375,0.054504,0.024037,0.168326
1376,0.073044,0.04211,0.186406
1377,-0.019652,0.024037,0.059847
1378,-0.05673,-0.030183,0.114086
1379,-0.038191,-0.030183,0.150246
1380,0.035965,0.024037,0.041767
1381,-0.001113,-0.030183,-0.139032
1382,-0.038191,-0.030183,-0.33791
1383,-0.038191,-0.048257,-0.37407
1384,0.035965,0.024037,0.005607
1385,0.091583,0.078257,0.349125
1386,0.054504,0.060184,0.403364
1387,0.035965,0.024037,0.041767
1388,0.035965,0.005964,-0.193271
1389,-0.001113,-0.048257,-0.211351
1390,-0.019652,-0.01211,-0.102872
1391,-0.001113,0.024037,0.059847
1392,-0.05673,-0.01211,-0.157112
1393,-0.05673,-0.048257,-0.139032
1394,-0.05673,-0.01211,0.005607
1395,-0.038191,0.005964,0.204486
1396,0.017426,0.078257,0.403364
1397,0.017426,0.04211,0.204486
1398,-0.001113,0.005964,0.023687
1399,-0.019652,-0.030183,-0.066712
1400,-0.001113,0.04211,0.077927
1401,-0.001113,0.04211,-0.066712
1402,0.035965,0.024037,0.041767
1403,0.017426,-0.01211,-0.012473
1404,-0.019652,-0.030183,-0.247511
1405,-0.001113,0.04211,0.023687
1406,-0.001113,0.005964,0.059847
1407,-0.038191,-0.030183,-0.048632
1408,-0.038191,-0.030183,-0.175191
1409,-0.038191,-0.030183,-0.102872
1410,-0.019652,-0.048257,-0.120952
1411,-0.001113,-0.030183,-0.229431
1412,-0.001113,-0.030183,-0.211351
1413,-0.038191,-0.01211,0.077927
1414,-0.019652,0.005964,0.041767
1415,-0.019652,-0.048257,0.005607
1416,0.017426,-0.01211,0.204486
1417,0.017426,0.096331,0.312965
1418,0.017426,0.114404,0.150246
1419,0.035965,0.060184,0.005607
1420,0.035965,0.060184,0.023687
1421,-0.05673,-0.030183,-0.120952
1422,-0.001113,-0.01211,-0.102872
1423,-0.001113,-0.048257,-0.229431
1424,0.035965,-0.01211,0.077927
1425,0.017426,0.005964,-0.084792
1426,-0.001113,-0.01211,-0.012473
1427,-0.038191,-0.01211,0.005607
1428,-0.05673,-0.030183,0.114086
1429,-0.05673,0.005964,0.258725
1430,-0.019652,0.024037,0.222566
1431,0.035965,0.060184,0.132166
1432,0.054504,0.04211,0.041767
1433,0.035965,0.024037,-0.030552
1434,-0.001113,0.005964,-0.030552
1435,-0.038191,-0.01211,0.041767
1436,-0.019652,-0.01211,0.059847
1437,0.035965,0.04211,0.023687
1438,0.017426,0.024037,-0.066712
1439,-0.019652,-0.030183,-0.084792
1440,-0.019652,-0.048257,-0.211351
1441,-0.038191,-0.06633,-0.42831
1442,-0.05673,-0.06633,-0.31983
1443,-0.038191,-0.048257,0.059847
1444,-0.001113,0.024037,0.349125
1445,-0.001113,0.078257,0.349125
1446,0.017426,0.060184,0.096007
1447,-0.019652,0.005964,-0.012473
1448,-0.05673,-0.030183,0.059847
1449,-0.001113,-0.01211,-0.120952
1450,0.017426,0.024037,-0.139032
1451,0.017426,0.024037,-0.048632
1452,-0.001113,-0.01211,0.132166
1453,-0.093809,-0.102477,-0.120952
1454,-0.019652,-0.01211,0.005607
1455,0.035965,0.024037,-0.120952
1456,0.017426,0.04211,-0.157112
1457,-0.001113,0.005964,-0.157112
1458,-0.019652,-0.01211,0.023687
1459,-0.038191,0.024037,0.150246
1460,-0.001113,0.024037,0.132166
1461,0.017426,0.024037,0.114086
1462,0.017426,0.04211,0.331045
1463,0.054504,0.078257,0.367205
1464,0.017426,0.04211,0.023687
1465,-0.019652,-0.048257,-0.33791
1466,-0.05673,-0.084403,-0.446389
1467,-0.038191,-0.048257,-0.157112
1468,-0.001113,0.005964,-0.012473
1469,0.017426,0.005964,0.059847
1470,-0.001113,0.024037,0.132166
1471,-0.019652,0.005964,0.005607
1472,0.035965,0.04211,0.168326
1473,0.035965,0.024037,-0.048632
1474,0.035965,0.024037,0.059847
1475,0.017426,0.024037,-0.012473
1476,0.054504,0.04211,-0.066712
1477,0.091583,0.024037,-0.229431
1478,0.035965,0.04211,0.041767
1479,0.017426,0.024037,0.132166
1480,-0.019652,-0.030183,-0.120952
1481,0.017426,0.005964,-0.030552
1482,0.035965,0.060184,0.168326
1483,-0.05673,-0.01211,0.132166
1484,-0.112348,-0.030183,0.186406
1485,-0.112348,-0.01211,0.114086
1486,-0.05673,0.024037,0.059847
1487,-0.038191,-0.01211,0.059847
1488,-0.038191,0.005964,0.059847
1489,-0.019652,0.024037,0.041767
1490,-0.038191,0.005964,-0.102872
1491,-0.019652,-0.01211,-0.084792
1492,0.017426,-0.01211,-0.066712
1493,-0.001113,0.024037,0.059847
1494,-0.019652,0.005964,0.204486
1495,-0.05673,0.005964,0.059847
1496,-0.001113,0.04211,0.096007
1497,0.073044,0.04211,0.041767
1498,-0.001113,0.005964,-0.102872
1499,-0.05673,-0.030183,-0.265591
1500,-0.07527,-0.084403,-0.33791
1501,-0.038191,-0.048257,-0.229431
1502,-0.05673,-0.01211,-0.066712
1503,-0.001113,0.060184,0.168326
1504,0.054504,0.060184,0.132166
1505,0.054504,0.04211,0.150246
1506,0.017426,0.005964,0.077927
1507,-0.019652,0.005964,0.096007
1508,-0.05673,-0.01211,0.077927
1509,-0.038191,0.005964,0.132166
1510,-0.019652,0.005964,0.023687
1511,-0.001113,0.005964,0.023687
1512,0.017426,0.024037,-0.030552
1513,0.035965,0.005964,-0.066712
1514,-0.001113,0.005964,-0.139032
1515,-0.019652,-0.030183,-0.247511
1516,-0.001113,-0.01211,-0.175191
1517,0.017426,0.060184,0.132166
1518,0.054504,0.096331,0.385284
1519,0.035965,0.04211,0.204486
1520,-0.05673,-0.048257,-0.157112
1521,-0.038191,-0.01211,0.023687
1522,-0.019652,-0.01211,-0.030552
1523,-0.019652,-0.048257,-0.175191
1524,-0.019652,-0.048257,-0.265591
1525,-0.05673,-0.084403,-0.265591
1526,-0.001113,-0.01211,0.059847
1527,0.054504,0.096331,0.312965
1528,0.035965,0.04211,0.204486
1529,-0.019652,0.024037,-0.120952
1530,-0.038191,-0.06633,-0.37407
1531,-0.001113,-0.030183,-0.283671
1532,-0.019652,-0.048257,-0.265591
1533,-0.019652,-0.048257,-0.066712
1534,-0.001113,-0.01211,0.041767
1535,0.017426,0.060184,0.240646
1536,0.017426,0.096331,0.367205
1537,0.017426,0.060184,0.150246
1538,-0.019652,0.005964,-0.139032
1539,-0.019652,-0.01211,0.005607
1540,-0.001113,0.04211,0.294885
1541,0.073044,0.114404,0.439524
1542,0.017426,0.060184,0.276805
1543,-0.038191,-0.01211,0.005607
1544,-0.038191,-0.048257,-0.157112
1545,-0.001113,0.024037,-0.139032
1546,-0.001113,0.005964,-0.120952
1547,-0.019652,-0.01211,-0.012473
1548,-0.038191,-0.01211,0.059847
1549,-0.001113,-0.030183,-0.139032
1550,-0.001113,0.04211,-0.066712
1551,0.035965,0.078257,0.114086
1552,-0.001113,0.04211,0.150246
1553,-0.038191,-0.030183,0.077927
1554,-0.038191,-0.048257,-0.012473
1555,-0.038191,-0.048257,-0.012473
1556,0.017426,0.005964,0.005607
1557,0.017426,0.005964,0.041767
1558,-0.019652,0.005964,-0.012473
1559,-0.038191,-0.01211,-0.120952
1560,-0.001113,-0.048257,-0.193271
1561,-0.038191,-0.030183,-0.048632
1562,-0.038191,-0.01211,-0.030552
1563,-0.038191,-0.048257,-0.066712
1564,0.017426,0.024037,-0.030552
1565,0.054504,0.078257,-0.030552
1566,0.054504,0.078257,-0.048632
1567,-0.001113,0.024037,0.059847
1568,-0.019652,-0.048257,0.096007
1569,-0.019652,0.024037,0.096007
1570,-0.019652,0.024037,0.114086
1571,0.017426,0.024037,0.150246
1572,-0.019652,0.005964,-0.048632
1573,-0.038191,-0.06633,-0.120952
1574,-0.038191,-0.030183,-0.066712
1575,-0.019652,0.024037,0.150246
1576,0.035965,0.024037,0.132166
1577,-0.038191,0.005964,-0.175191
1578,-0.038191,-0.01211,-0.265591
1579,-0.05673,-0.06633,-0.247511
1580,-0.019652,-0.01211,-0.139032
1581,0.017426,0.04211,0.168326
1582,0.017426,0.078257,0.294885
1583,-0.001113,0.024037,0.150246
1584,-0.001113,-0.030183,0.077927
1585,-0.001113,0.024037,-0.048632
1586,0.035965,0.024037,0.077927
1587,-0.019652,0.005964,0.059847
1588,-0.038191,-0.048257,-0.066712
1589,-0.05673,-0.06633,-0.193271
1590,-0.019652,-0.06633,-0.247511
1591,-0.05673,-0.048257,-0.229431
1592,-0.001113,0.005964,-0.102872
1593,-0.019652,0.024037,0.059847
1594,0.035965,0.060184,0.222566
1595,-0.019652,0.024037,0.114086
1596,-0.019652,0.024037,0.096007
1597,0.054504,0.005964,0.005607
1598,0.035965,0.024037,-0.084792
1599,-0.001113,-0.030183,-0.211351
1600,-0.038191,-0.01211,0.114086
1601,-0.038191,0.005964,0.204486
1602,-0.001113,0.04211,0.240646
1603,0.035965,0.060184,0.240646
1604,0.017426,0.024037,0.150246
1605,-0.038191,-0.030183,-0.048632
1606,-0.05673,-0.030183,-0.139032
1607,-0.001113,-0.030183,-0.120952
1608,-0.038191,-0.030183,-0.102872
1609,-0.019652,-0.01211,-0.048632
1610,-0.019652,0.005964,0.023687
1611,-0.001113,0.024037,0.059847
1612,0.017426,0.005964,-0.030552
1613,-0.001113,0.005964,-0.066712
1614,-0.001113,0.005964,-0.048632
1615,-0.038191,0.005964,0.023687
1616,0.017426,-0.030183,0.059847
1617,0.017426,0.005964,-0.012473
1618,-0.019652,-0.030183,-0.012473
1619,-0.019652,-0.01211,-0.048632
1620,-0.001113,-0.01211,-0.030552
1621,-0.019652,0.04211,-0.030552
1622,-0.001113,0.005964,-0.012473
1623,0.017426,0.024037,0.041767
1624,0.017426,0.005964,0.005607
1625,-0.038191,-0.01211,-0.102872
1626,-0.019652,-0.030183,0.023687
1627,-0.019652,0.005964,0.005607
1628,-0.019652,0.024037,-0.048632
1629,-0.001113,0.005964,-0.048632
1630,-0.001113,-0.01211,0.005607
1631,-0.038191,0.005964,-0.030552
1632,-0.001113,-0.01211,-0.012473
1633,-0.001113,0.005964,0.041767
1634,-0.001113,0.005964,0.023687
1635,-0.001113,0.005964,0.023687
1636,-0.001113,-0.01211,-0.012473
1637,0.017426,-0.01211,-0.030552
1638,-0.001113,-0.01211,-0.012473
1639,-0.001113,0.024037,-0.012473
1640,-0.019652,0.005964,-0.012473
1641,0.017426,0.024037,-0.030552
1642,0.017426,0.024037,0.005607
1643,-0.001113,0.005964,0.023687
1644,-0.001113,0.005964,0.041767
1645,0.035965,0.024037,0.023687
1646,0.054504,0.024037,0.023687
1647,0.035965,0.005964,0.023687
1648,0.017426,-0.01211,0.077927
1649,-0.019652,0.005964,0.077927
1650,-0.019652,-0.01211,-0.012473
1651,-0.05673,-0.01211,-0.030552
1652,-0.019652,-0.01211,-0.012473
1653,0.017426,0.024037,-0.048632
1654,-0.019652,0.024037,-0.048632
1655,-0.038191,0.005964,-0.084792
1656,-0.019652,0.005964,-0.012473
1657,-0.001113,0.024037,0.059847
1658,-0.001113,0.005964,0.023687
1659,-0.001113,0.024037,-0.012473
1660,-0.019652,-0.01211,0.041767
1661,-0.038191,0.024037,0.041767
1662,-0.001113,-0.01211,0.005607
1663,-0.001113,0.005964,-0.030552
1664,-0.019652,0.005964,-0.012473
1665,-0.038191,0.005964,0.023687
1666,-0.038191,0.024037,0.023687
1667,-0.019652,0.005964,0.005607
1668,-0.001113,0.005964,0.041767
1669,0.017426,0.005964,0.041767
1670,0.017426,0.024037,0.059847
1671,0.017426,0.005964,0.005607
1672,-0.001113,0.024037,-0.012473
1673,0.017426,0.024037,-0.030552
1674,0.035965,0.005964,-0.030552
1675,-0.019652,0.024037,0.023687
1676,-0.001113,0.024037,0.023687
1677,-0.001113,-0.01211,0.005607
1678,-0.019652,0.005964,0.023687
1679,-0.019652,-0.01211,0.041767
1680,-0.019652,0.005964,0.005607
1681,-0.019652,-0.01211,0.005607
1682,-0.001113,-0.01211,0.023687
1683,-0.019652,0.005964,0.023687
1684,-0.001113,0.005964,0.005607
1685,-0.019652,0.024037,0.041767
1686,0.017426,0.005964,0.023687
1687,0.017426,-0.01211,-0.012473
1688,-0.001113,0.005964,-0.048632
1689,-0.019652,-0.01211,-0.048632
1690,-0.001113,-0.01211,-0.012473
1691,-0.001113,0.005964,0.005607
1692,-0.019652,-0.01211,0.005607
1693,-0.019652,0.005964,0.023687
1694,-0.038191,0.005964,0.005607
1695,-0.001113,-0.01211,0.023687
1696,-0.001113,0.024037,0.059847
1697,-0.019652,0.005964,0.041767
1698,-0.001113,-0.01211,0.005607
1699,0.017426,0.024037,0.005607
1700,-0.019652,0.005964,-0.012473
1701,0.017426,0.005964,-0.030552
1702,-0.001113,-0.01211,-0.012473
1703,-0.001113,0.005964,-0.030552
1704,-0.001113,0.005964,-0.012473
1705,0.017426,0.005964,-0.012473
1706,-0.001113,0.024037,-0.030552
1707,0.035965,0.005964,-0.030552
1708,0.035965,-0.01211,0.023687
1709,0.054504,0.024037,0.041767
1710,0.035965,0.005964,0.005607
1711,0.054504,0.005964,0.041767
1712,-0.001113,0.005964,0.059847
1713,-0.038191,0.005964,0.005607
1714,-0.019652,0.005964,0.005607
1715,-0.001113,0.024037,-0.012473
1716,-0.093809,-0.01211,0.005607
1717,-0.038191,0.005964,-0.012473
1718,-0.001113,0.005964,-0.030552
1719,-0.038191,-0.01211,-0.012473
1720,-0.038191,-0.01211,0.023687
1721,-0.019652,0.005964,0.005607
1722,0.017426,0.04211,0.005607
1723,0.017426,0.024037,0.023687
1724,-0.001113,0.005964,0.023687
1725,-0.001113,0.005964,0.041767
1726,0.017426,0.005964,0.023687
1727,-0.019652,0.005964,0.023687
1728,-0.001113,0.005964,0.005607
1729,0.017426,0.005964,0.005607
1730,-0.001113,0.005964,0.005607
1731,-0.019652,0.024037,0.005607
1732,-0.001113,0.005964,0.005607
1733,0.017426,0.005964,-0.012473
1734,-0.001113,0.005964,-0.012473
1735,-0.001113,0.005964,-0.012473
1736,-0.001113,0.005964,-0.030552
1737,-0.001113,0.005964,-0.012473
1738,-0.001113,0.005964,0.005607
1739,-0.001113,0.024037,0.005607
1740,0.017426,0.005964,0.005607
1741,-0.001113,0.005964,0.005607
1742,-0.001113,0.005964,0.005607
1743,-0.019652,0.005964,0.023687
1744,-0.019652,0.005964,0.023687
1745,-0.001113,0.005964,0.041767
1746,-0.019652,0.005964,0.005607
1747,-0.019652,0.024037,0.005607
1748,-0.038191,0.005964,0.023687
1749,0.017426,0.005964,0.005607
1750,-0.001113,0.005964,-0.012473
1751,0.017426,0.024037,0.005607
1752,-0.019652,0.005964,-0.012473
1753,-0.019652,0.024037,0.005607
1754,-0.019652,0.005964,-0.012473
1755,-0.001113,0.024037,-0.012473
1756,-0.001113,0.024037,0.023687
1757,-0.001113,0.024037,0.023687
1758,0.017426,0.005964,0.005607
1759,0.017426,-0.01211,0.023687
1760,-0.001113,0.005964,0.041767
1761,-0.019652,-0.01211,0.041767
1762,-0.019652,0.005964,0.005607
1763,-0.001113,0.024037,0.005607
1764,-0.001113,0.005964,0.005607
1765,-0.001113,0.005964,-0.012473
1766,-0.001113,0.024037,-0.012473
1767,0.017426,-0.01211,-0.030552
1768,0.017426,0.005964,-0.048632
1769,0.017426,-0.01211,-0.048632
1770,0.017426,0.005964,-0.012473
1771,-0.001113,0.005964,-0.012473
1772,-0.001113,0.024037,-0.012473
1773,-0.019652,0.005964,0.005607
1774,-0.001113,0.005964,0.023687
1775,-0.038191,0.005964,0.059847
1776,-0.038191,-0.01211,0.041767
1777,-0.038191,-0.01211,0.005607
1778,-0.038191,0.005964,0.023687
1779,-0.019652,0.005964,-0.012473
1780,-0.001113,0.005964,0.005607
1781,-0.001113,-0.01211,0.023687
1782,-0.019652,0.005964,-0.012473
1783,-0.019652,0.024037,-0.012473
1784,-0.038191,-0.030183,-0.030552
1785,-0.019652,0.005964,-0.012473
1786,0.017426,0.005964,-0.012473
1787,0.017426,0.024037,0.005607
1788,0.017426,0.04211,0.005607
1789,0.017426,0.024037,-0.012473
1790,0.017426,0.005964,0.023687
1791,-0.001113,0.024037,0.023687
1792,0.035965,0.005964,0.041767
1793,-0.001113,0.005964,0.059847
1794,-0.001113,0.024037,0.041767
1795,-0.001113,0.005964,0.023687
1796,0.017426,0.005964,0.023687
1797,-0.001113,0.005964,0.005607
1798,-0.019652,0.005964,-0.012473
1799,-0.001113,0.005964,-0.012473
1800,-0.001113,0.005964,-0.012473
1801,-0.019652,0.04211,-0.030552
1802,0.017426,0.005964,-0.012473
1803,0.017426,0.005964,-0.048632
1804,0.035965,0.024037,-0.012473
1805,0.054504,0.024037,0.005607
1806,0.035965,0.024037,0.005607
1807,0.054504,0.005964,0.005607
1808,0.035965,0.005964,0.023687
1809,0.035965,0.005964,0.023687
1810,-0.001113,0.005964,0.041767
1811,-0.019652,-0.01211,0.023687
1812,-0.038191,0.005964,0.005607
1813,-0.05673,0.024037,0.005607
1814,-0.093809,0.005964,0.005607
1815,-0.07527,0.005964,-0.012473
1816,-0.05673,0.005964,-0.030552
1817,-0.001113,-0.01211,-0.012473
1818,-0.038191,0.005964,-0.030552
1819,-0.019652,-0.01211,-0.030552
1820,-0.001113,-0.01211,-0.030552
1821,-0.019652,-0.01211,-0.012473
1822,-0.019652,0.005964,0.005607
1823,-0.001113,0.005964,0.023687
1824,-0.001113,0.024037,0.041767
1825,-0.001113,0.024037,0.041767
1826,-0.001113,0.005964,0.041767
1827,-0.038191,0.005964,0.041767
1828,-0.019652,0.005964,0.023687
1829,-0.019652,0.005964,0.005607
1830,-0.019652,0.024037,0.005607
1831,-0.001113,0.024037,0.005607
1832,-0.001113,0.024037,0.005607
1833,-0.001113,0.024037,-0.012473
1834,0.017426,0.024037,-0.012473
1835,-0.019652,0.024037,-0.012473
1836,0.017426,0.005964,-0.030552
1837,-0.001113,0.005964,-0.012473
1838,0.017426,0.005964,0.005607
1839,-0.001113,0.024037,-0.012473
1840,-0.001113,0.024037,0.023687
1841,0.017426,0.005964,0.023687
1842,0.017426,0.024037,0.023687
1843,0.017426,-0.01211,0.023687
1844,-0.001113,-0.01211,0.023687
1845,-0.001113,0.005964,0.005607
1846,-0.001113,0.024037,-0.012473
1847,0.017426,0.04211,-0.012473
1848,-0.019652,0.005964,-0.030552
1849,-0.001113,0.005964,-0.030552
1850,-0.019652,0.005964,-0.012473
1851,-0.001113,0.005964,-0.030552
1852,-0.001113,0.005964,-0.012473
1853,0.017426,0.024037,-0.012473
1854,-0.001113,0.005964,0.005607
1855,0.017426,0.005964,-0.012473
1856,-0.001113,0.024037,0.005607
1857,-0.019652,0.005964,0.005607
1858,-0.001113,0.005964,0.023687
1859,-0.019652,0.005964,0.023687
1860,-0.001113,-0.01211,0.023687
1861,-0.001113,0.005964,0.023687
1862,-0.019652,0.024037,0.023687
1863,-0.019652,0.005964,0.005607
1864,-0.019652,0.024037,-0.012473
1865,-0.001113,0.005964,-0.012473
1866,0.017426,-0.01211,-0.030552
1867,-0.019652,0.005964,-0.012473
1868,-0.019652,0.005964,-0.012473
1869,-0.001113,0.005964,-0.030552
1870,-0.001113,0.005964,-0.012473
1871,-0.001113,0.005964,-0.012473
1872,-0.001113,0.024037,0.005607
1873,-0.001113,0.024037,0.005607
1874,-0.001113,0.024037,0.023687
1875,-0.019652,0.005964,0.023687
1876,-0.001113,0.005964,0.023687
1877,-0.001113,0.005964,0.023687
1878,-0.001113,0.005964,0.023687
1879,-0.001113,-0.01211,0.005607
1880,-0.038191,0.005964,0.005607
1881,0.017426,0.005964,-0.012473
1882,0.017426,0.005964,-0.030552
1883,-0.001113,0.005964,-0.030552
1884,-0.019652,0.005964,-0.012473
1885,-0.019652,0.024037,-0.012473
1886,0.017426,0.024037,-0.030552
1887,-0.001113,-0.01211,0.005607
1888,-0.001113,0.005964,0.023687
1889,-0.019652,0.005964,0.005607
1890,-0.001113,0.005964,0.023687
1891,-0.001113,0.024037,0.005607
1892,-0.019652,0.024037,0.023687
1893,-0.001113,0.005964,0.023687
1894,0.017426,-0.01211,0.023687
1895,-0.019652,0.005964,-0.012473
1896,-0.019652,0.005964,0.005607
1897,-0.019652,0.005964,-0.012473
1898,-0.019652,-0.01211,-0.012473
1899,-0.001113,0.024037,-0.012473
1900,0.017426,0.024037,-0.030552
1901,-0.001113,0.005964,-0.030552
1902,0.017426,0.005964,-0.048632
1903,-0.001113,0.005964,-0.012473
1904,-0.001113,0.024037,0.005607
1905,-0.001113,0.024037,-0.012473
1906,0.017426,0.024037,0.005607
1907,-0.038191,0.04211,0.023687
1908,-0.019652,-0.01211,0.023687
1909,-0.038191,0.005964,0.041767
1910,-0.019652,0.005964,0.041767
1911,-0.038191,-0.01211,-0.012473
1912,-0.05673,0.005964,0.005607
1913,-0.019652,-0.01211,-0.012473
1914,0.054504,0.024037,0.005607
1915,0.035965,0.005964,0.005607
1916,0.054504,0.005964,0.005607
1917,-0.001113,0.005964,-0.012473
1918,-0.019652,0.005964,-0.030552
1919,-0.001113,0.005964,-0.048632
1920,-0.001113,0.005964,-0.012473
1921,-0.019652,0.005964,-0.012473
1922,-0.001113,0.005964,0.005607
1923,-0.019652,0.005964,0.023687
1924,-0.019652,0.005964,0.005607
1925,-0.001113,0.005964,0.023687
1926,-0.001113,0.005964,0.041767
1927,-0.019652,0.005964,-0.012473
1928,-0.001113,0.005964,-0.012473
1929,-0.001113,0.005964,-0.012473
1930,-0.001113,0.005964,-0.012473
1931,-0.001113,0.005964,-0.012473
1932,-0.019652,0.024037,-0.030552
1933,-0.001113,0.005964,-0.012473
1934,-0.019652,-0.030183,-0.012473
1935,-0.001113,0.005964,-0.012473
1936,-0.001113,0.005964,-0.012473
1937,-0.001113,0.024037,0.005607
1938,-0.001113,0.005964,0.023687
1939,0.017426,-0.01211,0.023687
1940,-0.001113,0.024037,0.023687
1941,-0.001113,0.005964,0.023687
1942,-0.001113,0.005964,0.023687
1943,-0.019652,0.005964,0.023687
1944,-0.001113,-0.01211,-0.012473
1945,-0.019652,0.005964,0.005607
1946,-0.001113,0.005964,-0.030552
1947,-0.001113,-0.01211,-0.012473
1948,-0.001113,0.005964,-0.012473
1949,-0.019652,0.005964,-0.030552
1950,-0.001113,0.005964,-0.012473
1951,-0.001113,-0.01211,-0.012473
1952,-0.001113,0.005964,0.005607
1953,-0.001113,0.005964,0.005607
1954,-0.001113,0.005964,0.005607
1955,-0.019652,-0.01211,0.023687
1956,-0.038191,0.005964,0.023687
1957,-0.001113,0.005964,0.041767
1958,-0.001113,0.005964,0.023687
1959,0.017426,-0.01211,0.005607
1960,-0.038191,-0.01211,-0.012473
1961,-0.001113,0.005964,-0.012473
1962,-0.019652,-0.01211,-0.012473
1963,-0.001113,0.005964,-0.012473
1964,-0.001113,0.005964,-0.030552
1965,-0.001113,-0.01211,-0.030552
1966,-0.019652,0.005964,-0.012473
1967,-0.001113,0.024037,-0.012473
1968,-0.019652,-0.01211,-0.012473
1969,-0.001113,-0.01211,0.005607
1970,-0.001113,0.005964,0.005607
1971,0.017426,0.005964,0.005607
1972,-0.001113,0.024037,0.005607
1973,-0.001113,0.005964,0.023687
1974,-0.019652,-0.01211,0.023687
1975,-0.001113,-0.01211,0.023687
1976,-0.001113,0.005964,0.005607
1977,-0.001113,-0.01211,0.005607
1978,0.017426,0.005964,-0.012473
1979,-0.019652,0.005964,-0.012473
1980,-0.019652,0.005964,-0.012473
1981,-0.001113,0.024037,-0.030552
1982,-0.001113,0.024037,-0.030552
1983,-0.019652,0.005964,-0.030552
1984,-0.001113,-0.01211,0.005607
1985,-0.001113,0.005964,0.005607
1986,-0.001113,0.005964,0.005607
1987,-0.019652,-0.01211,0.005607
1988,-0.001113,0.005964,0.023687
1989,-0.001113,0.005964,0.023687
1990,-0.001113,-0.01211,0.041767
1991,-0.019652,0.005964,0.023687
1992,-0.001113,0.005964,0.005607
1993,-0.019652,0.024037,0.005607
1994,0.017426,-0.01211,0.005607
1995,-0.001113,0.024037,-0.012473
1996,-0.038191,0.005964,-0.012473
1997,-0.019652,0.005964,-0.030552
1998,-0.001113,-0.01211,-0.012473
1999,-0.001113,0.005964,-0.030552
2000,-0.019652,0.005964,-0.048632
2001,-0.001113,0.005964,-0.012473
2002,-0.019652,0.005964,0.005607
2003,-0.001113,0.005964,0.023687
2004,-0.001113,0.024037,0.005607
2005,-0.001113,0.005964,-0.012473
2006,-0.001113,-0.01211,0.005607
2007,-0.001113,0.005964,0.023687
2008,-0.001113,0.005964,0.023687
2009,-0.001113,0.005964,0.005607
2010,0.017426,0.005964,0.005607
2011,-0.001113,0.005964,-0.012473
2012,-0.001113,-0.01211,0.005607
2013,-0.038191,0.005964,-0.012473
2014,-0.001113,0.005964,-0.030552
2015,-0.001113,0.005964,-0.030552
2016,-0.001113,0.005964,-0.012473
2017,-0.019652,0.005964,-0.030552
2018,-0.001113,0.024037,-0.012473
2019,-0.001113,0.024037,0.005607
2020,-0.001113,-0.01211,0.023687
2021,-0.001113,0.005964,0.041767
2022,-0.001113,0.024037,0.023687
2023,-0.001113,0.005964,0.005607
2024,-0.019652,0.024037,0.041767
2025,-0.001113,0.005964,0.023687
2026,0.017426,0.005964,0.005607
2027,-0.019652,0.04211,-0.012473
2028,-0.019652,0.005964,-0.012473
2029,-0.001113,0.005964,-0.012473
2030,-0.019652,-0.01211,-0.012473
2031,0.017426,0.005964,-0.012473
2032,-0.019652,-0.01211,-0.012473
2033,-0.001113,0.005964,-0.030552
2034,-0.001113,0.024037,-0.012473
2035,0.017426,-0.01211,0.005607
2036,-0.001113,0.005964,-0.012473
2037,-0.001113,-0.01211,0.005607
2038,-0.019652,0.005964,0.005607
2039,-0.001113,0.005964,0.023687
2040,-0.001113,0.005964,0.041767
2041,-0.001113,0.024037,0.005607
2042,0.017426,0.005964,0.005607
2043,-0.001113,0.005964,-0.012473
2044,-0.001113,0.024037,0.005607
2045,-0.001113,0.024037,0.005607
2046,-0.001113,0.005964,-0.012473
2047,-0.019652,0.005964,-0.012473
2048,-0.001113,0.005964,-0.012473
2049,-0.001113,-0.01211,-0.030552
2050,-0.001113,0.024037,-0.030552
2051,-0.001113,-0.01211,-0.012473
2052,-0.001113,0.005964,0.005607
2053,-0.001113,-0.01211,0.005607
2054,-0.019652,0.005964,0.005607
2055,-0.019652,-0.01211,0.005607
2056,-0.019652,0.005964,0.023687
2057,-0.019652,0.024037,0.023687
2058,-0.019652,0.005964,0.005607
2059,-0.019652,0.005964,0.005607
2060,-0.001113,-0.01211,-0.012473
2061,-0.019652,0.005964,-0.012473
2062,-0.001113,0.005964,0.005607
2063,-0.001113,0.024037,0.005607
2064,0.017426,0.005964,0.005607
2065,-0.019652,-0.01211,-0.012473
2066,-0.001113,0.005964,-0.030552
2067,-0.001113,0.005964,-0.048632
2068,-0.001113,-0.01211,-0.030552
2069,-0.001113,0.005964,-0.030552
2070,-0.001113,0.005964,0.005607
2071,-0.001113,0.024037,0.005607
2072,-0.001113,0.005964,0.005607
2073,0.017426,0.005964,0.005607
2074,-0.019652,0.005964,0.023687
2075,-0.001113,0.005964,0.023687
2076,-0.001113,0.024037,0.041767
2077,-0.001113,0.024037,0.005607
2078,-0.019652,0.005964,-0.012473
2079,-0.019652,-0.01211,0.005607
2080,-0.001113,-0.01211,-0.012473
2081,-0.001113,0.005964,0.005607
2082,-0.001113,0.024037,-0.012473
2083,-0.001113,-0.030183,-0.012473
2084,-0.001113,-0.01211,-0.012473
2085,-0.019652,-0.01211,-0.012473
2086,-0.001113,0.005964,0.005607
2087,-0.019652,-0.01211,0.005607
2088,-0.001113,0.024037,0.005607
2089,-0.001113,-0.01211,0.005607
2090,-0.001113,0.005964,0.005607
2091,-0.019652,-0.01211,0.023687
2092,0.017426,0.005964,0.023687
2093,-0.001113,0.024037,0.041767
2094,-0.001113,0.005964,0.005607
2095,-0.001113,0.024037,0.005607
2096,-0.019652,0.024037,0.005607
2097,-0.001113,-0.01211,-0.012473
2098,-0.019652,0.024037,-0.012473
2099,-0.019652,-0.01211,-0.012473
2100,-0.019652,0.024037,-0.030552
2101,-0.019652,0.005964,-0.030552
2102,-0.001113,0.024037,-0.012473
2103,-0.019652,-0.01211,0.077927
2104,-0.019652,0.024037,0.023687
2105,-0.001113,-0.01211,0.005607
2106,-0.019652,0.005964,0.023687
2107,-0.001113,0.005964,0.041767
2108,-0.001113,-0.01211,0.023687
2109,-0.001113,0.005964,0.077927
2110,-0.001113,0.005964,0.005607
2111,-0.019652,0.005964,0.005607
2112,-0.001113,0.005964,0.023687
2113,-0.019652,-0.01211,0.005607
2114,-0.001113,0.005964,-0.012473
2115,-0.001113,0.005964,0.005607
2116,-0.019652,0.005964,-0.012473
2117,0.017426,0.005964,-0.030552
2118,-0.019652,0.024037,-0.030552
2119,-0.001113,0.024037,-0.030552
2120,-0.001113,0.005964,0.005607
2121,-0.019652,0.005964,-0.012473
2122,-0.001113,0.005964,0.005607
2123,-0.001113,0.005964,0.005607
2124,-0.001113,0.024037,0.023687
2125,-0.019652,0.005964,0.023687
2126,-0.001113,0.024037,0.041767
2127,-0.019652,-0.01211,0.005607
2128,-0.019652,0.005964,-0.012473
2129,-0.019652,0.024037,0.005607
2130,-0.001113,-0.01211,0.005607
2131,-0.019652,0.005964,0.005607
2132,-0.019652,-0.01211,-0.012473
2133,-0.019652,-0.01211,-0.012473
2134,-0.001113,0.024037,-0.030552
2135,-0.001113,0.005964,-0.012473
2136,-0.001113,0.005964,0.005607
2137,-0.038191,0.005964,-0.012473
2138,-0.001113,0.024037,0.005607
2139,-0.001113,0.024037,0.023687
2140,0.017426,-0.01211,0.023687
2141,-0.001113,0.005964,0.023687
2142,-0.001113,0.005964,0.023687
2143,-0.001113,-0.01211,0.023687
2144,0.017426,0.024037,0.005607
2145,0.017426,0.005964,0.005607
2146,-0.001113,0.005964,0.005607
2147,-0.038191,0.005964,0.005607
2148,-0.019652,0.005964,-0.012473
2149,0.017426,0.005964,-0.030552
2150,0.017426,0.005964,-0.012473
2151,0.017426,0.005964,-0.012473
2152,-0.001113,0.024037,0.005607
2153,-0.001113,0.005964,0.005607
2154,-0.019652,0.024037,0.005607
2155,-0.001113,0.005964,0.023687
2156,-0.038191,0.005964,0.023687
2157,0.017426,-0.01211,0.041767
2158,-0.001113,0.005964,0.005607
2159,-0.038191,-0.01211,0.023687
2160,-0.001113,0.005964,0.023687
2161,-0.019652,0.005964,0.005607
2162,0.017426,0.005964,0.005607
2163,-0.001113,0.005964,-0.012473
2164,0.017426,0.005964,-0.012473
2165,-0.001113,-0.01211,0.077927
2166,-0.001113,0.005964,-0.012473
2167,-0.001113,-0.01211,-0.012473
2168,-0.001113,0.005964,-0.030552
2169,-0.019652,0.024037,0.005607
2170,-0.001113,0.005964,0.005607
2171,-0.019652,0.005964,0.005607
2172,-0.019652,0.005964,0.005607
2173,-0.001113,0.024037,0.041767
2174,0.017426,0.005964,0.005607
2175,-0.001113,0.005964,0.023687
2176,-0.001113,0.005964,0.041767
2177,-0.001113,-0.01211,0.023687
2178,-0.001113,0.005964,0.005607
2179,-0.001113,0.005964,-0.030552
2180,-0.001113,-0.01211,-0.030552
2181,-0.001113,-0.01211,-0.030552
2182,-0.019652,-0.01211,-0.030552
2183,-0.001113,-0.01211,-0.012473
2184,0.017426,0.005964,-0.012473
2185,-0.001113,0.024037,-0.030552
2186,0.017426,0.024037,0.005607
2187,-0.001113,0.005964,0.005607
2188,-0.038191,0.005964,0.023687
2189,-0.001113,0.005964,0.005607
2190,-0.001113,0.024037,0.023687
2191,0.017426,-0.01211,0.041767
2192,-0.001113,0.024037,0.023687
2193,-0.001113,0.005964,0.005607
2194,-0.001113,0.005964,0.023687
2195,-0.019652,0.005964,0.005607
2196,-0.019652,0.005964,0.005607
2197,-0.019652,0.005964,-0.030552
2198,-0.001113,0.005964,-0.012473
2199,-0.001113,-0.01211,-0.012473
2200,-0.019652,0.005964,-0.030552
2201,-0.001113,-0.01211,-0.012473
2202,0.017426,0.005964,0.005607
2203,-0.001113,0.005964,0.005607
2204,-0.001113,0.024037,0.005607
2205,-0.019652,0.005964,0.023687
2206,-0.001113,0.005964,0.005607
2207,-0.001113,-0.01211,0.041767
2208,-0.001113,0.005964,0.041767
2209,-0.001113,0.005964,0.023687
2210,-0.001113,0.005964,-0.012473
2211,-0.001113,0.005964,0.005607
2212,-0.019652,0.005964,-0.012473
2213,-0.001113,0.005964,-0.030552
2214,-0.001113,-0.01211,-0.012473
2215,-0.019652,0.024037,-0.012473
2216,-0.019652,0.005964,-0.012473
2217,-0.019652,0.005964,-0.012473
2218,0.035965,0.005964,0.005607
2219,-0.001113,-0.01211,0.005607
2220,-0.019652,0.024037,0.023687
2221,-0.001113,0.024037,0.023687
2222,-0.001113,0.005964,0.041767
2223,-0.001113,0.005964,0.023687
2224,-0.001113,0.005964,0.023687
2225,-0.019652,0.005964,0.023687
2226,-0.019652,0.005964,0.023687
2227,-0.001113,0.005964,-0.012473
2228,0.017426,-0.01211,-0.012473
2229,-0.001113,0.024037,-0.012473
2230,0.017426,0.005964,-0.030552
2231,-0.001113,0.005964,-0.012473
2232,0.017426,0.005964,-0.012473
2233,-0.001113,-0.01211,-0.012473
2234,-0.001113,-0.01211,0.005607
2235,-0.019652,0.005964,0.005607
2236,-0.001113,-0.01211,0.005607
2237,-0.001113,0.024037,0.023687
2238,-0.001113,0.005964,0.005607
2239,-0.019652,-0.01211,0.023687
2240,-0.019652,0.005964,0.041767
2241,-0.019652,0.024037,0.023687
2242,-0.001113,0.005964,0.005607
2243,-0.001113,0.005964,0.005607
2244,-0.001113,0.005964,0.005607
2245,0.017426,-0.01211,-0.012473
2246,-0.019652,0.005964,-0.012473
2247,-0.001113,0.005964,-0.012473
2248,-0.001113,0.005964,0.005607
2249,0.017426,0.005964,-0.012473
2250,-0.019652,0.005964,-0.012473
2251,-0.001113,0.005964,-0.012473
2252,-0.019652,0.005964,0.005607
2253,0.017426,0.005964,-0.012473
2254,-0.001113,0.005964,0.023687
2255,-0.001113,0.024037,0.023687
2256,-0.001113,0.005964,0.041767
2257,0.017426,0.005964,0.041767
2258,-0.001113,0.005964,0.023687
2259,0.017426,-0.01211,-0.012473
2260,-0.001113,0.024037,-0.012473
2261,-0.019652,0.024037,-0.012473
2262,-0.001113,0.005964,-0.012473
2263,0.017426,0.005964,-0.030552
2264,0.017426,0.024037,-0.030552
2265,-0.001113,-0.01211,-0.030552
2266,-0.001113,-0.01211,0.005607
2267,-0.019652,0.005964,0.005607
2268,-0.001113,0.005964,0.023687
2269,-0.019652,0.024037,0.005607
2270,-0.019652,0.005964,0.041767
2271,-0.019652,0.005964,0.023687
2272,-0.001113,0.024037,0.041767
2273,-0.001113,0.005964,0.023687
2274,-0.001113,0.005964,0.005607
2275,-0.001113,-0.01211,0.005607
2276,-0.001113,0.005964,0.005607
2277,-0.001113,0.005964,-0.012473
2278,-0.001113,0.024037,-0.012473
2279,-0.001113,0.005964,-0.030552
2280,-0.001113,0.005964,-0.030552
2281,-0.001113,-0.01211,-0.030552
2282,-0.019652,0.005964,-0.012473
2283,-0.001113,-0.01211,0.005607
2284,-0.038191,0.005964,0.023687
2285,-0.001113,0.005964,0.077927
2286,-0.001113,0.005964,0.005607
2287,0.017426,0.005964,0.023687
2288,-0.019652,0.005964,0.041767
2289,-0.001113,0.005964,0.077927
2290,-0.001113,0.024037,0.005607
2291,-0.001113,-0.01211,0.005607
2292,-0.001113,-0.01211,-0.012473
2293,-0.001113,-0.01211,-0.012473
2294,-0.001113,0.005964,-0.012473
2295,-0.019652,0.024037,-0.030552
2296,-0.001113,0.024037,-0.012473
2297,0.017426,0.005964,-0.030552
2298,-0.019652,0.005964,-0.012473
2299,-0.001113,0.005964,-0.012473
2300,-0.038191,0.024037,0.005607
2301,-0.001113,0.005964,0.023687
2302,-0.019652,0.005964,0.041767
2303,-0.019652,-0.01211,0.023687
2304,0.017426,-0.01211,0.041767
2305,-0.019652,0.005964,0.023687
2306,-0.001113,0.024037,0.023687
2307,-0.001113,-0.01211,-0.012473
2308,-0.001113,0.005964,0.005607
2309,-0.001113,0.005964,0.023687
2310,-0.001113,0.005964,-0.012473
2311,-0.001113,0.005964,-0.012473
2312,-0.001113,-0.01211,-0.012473
2313,-0.001113,0.005964,-0.030552
2314,-0.001113,0.005964,-0.030552
2315,-0.001113,-0.01211,0.005607
2316,-0.019652,0.005964,0.005607
2317,0.017426,-0.01211,0.005607
2318,-0.019652,0.005964,0.005607
2319,-0.019652,0.005964,0.041767
2320,-0.019652,-0.01211,0.023687
2321,-0.001113,0.005964,0.023687
2322,-0.001113,0.005964,0.023687
2323,-0.001113,-0.01211,0.005607
2324,-0.001113,0.005964,0.005607
2325,-0.001113,-0.01211,0.005607
2326,-0.001113,0.005964,0.005607
2327,-0.001113,0.024037,-0.030552
2328,-0.001113,-0.01211,-0.030552
2329,-0.001113,0.024037,-0.030552
2330,-0.001113,0.005964,-0.012473
2331,-0.001113,0.005964,-0.012473
2332,-0.001113,-0.01211,0.005607
2333,-0.001113,0.005964,0.005607
2334,-0.019652,-0.01211,0.005607
2335,-0.019652,0.005964,0.005607
2336,0.017426,0.005964,0.023687
2337,-0.001113,0.005964,0.023687
2338,0.035965,-0.01211,0.041767
2339,-0.001113,0.005964,0.023687
2340,0.017426,0.005964,0.023687
2341,-0.019652,0.005964,0.005607
2342,-0.001113,-0.01211,-0.012473
2343,-0.019652,0.005964,0.005607
2344,-0.001113,0.005964,-0.012473
2345,-0.001113,-0.01211,-0.030552
2346,-0.001113,0.005964,-0.012473
2347,-0.019652,0.024037,0.005607
2348,-0.019652,0.005964,0.023687
2349,-0.038191,0.005964,0.005607
2350,0.017426,0.005964,0.005607
2351,-0.001113,0.005964,0.023687
2352,-0.001113,0.005964,0.023687
2353,-0.001113,0.005964,0.023687
2354,-0.001113,0.005964,0.023687
2355,0.017426,0.024037,0.005607
2356,-0.001113,-0.01211,0.023687
2357,0.017426,0.005964,-0.012473
2358,-0.019652,0.005964,-0.030552
2359,-0.001113,0.024037,-0.012473
2360,-0.019652,0.024037,-0.012473
2361,-0.001113,0.005964,-0.030552
2362,0.017426,0.024037,-0.048632
2363,0.035965,0.005964,-0.030552
2364,-0.019652,0.005964,-0.012473
2365,-0.019652,0.005964,0.005607
2366,-0.001113,0.005964,0.023687
2367,-0.001113,0.005964,0.023687
2368,-0.038191,0.005964,0.005607
2369,-0.001113,0.005964,0.023687
2370,-0.019652,0.005964,0.023687
2371,-0.001113,0.024037,0.005607
2372,0.017426,0.005964,0.005607
2373,-0.001113,0.005964,0.005607
2374,-0.001113,0.005964,0.005607
2375,-0.019652,0.005964,-0.012473
2376,-0.001113,0.005964,0.005607
2377,-0.001113,0.024037,-0.012473
2378,-0.001113,0.005964,-0.030552
2379,-0.001113,0.005964,0.005607
2380,-0.001113,0.005964,0.005607
2381,-0.019652,0.005964,0.005607
2382,-0.019652,-0.01211,0.023687
2383,-0.038191,0.005964,0.005607
2384,-0.019652,0.005964,0.023687
2385,0.017426,0.005964,0.023687
2386,0.017426,0.005964,0.023687
2387,-0.001113,-0.01211,0.023687
2388,-0.019652,-0.01211,0.023687
2389,-0.001113,-0.01211,0.005607
2390,0.017426,0.005964,0.005607
2391,-0.001113,0.005964,-0.012473
2392,-0.019652,0.005964,-0.012473
2393,-0.001113,0.005964,-0.012473
2394,-0.038191,0.005964,-0.030552
2395,0.017426,0.005964,-0.030552
2396,-0.019652,-0.01211,-0.012473
2397,-0.019652,0.005964,-0.012473
2398,-0.001113,0.005964,0.005607
2399,-0.019652,0.024037,0.005607
2400,-0.001113,-0.01211,0.005607
2401,-0.001113,0.024037,0.005607
2402,-0.001113,0.005964,0.023687
2403,-0.019652,0.005964,0.041767
2404,-0.001113,0.024037,0.023687
2405,-0.019652,0.024037,0.023687
2406,-0.001113,-0.01211,0.005607
2407,-0.001113,0.005964,-0.012473
2408,-0.001113,0.005964,-0.030552
2409,-0.001113,0.005964,-0.012473
2410,0.017426,0.005964,-0.030552
2411,-0.001113,0.005964,-0.030552
2412,0.017426,0.024037,-0.012473
2413,-0.019652,0.005964,0.023687
2414,-0.019652,-0.01211,0.005607
2415,-0.001113,0.005964,0.005607
2416,0.017426,0.024037,0.005607
2417,-0.019652,0.005964,0.005607
2418,-0.001113,-0.01211,0.077927
2419,-0.001113,-0.01211,0.041767
2420,-0.001113,0.024037,0.023687
2421,0.017426,0.005964,0.005607
2422,-0.001113,-0.01211,0.023687
2423,-0.001113,-0.01211,0.005607
2424,-0.019652,0.005964,-0.030552
2425,-0.001113,0.005964,-0.030552
2426,-0.001113,0.005964,-0.030552
2427,-0.019652,-0.01211,-0.030552
2428,-0.019652,0.024037,-0.012473
2429,-0.019652,0.005964,-0.012473
2430,-0.038191,0.005964,0.077927
2431,0.017426,0.005964,0.005607
2432,-0.001113,-0.01211,0.023687
2433,-0.001113,0.005964,0.023687
2434,-0.001113,0.005964,0.023687
2435,0.017426,0.024037,0.023687
2436,-0.019652,0.005964,0.077927
2437,0.017426,0.005964,0.023687
2438,-0.019652,0.005964,0.023687
2439,-0.019652,0.005964,0.005607
2440,0.017426,-0.01211,-0.012473
2441,-0.001113,0.005964,0.005607
2442,-0.019652,-0.01211,-0.012473
2443,-0.001113,0.005964,-0.012473
2444,-0.001113,0.024037,-0.030552
2445,-0.019652,0.024037,-0.012473
2446,-0.001113,0.005964,-0.012473
2447,-0.019652,0.005964,-0.012473
2448,-0.001113,0.005964,-0.012473
2449,-0.019652,0.024037,0.005607
2450,-0.001113,0.024037,0.005607
2451,-0.019652,0.005964,0.005607
2452,-0.001113,-0.01211,0.023687
2453,-0.001113,0.024037,0.023687
2454,0.017426,0.005964,0.023687
2455,-0.019652,0.005964,0.023687
2456,-0.001113,0.005964,-0.012473
2457,-0.001113,0.005964,-0.012473
2458,-0.001113,0.005964,-0.012473
2459,-0.001113,0.005964,-0.030552
2460,-0.001113,-0.01211,-0.030552
2461,0.017426,0.024037,-0.030552
2462,-0.001113,-0.01211,-0.012473
2463,-0.019652,0.005964,0.005607
2464,-0.001113,0.005964,0.023687
2465,0.017426,0.005964,0.005607
2466,-0.001113,-0.01211,0.005607
2467,-0.001113,0.005964,0.041767
2468,-0.019652,-0.01211,0.041767
2469,-0.001113,-0.01211,0.041767
2470,-0.019652,0.005964,0.005607
2471,-0.019652,-0.01211,0.023687
2472,-0.019652,0.024037,0.005607
2473,-0.001113,0.005964,-0.030552
2474,0.017426,0.005964,-0.012473
2475,-0.019652,0.005964,-0.012473
2476,-0.038191,0.005964,-0.012473
2477,0.017426,0.024037,0.005607
2478,-0.001113,0.005964,0.005607
2479,-0.001113,0.005964,-0.012473
2480,-0.001113,-0.01211,0.005607
2481,-0.019652,-0.01211,0.023687
2482,0.017426,0.005964,0.023687
2483,-0.001113,0.005964,0.023687
2484,-0.038191,0.024037,0.023687
2485,-0.038191,0.005964,0.023687
2486,-0.019652,0.005964,0.005607
2487,-0.019652,0.005964,-0.012473
2488,-0.001113,0.024037,-0.012473
2489,-0.019652,-0.01211,0.005607
2490,-0.001113,-0.01211,-0.012473
2491,-0.001113,0.005964,0.005607
2492,-0.001113,-0.030183,-0.030552
2493,-0.001113,-0.01211,-0.048632
2494,0.017426,0.005964,-0.012473
2495,0.017426,0.005964,-0.012473
2496,-0.019652,0.005964,0.005607
2497,0.017426,0.005964,0.005607
2498,-0.019652,0.005964,0.005607
2499,-0.019652,-0.01211,0.023687
2500,-0.019652,0.005964,0.023687
2501,-0.001113,0.005964,0.023687
2502,-0.001113,0.005964,0.005607
2503,-0.019652,0.005964,0.005607
2504,-0.019652,0.024037,0.005607
2505,-0.019652,0.005964,0.005607
2506,-0.001113,0.005964,0.005607
2507,0.017426,0.005964,0.005607
2508,-0.001113,-0.01211,-0.012473
2509,-0.019652,-0.01211,0.005607
2510,-0.038191,-0.01211,-0.012473
2511,0.017426,-0.01211,0.005607
2512,-0.001113,0.005964,0.005607
2513,-0.001113,0.005964,0.023687
2514,-0.019652,-0.01211,0.005607
2515,-0.019652,0.005964,0.005607
2516,-0.038191,-0.01211,0.005607
2517,0.017426,-0.01211,0.023687
2518,-0.001113,0.005964,0.005607
2519,-0.001113,0.005964,0.023687
2520,0.017426,0.005964,0.005607
2521,-0.001113,0.005964,-0.012473
2522,0.017426,0.005964,0.005607
2523,-0.001113,0.024037,0.005607
2524,-0.001113,-0.01211,-0.030552
2525,-0.001113,0.005964,-0.048632
2526,-0.001113,-0.01211,-0.012473
2527,-0.019652,0.005964,-0.012473
2528,0.017426,-0.01211,-0.012473
2529,-0.019652,0.005964,0.005607
2530,-0.001113,0.005964,0.023687
2531,-0.001113,0.005964,0.023687
2532,-0.019652,0.005964,0.005607
2533,-0.019652,0.024037,0.023687
2534,-0.019652,0.005964,0.023687
2535,0.017426,0.005964,0.023687
2536,-0.038191,0.005964,0.005607
2537,0.017426,0.005964,0.005607
2538,0.017426,0.005964,0.005607
2539,-0.019652,0.005964,-0.012473
2540,-0.001113,0.005964,0.005607
2541,-0.001113,0.005964,-0.030552
2542,-0.001113,0.005964,-0.012473
2543,-0.001113,0.005964,0.005607
2544,-0.019652,-0.01211,-0.012473
2545,-0.001113,0.005964,0.005607
2546,-0.019652,-0.01211,-0.012473
2547,-0.001113,-0.01211,0.005607
2548,0.017426,-0.01211,0.005607
2549,0.017426,0.005964,0.023687
2550,-0.001113,0.005964,0.023687
2551,-0.001113,0.005964,0.023687
2552,-0.001113,0.005964,0.005607
2553,-0.019652,0.005964,0.005607
2554,0.017426,0.024037,-0.012473
2555,-0.001113,0.024037,-0.012473
2556,-0.001113,0.024037,-0.012473
2557,-0.019652,0.024037,-0.012473
2558,-0.019652,-0.01211,-0.012473
2559,-0.001113,0.005964,-0.012473
2560,-0.001113,0.005964,0.005607
2561,-0.001113,0.005964,-0.012473
2562,0.017426,-0.01211,-0.012473
2563,-0.001113,0.005964,0.005607
2564,-0.001113,-0.01211,0.005607
2565,-0.001113,-0.01211,0.005607
2566,-0.019652,-0.01211,0.041767
2567,-0.001113,0.005964,0.023687
2568,-0.019652,0.005964,0.005607
2569,-0.019652,0.005964,-0.012473
2570,-0.001113,0.024037,0.005607
2571,0.017426,-0.01211,0.005607
2572,-0.001113,0.005964,0.005607
2573,-0.001113,0.005964,-0.012473
2574,-0.019652,0.005964,0.005607
2575,-0.001113,-0.01211,-0.030552
2576,-0.001113,0.005964,-0.012473
2577,-0.019652,0.005964,-0.012473
2578,-0.001113,0.005964,0.005607
2579,-0.001113,0.005964,0.005607
2580,-0.019652,-0.01211,0.005607
2581,-0.001113,0.024037,0.023687
2582,-0.019652,0.005964,0.023687
2583,-0.001113,0.005964,0.023687
2584,0.017426,0.005964,0.023687
2585,-0.001113,0.005964,0.023687
2586,-0.001113,0.005964,0.005607
2587,0.017426,0.005964,0.005607
2588,-0.001113,0.024037,-0.012473
2589,-0.001113,-0.01211,-0.012473
2590,-0.001113,0.024037,-0.030552
2591,-0.001113,0.005964,-0.030552
2592,-0.001113,0.024037,0.005607
2593,-0.019652,0.005964,0.005607
2594,-0.019652,0.024037,-0.012473
2595,-0.001113,0.005964,0.005607
2596,0.017426,0.005964,0.005607
2597,-0.038191,0.005964,0.005607
2598,-0.001113,0.005964,0.041767
2599,-0.019652,0.005964,0.023687
2600,-0.019652,0.005964,0.005607
2601,-0.001113,0.005964,0.005607
2602,-0.001113,0.005964,-0.012473
2603,-0.019652,0.024037,0.005607
2604,-0.019652,0.024037,-0.012473
2605,-0.019652,0.005964,-0.012473
2606,0.017426,-0.01211,-0.012473
2607,-0.001113,0.005964,-0.012473
2608,-0.001113,0.005964,-0.012473
2609,-0.001113,0.005964,0.005607
2610,0.017426,-0.030183,0.005607
2611,-0.05673,0.005964,-0.012473
2612,0.017426,0.005964,0.005607
2613,-0.019652,0.005964,0.023687
2614,-0.001113,0.005964,0.023687
2615,-0.001113,0.005964,0.023687
2616,-0.001113,0.005964,0.041767
2617,-0.001113,0.005964,0.023687
2618,-0.019652,0.024037,0.005607
2619,0.035965,0.005964,-0.012473
2620,-0.001113,0.024037,-0.012473
2621,-0.019652,0.024037,-0.012473
2622,-0.001113,0.005964,-0.012473
2623,-0.001113,0.005964,-0.012473
2624,-0.001113,0.005964,-0.012473
2625,-0.001113,0.005964,-0.012473
2626,-0.019652,0.005964,0.005607
2627,-0.019652,0.024037,0.005607
2628,-0.001113,0.005964,0.005607
2629,-0.019652,0.024037,0.023687
2630,-0.001113,0.005964,0.023687
2631,-0.001113,0.005964,0.005607
2632,0.017426,0.005964,0.023687
2633,0.035965,0.005964,0.023687
2634,-0.001113,-0.01211,0.023687
2635,-0.001113,0.005964,0.005607
2636,-0.001113,0.005964,0.005607
2637,-0.019652,0.024037,-0.012473
2638,-0.001113,-0.01211,-0.030552
2639,-0.001113,0.024037,-0.030552
2640,-0.001113,0.005964,-0.030552
2641,-0.001113,0.005964,-0.012473
2642,-0.001113,0.005964,0.005607
2643,-0.001113,0.024037,-0.012473
2644,-0.001113,0.005964,0.005607
2645,-0.001113,0.005964,0.023687
2646,-0.001113,0.005964,0.005607
2647,0.017426,-0.01211,0.005607
2648,-0.001113,0.005964,0.023687
2649,-0.001113,0.005964,0.023687
2650,0.017426,0.005964,0.023687
2651,-0.001113,0.005964,0.005607
2652,-0.001113,0.005964,0.005607
2653,-0.001113,-0.01211,-0.012473
2654,0.017426,0.024037,0.005607
2655,-0.001113,0.005964,-0.012473
2656,-0.019652,0.005964,-0.012473
2657,0.017426,0.005964,-0.012473
2658,-0.001113,0.005964,0.023687
2659,-0.001113,-0.01211,0.023687
2660,-0.001113,0.005964,0.023687
2661,0.017426,0.005964,0.005607
2662,-0.019652,0.005964,0.005607
2663,-0.019652,-0.01211,0.005607
2664,-0.019652,-0.01211,0.023687
2665,-0.038191,-0.01211,0.023687
2666,-0.019652,0.024037,0.005607
2667,-0.001113,0.005964,0.005607
2668,-0.001113,0.005964,-0.012473
2669,-0.001113,0.005964,-0.012473
2670,-0.001113,0.005964,-0.012473
2671,-0.019652,0.005964,-0.030552
2672,-0.001113,0.024037,-0.030552
2673,-0.019652,0.005964,-0.012473
2674,-0.001113,0.005964,-0.012473
2675,-0.001113,0.024037,0.005607
2676,0.017426,0.005964,0.023687
2677,-0.001113,0.005964,0.005607
2678,-0.019652,-0.01211,0.005607
2679,-0.019652,0.005964,0.005607
2680,0.017426,0.005964,0.023687
2681,-0.001113,0.024037,0.023687
2682,-0.001113,0.005964,0.023687
2683,-0.001113,0.005964,0.005607
2684,0.017426,0.005964,0.005607
2685,-0.001113,0.005964,-0.012473
2686,-0.019652,0.024037,-0.012473
2687,-0.001113,0.024037,-0.012473
2688,-0.019652,0.005964,0.005607
2689,-0.001113,0.024037,-0.012473
2690,-0.019652,0.005964,-0.012473
2691,-0.001113,0.005964,-0.012473
2692,-0.001113,0.024037,-0.012473
2693,-0.001113,0.005964,-0.012473
2694,-0.001113,0.005964,0.005607
2695,-0.001113,-0.01211,0.005607
2696,-0.001113,0.005964,0.023687
2697,0.017426,-0.01211,0.005607
2698,-0.019652,0.005964,0.041767
2699,-0.001113,-0.01211,0.023687
2700,-0.001113,0.005964,0.005607
2701,-0.019652,0.024037,0.005607
2702,-0.001113,0.005964,-0.012473
2703,-0.019652,0.024037,-0.012473
2704,-0.001113,0.024037,0.005607
2705,-0.001113,0.005964,-0.012473
2706,-0.001113,0.005964,-0.012473
2707,-0.001113,0.005964,-0.012473
2708,-0.001113,-0.030183,-0.012473
2709,-0.001113,0.005964,-0.012473
2710,-0.001113,0.005964,0.005607
2711,-0.001113,0.024037,0.005607
2712,-0.038191,-0.01211,0.005607
2713,-0.001113,0.005964,0.005607
2714,-0.001113,0.024037,0.023687
2715,-0.019652,0.005964,0.041767
2716,-0.019652,0.005964,0.023687
2717,-0.019652,0.024037,0.005607
2718,-0.019652,-0.01211,0.005607
2719,-0.001113,0.04211,0.005607
2720,0.017426,0.005964,0.023687
2721,-0.001113,-0.01211,0.005607
2722,-0.001113,0.005964,-0.012473
2723,0.017426,-0.01211,-0.012473
2724,-0.001113,0.005964,-0.012473
2725,-0.001113,0.005964,-0.012473
2726,-0.001113,0.005964,-0.012473
2727,-0.001113,0.005964,0.005607
2728,-0.001113,0.005964,0.023687
2729,-0.019652,0.024037,0.023687
2730,-0.001113,0.005964,0.041767
2731,0.017426,-0.01211,0.023687
2732,-0.001113,-0.01211,-0.012473
2733,-0.038191,0.005964,0.005607
2734,-0.038191,0.005964,0.005607
2735,-0.001113,0.005964,0.005607
2736,-0.001113,0.005964,0.005607
2737,-0.001113,0.005964,-0.012473
2738,-0.001113,0.005964,-0.012473
2739,-0.019652,0.005964,-0.030552
2740,-0.001113,0.005964,0.005607
2741,-0.001113,0.024037,0.005607
2742,-0.019652,-0.030183,0.023687
2743,-0.019652,0.005964,0.023687
2744,-0.001113,-0.01211,0.005607
2745,-0.019652,0.005964,0.005607
2746,-0.019652,0.005964,0.023687
2747,-0.001113,0.024037,0.023687
2748,-0.001113,0.005964,0.023687
2749,-0.019652,0.005964,0.005607
2750,0.017426,0.024037,-0.012473
2751,-0.001113,-0.01211,-0.012473
2752,-0.001113,0.005964,-0.030552
2753,-0.001113,0.005964,0.005607
2754,-0.001113,0.005964,-0.012473
2755,-0.001113,-0.030183,-0.012473
2756,-0.001113,0.005964,0.005607
2757,-0.001113,0.005964,0.005607
2758,-0.001113,0.005964,0.023687
2759,-0.019652,0.005964,0.005607
2760,-0.019652,-0.01211,0.023687
2761,-0.019652,0.005964,0.005607
2762,-0.019652,-0.01211,0.005607
2763,-0.019652,-0.01211,0.023687
2764,0.017426,-0.01211,0.005607
2765,-0.019652,0.005964,0.005607
2766,-0.001113,0.005964,0.005607
2767,-0.001113,0.005964,-0.012473
2768,-0.001113,0.005964,-0.012473
2769,-0.001113,0.005964,-0.012473
2770,-0.019652,0.024037,-0.030552
2771,0.017426,0.005964,-0.012473
2772,-0.019652,0.005964,-0.012473
2773,-0.019652,0.005964,0.005607
2774,-0.001113,-0.01211,0.005607
2775,0.017426,0.005964,0.023687
2776,-0.001113,0.005964,0.023687
2777,-0.019652,0.005964,0.005607
2778,-0.001113,0.005964,0.041767
2779,-0.019652,-0.01211,0.023687
2780,-0.001113,0.005964,0.005607
2781,-0.019652,0.024037,0.005607
2782,-0.001113,0.005964,0.005607
2783,-0.001113,-0.01211,-0.030552
2784,-0.001113,0.005964,-0.012473
2785,-0.038191,0.024037,-0.012473
2786,-0.001113,0.005964,-0.030552
2787,-0.019652,0.005964,-0.030552
2788,-0.001113,0.024037,-0.012473
2789,-0.019652,0.005964,0.023687
2790,-0.001113,0.024037,0.005607
2791,0.017426,0.005964,0.023687
2792,-0.019652,0.005964,0.005607
2793,-0.001113,0.005964,0.005607
2794,-0.001113,-0.01211,0.005607
2795,-0.001113,0.04211,0.005607
2796,-0.038191,0.005964,0.005607
2797,0.017426,-0.01211,0.005607
2798,-0.001113,0.005964,-0.012473
2799,-0.019652,0.005964,-0.012473
2800,-0.001113,0.005964,-0.012473
2801,-0.001113,0.024037,-0.012473
2802,-0.001113,-0.01211,-0.030552
2803,-0.019652,0.024037,-0.030552
2804,-0.019652,0.024037,-0.030552
2805,-0.001113,-0.01211,0.023687
2806,-0.001113,0.024037,0.005607
2807,0.017426,-0.030183,0.023687
2808,-0.001113,-0.01211,0.023687
2809,-0.019652,-0.01211,0.023687
2810,-0.038191,0.005964,0.023687
2811,-0.001113,0.005964,0.041767
2812,-0.001113,0.005964,0.005607
2813,-0.001113,0.005964,0.023687
2814,-0.001113,0.024037,0.005607
2815,-0.001113,0.024037,-0.012473
2816,0.017426,0.005964,-0.012473
2817,-0.019652,0.005964,-0.012473
2818,-0.019652,0.005964,-0.012473
2819,-0.001113,0.024037,-0.012473
2820,-0.001113,0.005964,-0.012473
2821,-0.019652,0.005964,0.005607
2822,-0.001113,0.005964,0.005607
2823,-0.001113,0.005964,0.023687
2824,-0.001113,0.005964,-0.012473
2825,-0.019652,0.005964,0.023687
2826,-0.001113,-0.01211,0.005607
2827,-0.001113,0.005964,0.023687
2828,-0.001113,0.005964,0.005607
2829,-0.001113,-0.01211,0.005607
2830,0.017426,0.005964,0.005607
2831,-0.019652,0.024037,0.005607
2832,-0.019652,0.005964,0.005607
2833,-0.001113,0.005964,-0.012473
2834,-0.019652,0.005964,-0.012473
2835,-0.001113,-0.01211,-0.030552
2836,-0.001113,0.005964,0.005607
2837,-0.001113,0.005964,0.005607
2838,-0.019652,0.005964,0.005607
2839,-0.001113,0.024037,0.005607
2840,0.017426,0.005964,0.023687
2841,-0.001113,0.005964,0.005607
2842,-0.001113,0.005964,0.023687
2843,0.017426,0.005964,0.005607
2844,-0.001113,-0.01211,0.005607
2845,-0.019652,0.005964,0.005607
2846,-0.001113,0.005964,-0.012473
2847,-0.001113,-0.01211,-0.012473
2848,-0.001113,-0.01211,-0.012473
2849,-0.001113,0.005964,0.005607
2850,-0.001113,0.005964,-0.030552
2851,0.017426,0.005964,-0.030552
2852,0.017426,0.005964,-0.012473
2853,-0.001113,0.005964,-0.012473
2854,-0.001113,0.005964,-0.012473
2855,-0.019652,0.005964,0.005607
2856,-0.019652,0.005964,0.005607
2857,-0.019652,-0.01211,0.023687
2858,-0.001113,-0.01211,0.023687
2859,-0.019652,0.005964,0.023687
2860,-0.019652,-0.01211,0.005607
2861,-0.001113,0.005964,0.005607
2862,-0.001113,0.005964,0.005607
2863,-0.001113,-0.01211,0.005607
2864,0.017426,-0.01211,-0.012473
2865,-0.001113,0.005964,0.005607
2866,-0.001113,0.005964,-0.012473
2867,-0.001113,0.005964,-0.012473
2868,-0.001113,0.005964,-0.030552
2869,-0.019652,0.005964,0.023687
2870,-0.001113,0.005964,0.005607
2871,0.017426,0.024037,0.005607
2872,-0.001113,0.024037,0.023687
2873,0.017426,-0.01211,0.023687
2874,0.017426,0.024037,0.023687
2875,-0.001113,-0.01211,0.023687
2876,-0.001113,0.005964,0.005607
2877,-0.001113,0.005964,0.005607
2878,0.017426,0.005964,0.005607
2879,0.017426,0.005964,-0.012473
2880,-0.001113,-0.01211,-0.012473
2881,-0.001113,0.005964,-0.012473
2882,-0.001113,0.005964,-0.030552
2883,-0.019652,0.024037,-0.030552
2884,-0.019652,-0.01211,-0.012473
2885,0.017426,0.005964,-0.012473
2886,-0.001113,0.024037,0.005607
2887,-0.001113,0.005964,0.005607
2888,-0.019652,0.005964,0.023687
2889,-0.001113,-0.01211,0.005607
2890,-0.019652,0.005964,0.041767
2891,-0.001113,0.005964,0.023687
2892,-0.001113,0.024037,0.023687
2893,-0.001113,0.005964,0.005607
2894,-0.019652,0.005964,0.005607
2895,-0.019652,0.005964,0.005607
2896,0.017426,0.005964,-0.012473
2897,-0.001113,-0.01211,-0.012473
2898,-0.001113,-0.01211,-0.012473
2899,-0.019652,0.005964,-0.030552
2900,-0.001113,0.024037,-0.012473
2901,0.017426,0.005964,-0.012473
2902,0.017426,0.005964,-0.012473
2903,-0.001113,0.005964,0.023687
2904,-0.001113,0.005964,0.023687
2905,-0.019652,0.024037,0.023687
2906,0.017426,0.005964,0.023687
2907,-0.001113,0.005964,0.041767
2908,0.017426,0.005964,0.041767
2909,0.017426,0.024037,0.005607
2910,-0.001113,-0.01211,0.005607
2911,-0.001113,0.005964,-0.012473
2912,-0.001113,0.005964,-0.012473
2913,-0.001113,0.005964,-0.012473
2914,-0.019652,0.005964,-0.012473
2915,-0.001113,-0.01211,-0.012473
2916,-0.019652,-0.01211,-0.012473
2917,0.017426,0.005964,0.005607
2918,-0.001113,0.005964,-0.012473
2919,-0.019652,0.024037,0.005607
2920,0.017426,0.005964,0.005607
2921,-0.001113,0.005964,0.023687
2922,-0.019652,-0.01211,0.023687
2923,-0.019652,0.005964,0.023687
2924,-0.001113,0.005964,0.023687
2925,-0.001113,0.005964,0.023687
2926,-0.001113,0.005964,-0.012473
2927,-0.001113,0.005964,0.005607
2928,-0.001113,0.024037,0.005607
2929,0.017426,-0.01211,0.005607
2930,-0.001113,-0.030183,0.005607
2931,-0.001113,0.005964,-0.030552
2932,-0.001113,-0.01211,-0.048632
2933,-0.019652,-0.01211,-0.012473
2934,-0.001113,0.005964,-0.012473
2935,-0.001113,-0.01211,0.005607
2936,-0.019652,0.005964,0.005607
2937,-0.001113,0.005964,0.005607
2938,0.017426,0.005964,0.023687
2939,-0.019652,0.005964,0.041767
2940,-0.001113,0.005964,0.041767
2941,-0.019652,0.024037,0.023687
2942,-0.001113,0.005964,0.005607
2943,-0.019652,0.005964,-0.012473
2944,0.017426,0.005964,0.005607
2945,-0.001113,0.005964,-0.030552
2946,0.017426,0.024037,-0.012473
2947,-0.001113,0.024037,-0.030552
2948,-0.019652,-0.01211,-0.030552
2949,-0.001113,0.005964,-0.030552
2950,-0.001113,-0.01211,-0.012473
2951,-0.001113,0.005964,-0.012473
2952,-0.038191,-0.01211,0.005607
2953,0.017426,0.005964,0.023687
2954,-0.019652,0.005964,0.023687
2955,-0.019652,0.005964,0.023687
2956,-0.019652,0.005964,0.005607
2957,0.017426,0.005964,0.023687
2958,-0.001113,0.024037,0.005607
2959,-0.001113,0.005964,0.023687
2960,-0.001113,0.005964,0.005607
2961,-0.001113,0.024037,-0.012473
2962,-0.019652,-0.01211,-0.012473
2963,-0.019652,0.005964,-0.012473
2964,-0.019652,0.005964,-0.030552
2965,-0.001113,-0.01211,-0.030552
2966,-0.001113,0.005964,0.005607
2967,0.017426,0.024037,0.005607
2968,0.017426,0.005964,0.005607
2969,-0.019652,0.005964,0.023687
2970,-0.038191,0.005964,0.023687
2971,-0.001113,-0.01211,0.041767
2972,-0.019652,0.024037,0.005607
2973,-0.001113,0.005964,0.023687
2974,-0.001113,0.005964,0.005607
2975,-0.001113,-0.01211,0.005607
2976,0.017426,0.005964,-0.012473
2977,-0.001113,0.005964,0.005607
2978,0.017426,0.005964,-0.030552
2979,-0.019652,-0.01211,-0.030552
2980,-0.038191,0.005964,-0.030552
2981,-0.001113,-0.01211,-0.030552
2982,0.035965,0.005964,-0.012473
2983,-0.019652,0.005964,0.005607
2984,-0.019652,0.005964,0.005607
2985,-0.001113,0.005964,0.005607
2986,0.017426,0.024037,0.005607
2987,-0.001113,-0.01211,0.023687
2988,-0.019652,0.005964,0.023687
2989,-0.001113,0.005964,0.041767
2990,-0.001113,0.005964,0.005607
2991,-0.001113,0.005964,-0.012473
2992,-0.019652,-0.01211,0.005607
2993,0.017426,0.005964,0.005607
2994,-0.001113,0.005964,-0.012473
2995,-0.001113,0.005964,-0.012473
2996,0.017426,0.005964,-0.030552
2997,-0.019652,0.005964,-0.030552
2998,-0.019652,0.005964,-0.012473
2999,-0.001113,0.005964,0.005607
3000,-0.001113,0.005964,0.023687
3001,-0.001113,0.005964,0.005607
3002,-0.001113,0.005964,0.023687
3003,-0.001113,0.024037,0.023687
3004,-0.001113,-0.01211,0.023687
3005,-0.001113,0.024037,0.041767
3006,-0.001113,0.005964,0.023687
3007,-0.019652,0.005964,0.005607
3008,-0.019652,0.005964,-0.012473
3009,-0.001113,0.005964,-0.012473
3010,-0.001113,0.024037,0.005607
3011,-0.001113,0.005964,-0.012473
3012,-0.001113,-0.01211,-0.030552
3013,-0.001113,0.005964,-0.012473
3014,-0.001113,0.005964,-0.012473
3015,-0.019652,-0.01211,0.005607
3016,-0.001113,0.005964,0.005607
3017,-0.001113,0.005964,0.005607
3018,-0.001113,0.005964,0.005607
3019,-0.001113,0.005964,0.023687
3020,-0.001113,0.005964,0.041767
3021,-0.019652,0.005964,0.023687
3022,0.017426,0.024037,0.005607
3023,-0.001113,-0.01211,0.023687
3024,-0.05673,0.005964,0.005607
3025,-0.001113,0.024037,-0.012473
3026,-0.019652,-0.01211,-0.030552
3027,-0.001113,0.005964,-0.012473
3028,-0.001113,0.005964,-0.012473
3029,0.017426,-0.01211,-0.012473
3030,-0.019652,0.005964,-0.012473
3031,-0.001113,0.024037,0.005607
3032,-0.001113,0.005964,0.005607
3033,-0.019652,-0.01211,0.023687
3034,-0.001113,-0.01211,0.005607
3035,-0.001113,0.005964,0.005607
3036,0.017426,0.005964,0.023687
3037,-0.019652,0.005964,0.059847
3038,-0.001113,-0.01211,0.041767
3039,0.017426,-0.01211,0.023687
3040,-0.001113,-0.01211,0.023687
3041,-0.001113,0.024037,0.005607
3042,-0.001113,-0.01211,-0.030552
3043,-0.019652,0.024037,-0.012473
3044,0.017426,0.04211,-0.012473
3045,-0.001113,0.005964,-0.030552
3046,0.035965,0.005964,-0.030552
3047,-0.038191,0.005964,0.005607
3048,-0.001113,0.005964,-0.012473
3049,-0.038191,-0.030183,-0.012473
3050,-0.001113,0.024037,0.005607
3051,-0.019652,-0.01211,0.023687
3052,-0.019652,0.005964,0.005607
3053,-0.019652,0.005964,0.005607
3054,-0.001113,0.005964,0.023687
3055,-0.001113,0.005964,0.005607
3056,-0.019652,-0.01211,0.023687
3057,-0.019652,0.005964,0.005607
3058,-0.019652,0.005964,0.005607
3059,-0.019652,0.005964,0.005607
3060,-0.001113,0.024037,0.005607
3061,-0.001113,0.005964,-0.012473
3062,-0.001113,0.024037,-0.030552
3063,0.017426,0.005964,-0.012473
3064,-0.019652,0.005964,-0.012473
3065,-0.001113,0.005964,-0.012473
3066,-0.001113,0.005964,0.005607
3067,-0.019652,0.024037,0.023687
3068,-0.001113,0.024037,0.023687
3069,0.035965,0.005964,0.023687
3070,-0.019652,0.024037,0.041767
3071,-0.001113,0.005964,0.023687
3072,-0.001113,0.005964,0.005607
3073,-0.001113,0.005964,0.005607
3074,-0.001113,0.005964,0.005607
3075,-0.001113,0.005964,0.005607
3076,-0.001113,0.024037,0.005607
3077,0.017426,0.005964,-0.012473
3078,-0.019652,0.024037,-0.012473
3079,-0.019652,0.005964,-0.012473
3080,0.017426,0.005964,-0.030552
3081,-0.001113,0.005964,-0.030552
3082,-0.019652,0.005964,0.005607
3083,-0.001113,0.005964,0.005607
3084,-0.019652,0.024037,0.005607
3085,0.017426,0.005964,0.005607
3086,0.017426,0.024037,0.041767
3087,-0.001113,0.005964,0.059847
3088,-0.001113,0.005964,0.041767
3089,-0.019652,-0.01211,0.005607
3090,-0.001113,0.005964,0.005607
3091,0.017426,0.005964,-0.012473
3092,-0.019652,0.005964,0.005607
3093,-0.019652,0.005964,-0.012473
3094,-0.001113,0.005964,-0.012473
3095,-0.001113,-0.01211,-0.030552
3096,-0.019652,-0.01211,-0.030552
3097,-0.038191,0.005964,-0.012473
3098,-0.001113,0.024037,0.005607
3099,0.017426,0.005964,0.005607
3100,-0.001113,0.005964,0.005607
3101,-0.001113,0.005964,0.005607
3102,-0.019652,0.005964,0.005607
3103,-0.001113,0.024037,0.023687
3104,-0.001113,0.005964,0.041767
3105,-0.019652,-0.01211,0.041767
3106,-0.001113,0.005964,0.023687
3107,-0.001113,-0.01211,0.005607
3108,-0.001113,-0.01211,0.005607
3109,0.017426,0.005964,-0.012473
3110,-0.001113,0.005964,-0.012473
3111,0.017426,0.005964,-0.030552
3112,-0.001113,0.005964,-0.030552
3113,-0.019652,0.005964,-0.030552
3114,-0.001113,0.005964,0.005607
3115,-0.001113,0.005964,-0.012473
3116,-0.001113,0.024037,-0.012473
3117,-0.019652,0.024037,0.005607
3118,-0.001113,0.005964,0.023687
3119,-0.001113,0.005964,0.023687
3120,-0.001113,0.005964,0.023687
3121,-0.001113,0.005964,0.023687
3122,-0.019652,-0.01211,0.023687
3123,-0.001113,-0.01211,0.005607
3124,-0.001113,-0.01211,0.023687
3125,-0.019652,-0.01211,-0.012473
3126,-0.001113,0.005964,0.005607
3127,-0.001113,0.005964,-0.012473
3128,-0.038191,-0.01211,-0.012473
3129,-0.001113,-0.01211,-0.030552
3130,-0.001113,-0.01211,-0.012473
3131,-0.001113,0.005964,0.023687
3132,0.017426,0.005964,0.005607
3133,-0.001113,0.005964,0.023687
3134,-0.001113,0.005964,0.005607
3135,-0.001113,0.024037,0.005607
3136,-0.001113,0.005964,0.041767
3137,-0.001113,0.005964,0.041767
3138,-0.001113,-0.01211,0.023687
3139,-0.001113,0.005964,0.005607
3140,-0.019652,0.005964,0.005607
3141,-0.001113,0.005964,0.005607
3142,-0.001113,0.024037,-0.012473
3143,-0.001113,0.005964,-0.012473
3144,0.017426,0.005964,-0.012473
3145,-0.019652,-0.01211,-0.012473
3146,-0.038191,0.005964,-0.030552
3147,-0.019652,0.005964,0.005607
3148,0.017426,0.005964,-0.012473
3149,-0.038191,-0.030183,0.041767
3150,-0.019652,-0.01211,0.023687
3151,-0.001113,0.005964,0.041767
3152,-0.001113,0.005964,0.023687
3153,-0.001113,0.024037,0.023687
3154,-0.001113,0.005964,0.005607
3155,-0.019652,0.005964,0.005607
3156,-0.001113,0.005964,-0.012473
3157,-0.019652,0.005964,0.005607
3158,-0.001113,0.005964,0.005607
3159,0.017426,0.005964,0.005607
3160,0.017426,-0.01211,-0.012473
3161,-0.019652,0.005964,-0.048632
3162,0.017426,-0.01211,-0.030552
3163,0.035965,0.005964,-0.012473
3164,-0.001113,-0.01211,0.005607
3165,0.017426,0.005964,0.005607
3166,-0.001113,0.005964,0.005607
3167,-0.001113,0.024037,0.005607
3168,-0.001113,0.005964,0.023687
3169,0.017426,-0.01211,0.041767
3170,0.017426,0.005964,0.023687
3171,-0.019652,0.005964,0.023687
3172,-0.001113,-0.01211,0.023687
3173,-0.019652,0.005964,0.005607
3174,-0.001113,-0.01211,-0.012473
3175,-0.019652,0.005964,-0.012473
3176,-0.019652,0.005964,-0.012473
3177,-0.001113,0.005964,-0.030552
3178,-0.001113,-0.01211,-0.012473
3179,-0.001113,-0.01211,0.005607
3180,-0.001113,-0.01211,0.005607
3181,-0.001113,0.024037,0.023687
3182,-0.001113,0.005964,0.023687
3183,-0.001113,0.024037,0.005607
3184,-0.001113,0.005964,0.023687
3185,-0.019652,0.005964,0.041767
3186,-0.001113,0.024037,0.023687
3187,0.017426,0.024037,0.023687
3188,-0.019652,0.005964,0.005607
3189,-0.001113,0.005964,-0.012473
3190,-0.001113,0.005964,-0.012473
3191,-0.019652,0.005964,-0.012473
3192,-0.001113,0.005964,-0.012473
3193,-0.001113,0.005964,-0.030552
3194,-0.019652,0.005964,-0.030552
3195,-0.038191,-0.01211,-0.012473
3196,-0.001113,0.024037,0.005607
3197,-0.019652,0.005964,0.005607
3198,-0.001113,0.005964,0.023687
3199,-0.001113,0.005964,0.023687
3200,0.017426,0.005964,0.041767
3201,-0.001113,0.005964,0.023687
3202,-0.019652,0.005964,0.005607
3203,-0.019652,0.005964,0.023687
3204,-0.001113,0.005964,0.005607
3205,-0.001113,0.005964,-0.012473
3206,0.017426,0.005964,-0.012473
3207,-0.019652,0.024037,-0.012473
3208,-0.001113,-0.01211,-0.012473
3209,0.017426,0.005964,-0.012473
3210,-0.001113,0.005964,-0.030552
3211,-0.001113,-0.01211,-0.012473
3212,-0.038191,0.005964,-0.012473
3213,-0.001113,0.005964,-0.012473
3214,-0.019652,0.005964,0.005607
3215,0.017426,0.005964,0.023687
3216,-0.019652,0.024037,0.023687
3217,-0.019652,0.024037,0.023687
3218,-0.019652,0.005964,0.005607
3219,-0.001113,0.005964,0.005607
3220,0.017426,0.04211,0.005607
3221,0.017426,0.005964,0.005607
3222,-0.019652,0.005964,0.005607
3223,-0.001113,0.005964,0.005607
3224,-0.019652,0.024037,-0.030552
3225,-0.001113,0.005964,-0.030552
3226,0.035965,0.005964,0.005607
3227,-0.019652,0.005964,-0.012473
3228,-0.019652,0.024037,0.023687
3229,0.017426,0.005964,0.023687
3230,-0.001113,0.005964,0.023687
3231,-0.019652,-0.01211,0.023687
3232,-0.001113,0.005964,0.023687
3233,-0.001113,0.005964,0.041767
3234,-0.001113,0.005964,0.023687
3235,-0.019652,0.024037,0.023687
3236,-0.001113,0.024037,0.005607
3237,-0.001113,0.005964,-0.012473
3238,-0.001113,-0.01211,0.005607
3239,-0.001113,-0.01211,-0.012473
3240,-0.001113,-0.01211,-0.012473
3241,-0.001113,0.005964,-0.030552
3242,-0.001113,0.005964,-0.012473
3243,0.017426,0.005964,0.005607
3244,-0.001113,0.005964,0.005607
3245,-0.019652,0.005964,0.005607
3246,-0.001113,0.005964,0.005607
3247,-0.001113,-0.01211,0.005607
3248,-0.001113,0.005964,0.005607
3249,0.017426,0.005964,0.023687
3250,-0.001113,0.005964,0.023687
3251,0.017426,0.024037,0.023687
3252,-0.001113,0.005964,0.005607
3253,-0.019652,0.005964,0.005607
3254,-0.001113,0.005964,-0.012473
3255,-0.001113,-0.01211,0.005607
3256,-0.001113,0.005964,-0.012473
3257,-0.001113,0.005964,-0.012473
3258,-0.001113,-0.01211,-0.030552
3259,-0.038191,0.005964,-0.012473
3260,-0.019652,0.024037,0.005607
3261,-0.001113,0.005964,-0.012473
3262,-0.019652,0.005964,-0.012473
3263,-0.019652,-0.01211,0.005607
3264,-0.001113,0.005964,0.005607
3265,-0.001113,0.005964,0.023687
3266,-0.001113,0.005964,0.023687
3267,-0.001113,0.024037,0.005607
3268,-0.001113,-0.01211,0.005607
3269,-0.001113,0.005964,0.005607
3270,-0.001113,-0.01211,0.005607
3271,-0.001113,0.005964,-0.012473
3272,-0.001113,-0.01211,-0.030552
3273,-0.019652,-0.01211,-0.012473
3274,0.035965,0.005964,0.005607
3275,-0.001113,0.005964,0.023687
3276,0.017426,0.024037,-0.012473
3277,-0.001113,0.005964,0.005607
3278,-0.001113,0.005964,0.005607
3279,0.017426,0.005964,0.005607
3280,-0.001113,-0.01211,0.023687
3281,-0.001113,0.024037,0.023687
3282,-0.019652,-0.01211,0.005607
3283,-0.001113,0.024037,0.023687
3284,-0.001113,-0.01211,0.005607
3285,-0.001113,0.005964,0.005607
3286,-0.001113,0.005964,-0.012473
3287,-0.001113,-0.01211,-0.012473
3288,-0.001113,0.005964,-0.012473
3289,0.017426,0.005964,-0.012473
3290,-0.019652,0.005964,-0.012473
3291,-0.019652,-0.01211,-0.012473
3292,0.017426,-0.01211,-0.012473
3293,-0.019652,0.024037,0.005607
3294,-0.001113,0.005964,0.005607
3295,0.017426,-0.01211,0.023687
3296,0.017426,-0.01211,0.041767
3297,-0.001113,0.005964,0.005607
3298,-0.001113,-0.01211,0.005607
3299,-0.019652,0.005964,0.023687
3300,-0.001113,0.024037,0.005607
3301,-0.019652,0.024037,-0.012473
3302,-0.001113,-0.01211,-0.012473
3303,-0.019652,0.005964,-0.012473
3304,-0.001113,-0.01211,-0.012473
3305,-0.001113,0.005964,-0.030552
3306,-0.001113,0.005964,0.005607
3307,-0.001113,0.005964,0.005607
3308,-0.019652,0.005964,0.023687
3309,-0.019652,0.024037,0.005607
3310,0.017426,0.005964,0.005607
3311,-0.001113,0.024037,0.005607
3312,-0.001113,0.024037,0.005607
3313,-0.001113,0.005964,0.023687
3314,0.017426,0.005964,0.005607
3315,-0.001113,0.005964,0.005607
3316,-0.019652,0.005964,-0.030552
3317,-0.001113,0.005964,-0.012473
3318,-0.001113,-0.01211,-0.012473
3319,-0.001113,0.005964,-0.012473
3320,-0.019652,0.005964,-0.012473
3321,0.017426,0.005964,-0.012473
3322,-0.019652,-0.01211,0.005607
3323,0.017426,0.005964,0.005607
3324,0.017426,0.024037,0.005607
3325,-0.019652,0.024037,0.023687
3326,-0.001113,0.005964,0.023687
3327,0.035965,0.005964,0.023687
3328,-0.019652,-0.030183,0.041767
3329,-0.001113,-0.01211,0.023687
3330,-0.001113,-0.01211,0.005607
3331,-0.019652,0.005964,0.005607
3332,-0.001113,-0.01211,0.005607
3333,-0.001113,0.005964,-0.012473
3334,-0.001113,-0.01211,-0.012473
3335,-0.001113,0.005964,-0.012473
3336,-0.001113,0.005964,-0.012473
3337,0.017426,0.005964,-0.012473
3338,-0.001113,0.005964,-0.030552
3339,0.017426,0.005964,0.005607
3340,-0.001113,-0.01211,0.005607
3341,-0.001113,0.024037,0.023687
3342,-0.019652,-0.01211,0.023687
3343,-0.019652,0.005964,0.005607
3344,-0.001113,0.024037,0.005607
3345,-0.001113,0.005964,0.005607
3346,-0.001113,-0.01211,0.023687
3347,0.017426,0.005964,0.005607
3348,0.017426,0.005964,0.005607
3349,-0.001113,0.005964,0.005607
3350,-0.001113,-0.01211,0.005607
3351,-0.001113,0.005964,-0.012473
3352,-0.001113,0.024037,-0.012473
3353,-0.001113,0.005964,-0.030552
3354,-0.001113,0.005964,0.005607
3355,-0.019652,0.005964,-0.012473
3356,-0.019652,0.005964,0.005607
3357,-0.001113,-0.01211,0.005607
3358,-0.019652,0.005964,0.005607
3359,-0.001113,0.005964,0.005607
3360,-0.019652,0.005964,0.023687
3361,-0.001113,0.005964,0.005607
3362,0.017426,0.005964,0.005607
3363,-0.019652,0.005964,0.005607
3364,-0.019652,0.005964,-0.012473
3365,0.035965,-0.01211,-0.012473
3366,-0.001113,-0.01211,-0.012473
3367,0.017426,0.005964,-0.012473
3368,-0.019652,0.005964,-0.012473
3369,-0.001113,0.005964,-0.030552
3370,-0.019652,0.005964,-0.030552
3371,-0.019652,0.005964,0.005607
3372,-0.001113,-0.01211,0.023687
3373,-0.001113,0.005964,0.005607
3374,0.017426,-0.01211,0.005607
3375,-0.038191,0.005964,0.005607
3376,-0.019652,0.005964,0.023687
3377,-0.001113,0.005964,0.005607
3378,0.017426,0.024037,0.023687
3379,-0.001113,0.005964,0.023687
3380,-0.001113,0.005964,0.005607
3381,-0.001113,0.005964,0.005607
3382,-0.001113,0.005964,-0.012473
3383,-0.019652,0.024037,-0.012473
3384,-0.001113,0.024037,0.005607
3385,-0.019652,0.005964,-0.012473
3386,-0.001113,0.005964,-0.012473
3387,-0.001113,0.024037,0.005607
3388,-0.019652,0.024037,0.023687
3389,-0.001113,0.005964,0.005607
3390,0.035965,-0.01211,0.005607
3391,-0.019652,0.005964,0.023687
3392,0.017426,0.005964,0.041767
3393,-0.019652,0.005964,0.041767
3394,-0.001113,0.005964,0.041767
3395,-0.001113,0.005964,0.005607
3396,-0.019652,-0.01211,-0.030552
3397,-0.019652,0.005964,-0.012473
3398,-0.019652,0.005964,-0.012473
3399,-0.001113,0.005964,-0.012473
3400,-0.001113,0.005964,-0.030552
3401,-0.001113,0.024037,-0.030552
3402,-0.001113,0.005964,-0.012473
3403,-0.001113,0.024037,-0.012473
3404,-0.001113,0.005964,0.005607
3405,-0.001113,0.024037,0.005607
3406,-0.001113,0.024037,0.023687
3407,-0.019652,0.024037,0.005607
3408,-0.019652,0.005964,0.023687
3409,-0.019652,0.04211,0.023687
3410,-0.001113,0.024037,0.023687
3411,-0.019652,0.005964,-0.012473
3412,-0.001113,0.005964,0.005607
3413,-0.019652,-0.01211,0.005607
3414,0.017426,0.005964,0.005607
3415,-0.001113,0.005964,-0.012473
3416,0.017426,0.005964,-0.012473
3417,-0.019652,0.024037,-0.030552
3418,-0.001113,0.024037,-0.012473
3419,-0.001113,0.024037,-0.012473
3420,-0.001113,0.024037,0.005607
3421,-0.019652,0.005964,0.023687
3422,-0.019652,0.005964,0.023687
3423,-0.001113,0.005964,0.023687
3424,-0.001113,0.04211,0.041767
3425,-0.001113,0.005964,0.023687
3426,-0.019652,0.005964,0.023687
3427,-0.001113,0.005964,-0.012473
3428,-0.001113,0.024037,-0.012473
3429,-0.001113,0.005964,0.005607
3430,-0.019652,0.005964,0.005607
3431,-0.001113,0.005964,-0.030552
3432,-0.001113,-0.01211,-0.030552
3433,-0.001113,0.005964,-0.048632
3434,-0.001113,0.005964,0.005607
3435,-0.001113,0.024037,0.005607
3436,-0.001113,0.005964,0.023687
3437,-0.001113,0.005964,0.023687
3438,-0.001113,0.024037,0.005607
3439,-0.001113,0.024037,0.023687
3440,-0.001113,0.005964,0.041767
3441,-0.019652,-0.01211,0.023687
3442,-0.001113,0.024037,0.005607
3443,-0.001113,0.005964,0.005607
3444,-0.019652,0.005964,0.023687
3445,-0.001113,0.005964,-0.012473
3446,0.017426,0.005964,0.005607
3447,-0.019652,-0.030183,-0.012473
3448,-0.001113,0.005964,-0.012473
3449,-0.001113,0.024037,-0.012473
3450,0.017426,0.024037,-0.012473
3451,-0.001113,0.005964,-0.012473
3452,-0.001113,0.024037,0.005607
3453,-0.038191,0.005964,0.023687
3454,0.017426,0.005964,0.023687
3455,0.017426,0.005964,0.023687
3456,-0.001113,0.005964,0.023687
3457,-0.001113,-0.01211,0.023687
3458,0.017426,0.005964,0.005607
3459,-0.001113,0.005964,0.005607
3460,-0.019652,0.005964,0.005607
3461,-0.019652,0.005964,0.005607
3462,-0.019652,0.005964,-0.030552
3463,-0.001113,0.005964,-0.012473
3464,-0.001113,0.005964,-0.012473
3465,-0.019652,0.005964,-0.012473
3466,-0.019652,0.005964,-0.012473
3467,0.017426,0.005964,0.005607
3468,0.017426,0.005964,0.005607
3469,-0.001113,0.005964,0.023687
3470,-0.001113,-0.01211,0.023687
3471,-0.001113,-0.01211,0.023687
3472,-0.001113,-0.01211,0.041767
3473,-0.001113,0.005964,0.023687
3474,-0.019652,-0.01211,0.023687
3475,0.017426,0.005964,0.005607
3476,-0.001113,0.005964,0.005607
3477,-0.019652,0.005964,-0.012473
3478,-0.019652,0.005964,-0.012473
3479,-0.019652,0.024037,-0.012473
3480,-0.001113,0.024037,-0.030552
3481,-0.019652,0.005964,-0.012473
3482,-0.001113,0.024037,-0.012473
3483,-0.019652,0.024037,0.005607
3484,-0.001113,0.005964,0.005607
3485,-0.001113,0.005964,0.005607
3486,-0.001113,0.005964,-0.012473
3487,-0.019652,-0.01211,0.005607
3488,0.017426,0.005964,0.023687
3489,-0.019652,0.024037,0.023687
3490,-0.001113,0.005964,0.005607
3491,-0.001113,-0.01211,0.005607
3492,-0.019652,-0.01211,0.005607
3493,-0.001113,0.005964,-0.012473
3494,-0.019652,-0.01211,-0.012473
3495,0.017426,0.005964,-0.012473
3496,-0.019652,0.005964,-0.030552
3497,-0.019652,0.005964,0.005607
3498,-0.019652,0.005964,-0.012473
3499,-0.001113,0.005964,0.005607
3500,-0.001113,0.005964,0.023687
3501,-0.001113,0.005964,0.005607
3502,-0.019652,0.005964,0.005607
3503,-0.001113,0.005964,0.023687
3504,-0.019652,-0.01211,0.041767
3505,-0.001113,-0.01211,0.041767
3506,-0.001113,0.005964,0.023687
3507,-0.001113,0.005964,0.023687
3508,-0.019652,0.005964,0.005607
3509,-0.001113,0.005964,0.005607
3510,-0.019652,0.005964,0.005607
3511,-0.001113,0.005964,-0.012473
3512,-0.001113,0.024037,-0.012473
3513,-0.001113,-0.01211,-0.030552
3514,0.035965,0.005964,-0.012473
3515,-0.001113,0.005964,0.023687
3516,0.017426,0.005964,0.005607
3517,0.017426,0.005964,0.005607
3518,-0.001113,-0.030183,0.023687
3519,-0.001113,0.005964,0.023687
3520,0.017426,0.005964,0.023687
3521,-0.001113,-0.01211,0.023687
3522,0.017426,0.005964,0.023687
3523,-0.001113,0.005964,0.005607
3524,-0.001113,0.024037,0.005607
3525,-0.019652,0.005964,-0.012473
3526,-0.001113,0.005964,-0.012473
3527,-0.019652,0.005964,0.005607
3528,-0.001113,-0.01211,-0.030552
3529,-0.001113,0.005964,-0.030552
3530,-0.019652,0.005964,-0.030552
3531,-0.001113,0.005964,0.005607
3532,-0.001113,0.005964,0.005607
3533,-0.001113,0.005964,0.005607
3534,-0.001113,-0.01211,0.023687
3535,-0.019652,0.005964,0.023687
3536,-0.019652,0.005964,0.023687
3537,-0.001113,0.024037,0.041767
3538,0.017426,0.005964,0.023687
3539,-0.001113,0.024037,0.005607
3540,-0.001113,0.005964,0.005607
3541,-0.001113,0.005964,0.005607
3542,-0.019652,0.005964,-0.012473
3543,-0.019652,0.024037,-0.030552
3544,-0.001113,0.005964,-0.012473
3545,-0.001113,0.005964,-0.012473
3546,-0.019652,0.024037,0.005607
3547,0.017426,0.005964,0.005607
3548,-0.001113,0.005964,0.023687
3549,-0.038191,-0.01211,0.023687
3550,0.035965,0.005964,0.005607
3551,-0.019652,0.024037,0.005607
3552,-0.001113,-0.01211,0.023687
3553,-0.038191,0.005964,0.005607
3554,-0.001113,0.024037,0.023687
3555,-0.001113,0.005964,0.005607
3556,-0.001113,0.024037,0.005607
3557,-0.001113,0.024037,-0.012473
3558,0.017426,0.005964,-0.012473
3559,-0.019652,0.005964,-0.030552
3560,0.017426,-0.01211,-0.012473
3561,-0.001113,0.005964,-0.012473
3562,-0.001113,0.005964,-0.012473
3563,-0.001113,0.024037,-0.012473
3564,-0.019652,0.005964,0.023687
3565,-0.001113,0.005964,0.005607
3566,-0.001113,0.005964,0.023687
3567,-0.038191,-0.01211,0.041767
3568,-0.001113,0.024037,0.023687
3569,-0.001113,0.04211,0.023687
3570,0.017426,0.005964,0.005607
3571,-0.001113,0.005964,0.005607
3572,-0.001113,0.005964,0.005607
3573,-0.019652,0.005964,-0.012473
3574,-0.001113,-0.01211,-0.030552
3575,-0.001113,0.005964,-0.012473
3576,-0.001113,0.005964,-0.012473
3577,-0.038191,0.005964,-0.012473
3578,0.017426,-0.01211,-0.012473
3579,-0.001113,0.005964,0.005607
3580,-0.019652,0.005964,0.005607
3581,-0.019652,0.005964,0.005607
3582,-0.001113,0.005964,0.023687
3583,-0.019652,0.005964,0.023687
3584,-0.019652,-0.01211,0.023687
3585,-0.001113,0.005964,0.005607
3586,-0.001113,0.024037,0.005607
3587,-0.001113,0.005964,-0.012473
3588,-0.019652,0.005964,0.005607
3589,-0.019652,0.005964,0.005607
3590,-0.001113,0.005964,-0.012473
3591,-0.019652,0.005964,-0.012473
3592,-0.001113,0.005964,-0.012473
3593,-0.001113,0.005964,-0.012473
3594,-0.001113,0.024037,0.005607
3595,-0.019652,0.005964,0.005607
3596,-0.019652,0.005964,0.005607
3597,-0.019652,-0.01211,0.005607
3598,-0.019652,0.005964,0.023687
3599,-0.019652,0.024037,0.023687
3600,-0.001113,0.005964,0.023687
3601,0.017426,0.005964,0.005607
3602,-0.001113,0.005964,0.023687
3603,-0.001113,-0.01211,0.023687
3604,-0.001113,0.024037,0.005607
3605,0.017426,0.005964,0.005607
3606,-0.001113,0.024037,-0.012473
3607,-0.001113,-0.01211,-0.012473
3608,-0.019652,0.005964,-0.012473
3609,0.017426,0.024037,0.005607
3610,0.017426,0.005964,-0.012473
3611,-0.001113,0.005964,-0.012473
3612,-0.001113,0.024037,0.023687
3613,0.017426,-0.01211,0.023687
3614,0.017426,-0.01211,0.023687
3615,-0.001113,0.005964,0.041767
3616,-0.001113,-0.01211,0.005607
3617,-0.019652,0.005964,-0.012473
3618,-0.001113,0.005964,0.005607
3619,-0.001113,0.005964,0.005607
3620,0.035965,0.005964,-0.012473
3621,-0.001113,0.005964,-0.012473
3622,-0.001113,0.005964,-0.012473
3623,-0.001113,-0.01211,-0.012473
3624,0.017426,0.005964,-0.012473
3625,-0.038191,0.005964,-0.012473
3626,-0.001113,0.005964,0.005607
3627,-0.019652,0.005964,0.005607
3628,-0.001113,0.024037,0.023687
3629,-0.019652,0.005964,0.005607
3630,-0.001113,-0.01211,0.005607
3631,-0.019652,-0.01211,0.023687
3632,0.017426,0.005964,0.005607
3633,0.017426,0.005964,0.005607
3634,-0.001113,0.005964,0.005607
3635,-0.001113,-0.01211,-0.012473
