# Requested Sampling Rate (Hz):,1000
# Actual Sampling Rate (Hz):,1010.054
# Requested Duration (s):,5.0
# Actual Duration (s):,4.997
# REST Calibration:,832.0600347222207,831.6700347222207,832.6898611111126
# MAX Calibration:,886.0000,887.0000,888.0000
# Normalization: MVC-based  (x_norm = (x - REST) / (MAX - REST))
sample_idx,EMG1,EMG2,EMG3
0,-0.001113,0.005964,0.059847
1,-0.019652,0.005964,0.041767
2,-0.001113,0.005964,0.041767
3,-0.001113,0.005964,0.041767
4,-0.001113,-0.01211,0.005607
5,0.017426,0.005964,-0.012473
6,-0.019652,0.005964,0.005607
7,-0.001113,0.024037,-0.012473
8,-0.001113,-0.01211,-0.012473
9,-0.001113,0.005964,-0.012473
10,-0.001113,-0.01211,-0.030552
11,-0.001113,-0.01211,-0.012473
12,-0.001113,0.005964,-0.012473
13,-0.019652,0.005964,0.005607
14,-0.001113,0.024037,0.005607
15,-0.001113,0.024037,0.005607
16,-0.019652,0.024037,-0.030552
17,-0.001113,0.005964,-0.012473
18,-0.001113,0.005964,0.005607
19,-0.001113,0.005964,0.023687
20,-0.001113,0.024037,0.005607
21,-0.001113,0.024037,0.005607
22,-0.001113,-0.01211,0.023687
23,0.017426,0.005964,-0.012473
24,-0.001113,0.005964,-0.012473
25,-0.001113,0.005964,0.005607
26,-0.019652,0.005964,0.005607
27,-0.001113,0.005964,0.005607
28,0.017426,0.005964,-0.030552
29,-0.001113,0.005964,0.005607
30,-0.001113,0.005964,0.005607
31,-0.001113,0.024037,-0.030552
32,-0.001113,-0.01211,-0.012473
33,-0.001113,-0.01211,0.005607
34,0.017426,0.005964,-0.012473
35,-0.001113,0.005964,-0.012473
36,-0.001113,-0.01211,-0.012473
37,-0.001113,0.024037,0.005607
38,-0.001113,0.005964,0.005607
39,-0.019652,0.005964,0.023687
40,0.017426,0.005964,0.005607
41,-0.001113,0.024037,-0.012473
42,-0.019652,0.005964,-0.030552
43,-0.001113,0.005964,0.005607
44,-0.001113,0.024037,0.005607
45,-0.019652,0.024037,-0.030552
46,-0.019652,-0.01211,0.005607
47,-0.038191,0.005964,0.005607
48,-0.001113,0.024037,0.005607
49,-0.019652,0.005964,0.005607
50,-0.019652,0.005964,0.023687
51,-0.001113,0.024037,0.041767
52,-0.001113,0.005964,0.023687
53,-0.001113,0.024037,0.005607
54,-0.001113,-0.01211,0.023687
55,0.017426,0.024037,0.005607
56,-0.001113,0.005964,-0.012473
57,-0.001113,0.005964,0.023687
58,-0.019652,0.005964,0.005607
59,-0.001113,0.005964,-0.012473
60,-0.001113,0.024037,-0.048632
61,-0.019652,0.024037,-0.012473
62,0.017426,0.024037,-0.012473
63,-0.001113,-0.01211,-0.012473
64,-0.001113,0.005964,-0.030552
65,-0.001113,-0.01211,-0.012473
66,-0.001113,-0.01211,-0.030552
67,-0.001113,0.005964,-0.012473
68,-0.001113,0.005964,0.005607
69,0.017426,0.024037,-0.012473
70,-0.001113,-0.01211,0.005607
71,-0.019652,0.024037,0.005607
72,-0.001113,0.005964,0.005607
73,-0.001113,-0.01211,0.005607
74,-0.019652,-0.01211,0.005607
75,-0.001113,-0.01211,0.023687
76,-0.001113,0.024037,0.041767
77,-0.038191,0.024037,0.023687
78,-0.001113,0.005964,0.005607
79,-0.001113,0.024037,0.041767
80,-0.001113,0.005964,0.023687
81,-0.001113,0.024037,0.005607
82,0.017426,0.005964,0.005607
83,-0.019652,0.005964,0.005607
84,-0.001113,-0.01211,-0.012473
85,-0.019652,0.005964,-0.012473
86,-0.001113,0.005964,0.023687
87,-0.001113,0.005964,0.005607
88,0.017426,0.005964,0.005607
89,-0.001113,0.005964,0.005607
90,-0.001113,0.005964,0.023687
91,-0.001113,-0.01211,0.005607
92,-0.019652,0.005964,0.005607
93,-0.001113,0.005964,0.005607
94,-0.001113,0.005964,0.005607
95,-0.001113,0.005964,-0.030552
96,-0.001113,0.005964,-0.012473
97,-0.019652,0.005964,0.005607
98,-0.019652,0.005964,-0.030552
99,-0.001113,-0.01211,-0.012473
100,-0.001113,0.005964,-0.012473
101,-0.001113,-0.01211,-0.012473
102,0.017426,0.024037,-0.030552
103,0.017426,0.005964,0.005607
104,-0.019652,0.005964,0.005607
105,-0.001113,0.024037,-0.030552
106,-0.001113,0.005964,0.005607
107,-0.001113,0.005964,0.023687
108,-0.001113,0.005964,0.023687
109,-0.001113,0.005964,0.005607
110,-0.038191,0.005964,0.005607
111,-0.019652,0.005964,0.005607
112,0.017426,0.024037,0.005607
113,-0.019652,0.024037,-0.012473
114,-0.019652,-0.01211,0.005607
115,-0.001113,0.024037,0.005607
116,-0.001113,0.024037,0.005607
117,-0.001113,-0.030183,-0.012473
118,-0.001113,-0.01211,-0.012473
119,-0.019652,0.024037,-0.030552
120,-0.001113,0.005964,-0.012473
121,-0.001113,0.005964,0.023687
122,0.017426,0.005964,0.005607
123,-0.038191,0.005964,-0.030552
124,-0.001113,0.005964,0.023687
125,-0.001113,-0.01211,0.005607
126,-0.038191,0.024037,0.023687
127,-0.019652,0.04211,0.005607
128,-0.001113,0.024037,0.041767
129,-0.001113,0.005964,0.023687
130,-0.001113,-0.01211,-0.012473
131,-0.001113,0.024037,-0.012473
132,-0.001113,0.005964,0.005607
133,0.035965,0.005964,-0.012473
134,-0.019652,0.005964,-0.012473
135,-0.001113,0.005964,0.005607
136,-0.001113,0.005964,-0.012473
137,-0.001113,0.024037,-0.030552
138,-0.019652,0.005964,-0.012473
139,-0.019652,0.005964,0.005607
140,-0.038191,0.005964,0.023687
141,-0.019652,0.005964,-0.012473
142,-0.019652,0.005964,0.041767
143,-0.001113,0.024037,0.023687
144,-0.001113,0.005964,0.041767
145,0.017426,0.024037,0.005607
146,-0.019652,0.005964,0.023687
147,0.017426,0.024037,0.023687
148,-0.001113,-0.01211,0.005607
149,0.017426,0.024037,0.023687
150,-0.001113,-0.01211,0.005607
151,-0.001113,0.005964,-0.012473
152,-0.001113,0.005964,-0.030552
153,-0.019652,0.005964,-0.012473
154,0.017426,0.005964,-0.012473
155,-0.001113,0.005964,-0.012473
156,-0.001113,0.005964,0.005607
157,-0.019652,0.005964,0.023687
158,-0.001113,-0.01211,0.005607
159,-0.001113,0.005964,0.023687
160,0.017426,0.005964,0.005607
161,-0.001113,0.024037,0.023687
162,-0.001113,-0.01211,0.005607
163,-0.019652,0.005964,0.023687
164,-0.001113,0.024037,0.005607
165,0.091583,-0.01211,0.023687
166,-0.001113,0.005964,-0.012473
167,-0.019652,0.005964,-0.012473
168,-0.019652,-0.01211,-0.030552
169,-0.019652,0.024037,-0.030552
170,-0.019652,0.005964,-0.066712
171,-0.001113,-0.01211,-0.030552
172,-0.019652,-0.01211,-0.030552
173,0.017426,0.005964,-0.030552
174,-0.019652,0.005964,0.005607
175,-0.019652,0.005964,0.023687
176,-0.019652,0.005964,0.005607
177,-0.001113,0.005964,0.023687
178,-0.019652,0.005964,0.041767
179,0.017426,0.024037,0.023687
180,-0.001113,0.005964,0.041767
181,-0.001113,0.024037,0.041767
182,-0.001113,0.005964,0.023687
183,-0.019652,0.024037,0.005607
184,-0.001113,0.005964,-0.012473
185,0.017426,0.024037,0.005607
186,-0.001113,0.024037,-0.012473
187,-0.001113,0.024037,-0.012473
188,-0.001113,0.005964,-0.012473
189,-0.001113,0.005964,-0.030552
190,-0.001113,0.005964,-0.030552
191,-0.019652,0.005964,0.005607
192,-0.001113,-0.01211,0.023687
193,-0.001113,0.005964,-0.012473
194,-0.019652,-0.01211,0.005607
195,-0.019652,0.005964,0.023687
196,-0.001113,0.005964,0.005607
197,-0.001113,0.024037,0.005607
198,0.017426,0.005964,0.005607
199,-0.019652,0.005964,0.005607
200,-0.019652,0.005964,-0.012473
201,-0.001113,0.005964,-0.030552
202,-0.001113,0.005964,-0.030552
203,-0.001113,0.005964,0.005607
204,-0.001113,0.005964,-0.012473
205,-0.019652,0.005964,0.005607
206,-0.001113,0.005964,0.005607
207,0.017426,-0.01211,-0.012473
208,-0.001113,0.005964,0.005607
209,-0.019652,0.005964,0.005607
210,-0.001113,0.005964,0.023687
211,-0.019652,0.024037,0.005607
212,-0.019652,0.005964,0.005607
213,0.017426,-0.01211,0.023687
214,0.017426,0.024037,-0.012473
215,-0.019652,0.024037,0.023687
216,0.017426,0.005964,0.023687
217,-0.001113,0.005964,0.005607
218,-0.001113,0.005964,-0.012473
219,-0.019652,0.005964,-0.012473
220,-0.001113,0.005964,0.005607
221,-0.001113,0.005964,0.023687
222,-0.038191,0.005964,-0.012473
223,0.017426,0.005964,0.005607
224,-0.019652,0.024037,-0.012473
225,-0.001113,-0.01211,-0.012473
226,-0.001113,0.024037,0.005607
227,0.017426,0.005964,0.023687
228,-0.001113,0.024037,0.023687
229,-0.001113,0.005964,0.041767
230,-0.001113,0.024037,0.023687
231,-0.019652,0.005964,0.005607
232,0.035965,0.005964,-0.012473
233,-0.038191,0.005964,0.005607
234,-0.001113,-0.01211,0.005607
235,-0.019652,0.005964,-0.030552
236,-0.001113,0.005964,-0.030552
237,-0.001113,0.005964,-0.012473
238,-0.019652,0.005964,-0.012473
239,-0.019652,0.005964,-0.030552
240,-0.038191,0.005964,0.005607
241,-0.05673,-0.01211,0.005607
242,-0.038191,-0.01211,-0.012473
243,-0.001113,0.005964,0.005607
244,0.035965,-0.01211,0.023687
245,0.073044,0.024037,0.005607
246,0.035965,0.005964,-0.012473
247,0.035965,0.024037,0.005607
248,-0.001113,0.024037,0.023687
249,-0.001113,0.024037,0.023687
250,-0.001113,0.005964,-0.012473
251,0.017426,-0.01211,0.023687
252,-0.001113,0.005964,0.005607
253,-0.001113,0.005964,-0.012473
254,-0.001113,0.005964,-0.012473
255,0.017426,0.005964,0.005607
256,-0.019652,0.005964,-0.012473
257,-0.019652,0.005964,-0.030552
258,-0.019652,0.005964,-0.012473
259,-0.001113,0.005964,0.005607
260,-0.001113,0.005964,-0.030552
261,-0.001113,0.024037,0.005607
262,0.017426,0.04211,0.005607
263,-0.019652,0.005964,0.041767
264,-0.019652,-0.01211,0.023687
265,-0.019652,0.024037,0.023687
266,-0.001113,0.005964,0.005607
267,-0.001113,0.005964,0.005607
268,-0.001113,0.005964,0.023687
269,-0.019652,-0.01211,0.023687
270,-0.001113,0.005964,-0.012473
271,0.017426,-0.01211,0.005607
272,-0.019652,0.024037,-0.012473
273,-0.001113,0.005964,-0.012473
274,-0.001113,0.005964,-0.030552
275,0.017426,0.005964,-0.030552
276,0.017426,0.005964,0.005607
277,0.017426,0.005964,-0.030552
278,0.017426,0.005964,-0.030552
279,-0.001113,-0.01211,-0.012473
280,-0.001113,0.005964,0.005607
281,0.017426,0.005964,-0.012473
282,-0.001113,0.005964,0.005607
283,-0.019652,0.005964,0.023687
284,-0.001113,-0.01211,0.005607
285,-0.001113,-0.01211,0.005607
286,-0.001113,0.005964,0.041767
287,0.017426,0.005964,0.023687
288,-0.019652,0.024037,-0.012473
289,-0.001113,0.005964,-0.012473
290,-0.001113,0.005964,0.023687
291,-0.001113,0.024037,0.023687
292,-0.019652,0.005964,-0.012473
293,-0.001113,0.005964,0.005607
294,-0.001113,-0.01211,0.005607
295,0.017426,0.005964,-0.030552
296,-0.001113,-0.01211,0.005607
297,-0.001113,0.024037,0.023687
298,-0.001113,0.005964,0.041767
299,0.017426,0.005964,0.005607
300,-0.001113,0.024037,0.023687
301,-0.019652,0.005964,0.041767
302,-0.001113,0.005964,0.023687
303,0.017426,0.005964,0.023687
304,-0.038191,0.005964,0.041767
305,-0.038191,0.024037,0.005607
306,-0.019652,0.04211,-0.012473
307,-0.038191,0.005964,0.005607
308,-0.019652,0.005964,0.005607
309,-0.038191,0.005964,-0.012473
310,0.017426,-0.01211,-0.030552
311,0.073044,0.005964,0.005607
312,0.091583,0.005964,-0.030552
313,0.073044,0.024037,-0.012473
314,-0.001113,-0.01211,-0.012473
315,-0.001113,-0.01211,0.005607
316,-0.001113,0.005964,0.005607
317,-0.019652,0.005964,0.005607
318,-0.019652,0.005964,-0.012473
319,-0.05673,0.024037,0.005607
320,-0.019652,0.024037,0.005607
321,-0.001113,0.005964,0.023687
322,0.017426,0.005964,0.005607
323,-0.019652,0.04211,-0.030552
324,-0.001113,0.005964,-0.048632
325,-0.019652,0.005964,0.005607
326,-0.001113,0.005964,0.005607
327,-0.001113,0.005964,-0.030552
328,-0.001113,-0.01211,0.023687
329,-0.001113,0.005964,0.023687
330,-0.001113,0.005964,-0.012473
331,-0.001113,0.005964,0.023687
332,-0.001113,0.005964,0.023687
333,0.017426,0.005964,0.041767
334,-0.001113,0.024037,0.023687
335,-0.001113,0.024037,0.023687
336,-0.019652,0.005964,0.023687
337,-0.001113,-0.01211,-0.030552
338,-0.001113,0.005964,-0.012473
339,-0.001113,-0.01211,0.005607
340,-0.001113,0.024037,-0.012473
341,0.017426,0.005964,0.005607
342,-0.019652,0.005964,-0.030552
343,-0.019652,0.024037,0.005607
344,-0.001113,0.005964,0.005607
345,-0.019652,0.005964,-0.030552
346,-0.019652,0.005964,0.023687
347,-0.001113,0.024037,0.023687
348,-0.038191,0.005964,-0.012473
349,-0.001113,0.005964,0.005607
350,-0.001113,0.005964,0.023687
351,0.017426,0.005964,0.041767
352,0.017426,0.024037,0.023687
353,0.017426,0.005964,0.023687
354,0.017426,-0.01211,0.023687
355,-0.001113,-0.01211,0.005607
356,-0.001113,0.005964,0.041767
357,-0.019652,0.005964,0.023687
358,0.017426,0.024037,-0.012473
359,-0.019652,0.005964,-0.030552
360,-0.038191,0.005964,-0.030552
361,-0.019652,0.024037,0.005607
362,-0.038191,0.005964,-0.012473
363,-0.001113,0.005964,0.005607
364,0.035965,0.024037,0.023687
365,0.035965,0.024037,0.005607
366,0.017426,0.024037,0.005607
367,-0.001113,0.005964,0.005607
368,-0.019652,0.005964,0.005607
369,-0.001113,0.005964,0.005607
370,-0.001113,0.024037,0.005607
371,-0.001113,-0.030183,0.005607
372,-0.019652,0.005964,-0.012473
373,0.017426,0.005964,-0.012473
374,-0.019652,0.005964,0.023687
375,-0.019652,-0.01211,-0.012473
376,-0.019652,0.005964,-0.012473
377,-0.001113,0.005964,-0.048632
378,-0.019652,0.005964,-0.012473
379,-0.019652,-0.01211,-0.030552
380,-0.001113,0.005964,-0.030552
381,0.017426,0.024037,0.005607
382,-0.001113,0.005964,0.005607
383,-0.019652,0.005964,-0.012473
384,-0.001113,0.024037,0.005607
385,0.035965,0.005964,0.023687
386,0.035965,0.005964,0.023687
387,0.035965,0.005964,0.023687
388,-0.019652,-0.01211,0.023687
389,-0.019652,0.005964,0.005607
390,-0.001113,0.005964,-0.012473
391,-0.07527,0.024037,0.041767
392,0.035965,0.005964,0.023687
393,-0.001113,0.005964,-0.012473
394,-0.038191,0.005964,-0.012473
395,-0.038191,0.005964,0.005607
396,-0.019652,0.024037,-0.012473
397,-0.019652,0.005964,-0.030552
398,-0.019652,0.024037,0.005607
399,-0.001113,0.005964,0.023687
400,-0.001113,0.024037,-0.030552
401,0.017426,0.005964,-0.012473
402,-0.019652,-0.01211,0.005607
403,0.017426,0.005964,0.023687
404,0.054504,-0.030183,-0.012473
405,0.054504,0.024037,0.005607
406,0.054504,0.005964,0.023687
407,0.054504,0.005964,0.005607
408,0.035965,-0.01211,-0.012473
409,0.1472,0.005964,0.023687
410,0.1472,0.005964,0.005607
411,0.073044,0.005964,-0.012473
412,0.017426,0.024037,-0.030552
413,-0.019652,0.024037,0.005607
414,-0.05673,0.005964,0.005607
415,-0.05673,0.005964,-0.030552
416,-0.205043,0.024037,0.005607
417,-0.297739,-0.01211,-0.012473
418,-0.167965,-0.01211,-0.012473
419,-0.038191,0.005964,0.005607
420,0.035965,0.024037,0.023687
421,0.073044,0.005964,0.023687
422,-0.001113,0.005964,0.023687
423,-0.019652,0.005964,0.023687
424,-0.019652,0.005964,-0.012473
425,-0.038191,-0.01211,0.005607
426,-0.019652,-0.01211,0.005607
427,-0.038191,0.005964,-0.012473
428,-0.001113,0.005964,-0.012473
429,-0.019652,0.005964,-0.012473
430,-0.001113,0.005964,-0.012473
431,-0.001113,0.024037,0.005607
432,0.054504,0.04211,-0.012473
433,0.035965,0.04211,0.023687
434,0.035965,0.04211,0.023687
435,0.054504,0.024037,-0.012473
436,0.054504,0.005964,-0.012473
437,0.017426,-0.01211,-0.030552
438,-0.038191,-0.01211,0.005607
439,-0.05673,-0.01211,-0.030552
440,-0.07527,-0.01211,0.005607
441,-0.07527,-0.01211,0.023687
442,-0.038191,0.005964,0.005607
443,-0.001113,0.005964,0.005607
444,0.017426,0.024037,0.041767
445,0.017426,0.024037,0.005607
446,-0.05673,0.005964,-0.012473
447,-0.019652,-0.01211,-0.012473
448,-0.05673,0.024037,0.023687
449,0.110122,0.04211,0.005607
450,0.184278,0.04211,0.005607
451,0.128661,0.005964,0.005607
452,0.035965,0.005964,-0.012473
453,0.035965,-0.01211,-0.012473
454,0.054504,0.005964,0.023687
455,-0.019652,-0.01211,0.023687
456,-0.223583,-0.01211,0.005607
457,-0.130887,-0.01211,0.005607
458,-0.07527,-0.01211,0.005607
459,-0.07527,0.005964,0.023687
460,-0.001113,0.005964,0.005607
461,-0.001113,0.005964,0.023687
462,0.017426,0.005964,0.023687
463,0.017426,0.04211,0.005607
464,0.035965,0.04211,0.005607
465,0.035965,0.024037,-0.030552
466,-0.019652,0.024037,-0.012473
467,-0.019652,0.005964,-0.030552
468,-0.019652,0.005964,-0.012473
469,-0.038191,-0.01211,0.005607
470,-0.05673,0.005964,-0.012473
471,-0.019652,0.005964,0.005607
472,0.017426,0.024037,0.005607
473,0.035965,0.005964,0.041767
474,0.073044,0.024037,0.005607
475,0.091583,0.024037,0.005607
476,0.110122,0.024037,0.005607
477,0.128661,0.005964,-0.012473
478,-0.038191,-0.01211,0.005607
479,-0.149426,-0.01211,0.041767
480,-0.05673,0.005964,0.023687
481,-0.130887,0.005964,0.023687
482,-0.093809,0.005964,0.005607
483,-0.05673,0.060184,0.023687
484,0.017426,0.04211,0.005607
485,0.073044,0.060184,-0.030552
486,0.110122,0.04211,-0.030552
487,0.128661,0.024037,0.005607
488,0.239896,0.024037,-0.012473
489,0.239896,0.024037,-0.012473
490,0.091583,-0.01211,0.005607
491,0.017426,-0.01211,0.023687
492,-0.093809,-0.01211,-0.012473
493,-0.205043,-0.01211,0.005607
494,-0.260661,0.005964,0.005607
495,-0.260661,-0.01211,0.005607
496,-0.149426,-0.01211,0.005607
497,-0.149426,-0.030183,0.005607
498,-0.093809,-0.01211,-0.012473
499,0.017426,0.024037,0.005607
500,0.091583,0.024037,0.005607
501,0.073044,0.024037,0.005607
502,-0.001113,0.024037,0.005607
503,-0.038191,-0.01211,0.005607
504,-0.05673,-0.01211,0.005607
505,-0.093809,-0.01211,0.005607
506,-0.05673,-0.01211,0.023687
507,-0.019652,-0.030183,0.005607
508,-0.038191,-0.01211,0.041767
509,-0.05673,-0.01211,0.023687
510,-0.001113,-0.030183,0.023687
511,-0.038191,-0.048257,0.041767
512,-0.038191,-0.030183,0.005607
513,-0.038191,-0.030183,-0.012473
514,0.054504,-0.01211,0.005607
515,0.091583,0.024037,-0.030552
516,0.091583,0.060184,-0.048632
517,0.091583,0.096331,-0.048632
518,0.073044,0.060184,-0.012473
519,0.054504,0.078257,-0.012473
520,0.017426,0.04211,-0.012473
521,-0.07527,0.024037,0.041767
522,-0.019652,0.04211,0.041767
523,0.017426,0.04211,0.005607
524,-0.019652,0.024037,0.023687
525,-0.038191,0.005964,0.005607
526,-0.07527,0.04211,0.041767
527,-0.07527,0.024037,0.005607
528,-0.05673,0.04211,0.005607
529,-0.05673,-0.030183,0.023687
530,-0.093809,-0.084403,0.023687
531,0.017426,-0.06633,0.005607
532,0.276974,0.005964,0.041767
533,0.443826,-0.048257,0.005607
534,0.462365,-0.030183,-0.030552
535,0.425287,-0.048257,-0.048632
536,0.388209,0.04211,-0.030552
537,0.202817,0.024037,-0.048632
538,-0.05673,0.04211,-0.048632
539,-0.242122,0.096331,0.005607
540,-0.223583,0.114404,0.041767
541,-0.390435,0.060184,0.005607
542,-0.371896,0.005964,0.005607
543,-0.2792,-0.030183,0.023687
544,-0.242122,0.024037,0.023687
545,-0.093809,0.060184,0.041767
546,-0.001113,0.078257,0.059847
547,-0.019652,0.04211,0.041767
548,-0.001113,0.024037,-0.012473
549,0.017426,0.005964,0.023687
550,0.017426,0.005964,0.005607
551,0.054504,0.04211,0.023687
552,0.035965,0.04211,-0.030552
553,0.017426,0.005964,-0.012473
554,-0.001113,0.005964,-0.012473
555,0.017426,0.005964,-0.030552
556,-0.001113,0.005964,-0.012473
557,-0.019652,0.005964,0.023687
558,-0.07527,0.005964,-0.030552
559,-0.07527,-0.01211,-0.012473
560,-0.05673,0.005964,0.005607
561,-0.05673,-0.01211,0.005607
562,-0.001113,0.005964,-0.012473
563,0.035965,0.04211,0.023687
564,0.073044,0.024037,0.023687
565,0.054504,0.005964,0.005607
566,0.054504,0.005964,-0.012473
567,0.035965,0.005964,0.005607
568,0.091583,0.024037,0.005607
569,0.221357,0.04211,-0.012473
570,0.184278,0.005964,-0.030552
571,0.091583,0.005964,-0.012473
572,0.1472,0.005964,0.005607
573,0.035965,0.005964,0.005607
574,-0.260661,-0.01211,0.005607
575,-0.112348,-0.01211,0.005607
576,-0.07527,-0.048257,-0.012473
577,-0.093809,-0.01211,0.005607
578,-0.019652,0.005964,0.023687
579,0.054504,0.04211,0.041767
580,0.073044,0.04211,0.023687
581,0.054504,0.024037,0.023687
582,-0.05673,-0.01211,-0.012473
583,-0.07527,-0.01211,-0.012473
584,-0.186504,-0.01211,-0.030552
585,-0.149426,0.024037,0.023687
586,0.054504,0.060184,0.005607
587,0.110122,0.04211,-0.012473
588,0.073044,0.024037,-0.012473
589,0.073044,0.024037,-0.012473
590,0.073044,-0.048257,-0.012473
591,-0.07527,-0.102477,-0.012473
592,-0.186504,-0.138624,0.023687
593,-0.297739,-0.084403,-0.030552
594,-0.223583,-0.102477,0.005607
595,-0.093809,-0.01211,0.005607
596,-0.186504,0.024037,0.023687
597,-0.07527,0.078257,0.005607
598,0.035965,0.132477,0.005607
599,0.073044,0.096331,0.023687
600,0.1472,0.096331,0.005607
601,0.110122,0.096331,0.005607
602,0.128661,0.096331,0.041767
603,0.073044,0.078257,0.005607
604,0.128661,0.096331,-0.012473
605,0.073044,0.024037,-0.012473
606,-0.019652,0.024037,0.005607
607,-0.05673,0.005964,-0.012473
608,-0.07527,0.005964,0.005607
609,0.073044,0.005964,0.005607
610,0.128661,0.024037,0.005607
611,0.110122,-0.01211,-0.012473
612,0.073044,0.005964,-0.012473
613,0.054504,-0.01211,0.023687
614,-0.260661,-0.01211,0.023687
615,-0.167965,0.005964,-0.012473
616,-0.07527,0.005964,0.005607
617,-0.038191,0.005964,0.023687
618,0.017426,0.04211,0.005607
619,-0.001113,0.005964,-0.012473
620,-0.019652,-0.01211,0.023687
621,-0.038191,0.005964,0.005607
622,-0.05673,-0.030183,-0.012473
623,-0.112348,-0.048257,-0.030552
624,-0.07527,-0.048257,0.005607
625,0.054504,0.005964,0.005607
626,0.110122,-0.01211,-0.012473
627,0.165739,0.024037,-0.012473
628,0.110122,-0.01211,0.005607
629,0.017426,-0.01211,-0.012473
630,-0.05673,-0.01211,0.023687
631,0.035965,-0.12055,0.005607
632,0.110122,-0.084403,0.005607
633,0.035965,-0.048257,0.023687
634,0.1472,-0.01211,0.041767
635,0.091583,0.04211,0.023687
636,0.017426,0.096331,0.005607
637,0.054504,0.114404,0.005607
638,-0.093809,0.04211,0.005607
639,-0.242122,0.024037,0.023687
640,-0.2792,0.04211,0.023687
641,-0.093809,0.078257,0.005607
642,0.035965,0.078257,-0.012473
643,0.073044,0.04211,-0.048632
644,-0.001113,0.024037,-0.066712
645,-0.05673,-0.01211,-0.030552
646,-0.130887,-0.01211,-0.030552
647,0.073044,0.04211,-0.012473
648,0.239896,0.060184,-0.012473
649,0.314052,0.060184,0.005607
650,0.221357,0.060184,0.005607
651,0.1472,0.024037,-0.012473
652,-0.019652,-0.01211,0.005607
653,-0.446052,-0.030183,0.005607
654,-0.334817,0.024037,0.023687
655,-0.07527,0.04211,0.059847
656,0.035965,0.04211,0.041767
657,0.128661,0.005964,0.023687
658,0.165739,-0.030183,-0.012473
659,0.091583,-0.01211,0.005607
660,-0.2792,0.005964,0.005607
661,-0.297739,0.024037,0.005607
662,-0.167965,-0.030183,0.005607
663,-0.149426,-0.048257,0.005607
664,-0.05673,-0.06633,-0.012473
665,-0.019652,-0.030183,0.005607
666,0.054504,-0.030183,0.005607
667,-0.019652,-0.01211,0.005607
668,-0.001113,-0.01211,-0.012473
669,0.091583,0.024037,-0.012473
670,0.35113,0.04211,0.023687
671,0.36967,0.060184,0.041767
672,0.314052,0.096331,0.023687
673,0.1472,0.078257,0.041767
674,-0.05673,-0.01211,0.005607
675,-0.186504,0.005964,-0.012473
676,-0.2792,0.096331,-0.012473
677,-0.186504,0.060184,0.005607
678,0.110122,0.078257,0.023687
679,0.314052,0.078257,0.041767
680,0.184278,-0.01211,0.005607
681,0.128661,-0.102477,0.005607
682,0.017426,-0.084403,0.005607
683,-0.05673,0.024037,0.005607
684,0.110122,0.005964,0.023687
685,0.128661,-0.01211,0.005607
686,0.332591,-0.048257,-0.048632
687,0.165739,-0.01211,-0.030552
688,-0.371896,-0.06633,-0.012473
689,-0.594365,-0.048257,-0.030552
690,-0.186504,0.04211,0.041767
691,-0.130887,0.04211,0.041767
692,-0.167965,0.096331,0.023687
693,-0.019652,0.005964,0.023687
694,0.128661,0.024037,0.005607
695,0.073044,0.024037,0.023687
696,-0.038191,-0.030183,-0.012473
697,0.073044,-0.030183,-0.012473
698,0.017426,-0.030183,0.023687
699,-0.093809,-0.156697,-0.012473
700,-0.07527,-0.192844,-0.030552
701,-0.167965,0.024037,0.041767
702,-0.186504,0.114404,0.005607
703,0.091583,0.114404,-0.030552
704,0.555061,0.258991,0.005607
705,0.443826,0.186697,0.005607
706,0.332591,0.150551,0.005607
707,0.035965,0.078257,-0.012473
708,-0.112348,-0.01211,-0.012473
709,-0.07527,0.024037,0.023687
710,-0.019652,0.04211,-0.012473
711,-0.353356,0.024037,-0.048632
712,-0.520209,0.005964,-0.048632
713,-0.242122,-0.01211,-0.030552
714,0.035965,0.04211,-0.012473
715,0.035965,-0.048257,0.005607
716,0.091583,-0.084403,0.005607
717,0.035965,-0.084403,0.023687
718,0.017426,-0.12055,-0.012473
719,-0.001113,-0.048257,0.023687
720,-0.019652,-0.048257,-0.012473
721,-0.05673,-0.01211,0.005607
722,-0.130887,-0.01211,0.005607
723,-0.260661,0.132477,0.023687
724,-0.093809,0.240918,0.059847
725,0.258435,0.240918,0.041767
726,0.221357,0.078257,0.023687
727,0.221357,0.005964,0.005607
728,0.35113,-0.01211,0.023687
729,0.36967,-0.084403,-0.012473
730,0.221357,-0.156697,-0.012473
731,-0.149426,-0.12055,-0.030552
732,-0.167965,-0.319357,-0.012473
733,-0.05673,-0.337431,0.005607
734,-0.242122,-0.301284,0.059847
735,0.1472,-0.192844,0.023687
736,0.073044,-0.156697,-0.048632
737,-0.408974,0.078257,-0.048632
738,-0.538748,0.313211,0.005607
739,-0.019652,0.295138,0.059847
740,0.035965,0.132477,0.059847
741,0.073044,0.005964,0.023687
742,0.1472,0.04211,0.005607
743,0.314052,0.096331,0.077927
744,0.406748,0.024037,-0.012473
745,0.054504,0.186697,-0.012473
746,0.035965,0.331285,0.023687
747,0.054504,0.258991,0.096007
748,0.054504,0.168624,0.059847
749,0.5736,0.132477,0.005607
750,0.462365,0.005964,-0.048632
751,0.035965,-0.102477,-0.012473
752,-0.371896,-0.048257,0.005607
753,-0.2792,-0.17477,-0.048632
754,0.091583,0.060184,-0.030552
755,0.295513,-0.01211,0.023687
756,0.388209,-0.210917,-0.048632
757,-0.112348,-0.22899,-0.030552
758,-0.427513,0.186697,0.059847
759,-0.205043,0.258991,0.077927
760,0.035965,0.530092,0.077927
761,0.314052,0.331285,0.077927
762,0.1472,-0.22899,0.023687
763,0.073044,-0.265137,-0.048632
764,0.054504,-0.156697,-0.030552
765,-0.316278,-0.319357,-0.048632
766,-0.130887,0.078257,-0.084792
767,-0.112348,0.475872,0.005607
768,-0.390435,0.132477,0.005607
769,-0.334817,-0.030183,0.005607
770,0.017426,0.060184,0.005607
771,0.054504,0.04211,0.005607
772,-0.05673,0.005964,-0.012473
773,-0.242122,0.005964,-0.030552
774,-0.038191,0.150551,0.005607
775,0.406748,0.150551,0.059847
776,0.610678,0.060184,0.077927
777,0.35113,-0.17477,0.005607
778,-0.501669,-0.283211,-0.030552
779,-0.557287,-0.22899,0.005607
780,-0.093809,0.024037,0.059847
781,-0.001113,0.060184,0.059847
782,0.295513,0.132477,-0.012473
783,0.703374,0.349358,0.023687
784,0.703374,0.096331,-0.084792
785,0.091583,0.005964,-0.102872
786,-0.520209,-0.156697,-0.084792
787,-1.094922,-0.17477,-0.048632
788,-0.334817,-0.12055,0.023687
789,-0.038191,-0.048257,0.041767
790,-0.112348,-0.138624,0.077927
791,0.035965,-0.084403,0.041767
792,0.128661,-0.138624,0.023687
793,-0.223583,-0.265137,-0.030552
794,-0.2792,-0.084403,0.005607
795,-0.07527,0.024037,0.041767
796,0.128661,0.168624,0.041767
797,0.184278,0.114404,0.041767
798,0.295513,0.150551,0.041767
799,0.36967,0.186697,-0.012473
800,0.184278,-0.030183,-0.012473
801,0.165739,-0.01211,-0.066712
802,0.110122,0.096331,-0.066712
803,0.314052,0.114404,-0.012473
804,-0.149426,-0.138624,0.059847
805,-0.205043,-0.138624,0.023687
806,-0.130887,0.114404,0.041767
807,-0.205043,0.04211,0.041767
808,0.332591,0.04211,-0.012473
809,0.666296,0.132477,-0.102872
810,0.536522,0.313211,-0.139032
811,-0.408974,0.475872,-0.012473
812,0.406748,0.692752,0.096007
813,0.276974,0.078257,0.077927
814,-0.186504,-0.626605,0.096007
815,-0.353356,-0.753119,0.041767
816,-0.464591,-0.554311,0.041767
817,-0.427513,-0.265137,-0.012473
818,-0.260661,0.132477,0.023687
819,0.035965,0.331285,-0.012473
820,-0.353356,0.132477,0.005607
821,-0.575826,-0.17477,0.005607
822,-0.353356,-0.102477,-0.012473
823,-0.001113,0.168624,0.005607
824,0.480904,0.222844,0.059847
825,0.295513,0.04211,0.023687
826,0.073044,0.078257,-0.030552
827,0.091583,0.150551,-0.066712
828,0.128661,-0.048257,-0.048632
829,-0.112348,-0.12055,-0.012473
830,-0.019652,-0.01211,0.041767
831,0.536522,0.060184,0.041767
832,0.462365,-0.01211,-0.012473
833,0.1472,0.295138,0.023687
834,-0.242122,0.078257,0.023687
835,-0.130887,-0.048257,0.005607
836,-0.001113,-0.084403,-0.012473
837,-0.001113,-0.319357,-0.048632
838,-0.316278,-0.427798,-0.048632
839,-0.205043,-0.247064,-0.030552
840,0.314052,0.078257,-0.048632
841,0.462365,0.403578,0.023687
842,-0.001113,0.331285,0.077927
843,-0.761217,0.150551,-0.012473
844,-0.594365,0.150551,-0.030552
845,-0.297739,0.132477,0.005607
846,0.073044,-0.01211,0.059847
847,0.610678,-0.048257,0.059847
848,1.018539,0.078257,0.005607
849,-0.149426,-0.12055,-0.102872
850,-0.816835,-0.17477,-0.048632
851,-0.093809,-0.192844,0.023687
852,-0.019652,-0.247064,-0.012473
853,-0.594365,-0.156697,-0.030552
854,-0.779756,-0.01211,-0.012473
855,-0.112348,0.168624,0.041767
856,0.128661,0.168624,0.077927
857,0.017426,0.005964,0.059847
858,0.017426,0.005964,0.005607
859,0.054504,0.114404,-0.012473
860,0.110122,0.186697,-0.012473
861,0.314052,0.168624,0.041767
862,0.388209,0.114404,0.059847
863,0.276974,-0.102477,-0.012473
864,0.517983,-0.030183,0.005607
865,0.017426,-0.084403,-0.030552
866,-0.612904,-0.102477,-0.048632
867,-0.038191,0.204771,-0.012473
868,0.517983,0.222844,0.023687
869,1.0,-0.06633,0.023687
870,0.666296,-0.283211,0.023687
871,-0.427513,-0.554311,-0.012473
872,-0.631443,-0.463945,-0.048632
873,-0.186504,0.150551,0.005607
874,-0.501669,0.222844,0.059847
875,-0.520209,-0.06633,0.005607
876,-0.390435,0.150551,0.041767
877,0.035965,0.258991,0.005607
878,0.5736,0.258991,0.005607
879,0.202817,0.096331,-0.048632
880,0.480904,0.186697,-0.048632
881,0.239896,-0.01211,-0.048632
882,0.221357,-0.17477,-0.012473
883,0.406748,0.295138,0.023687
884,0.258435,0.132477,0.059847
885,-0.167965,0.060184,0.096007
886,-0.538748,0.04211,0.059847
887,-1.057843,-0.030183,-0.030552
888,-0.742678,-0.12055,0.005607
889,-0.242122,-0.138624,0.005607
890,-0.038191,0.132477,0.005607
891,0.239896,0.005964,-0.048632
892,0.35113,0.132477,-0.048632
893,-0.019652,0.295138,-0.030552
894,-0.186504,0.024037,-0.012473
895,0.239896,-0.030183,0.023687
896,0.480904,-0.17477,0.005607
897,0.184278,0.024037,0.023687
898,-0.05673,-0.01211,0.041767
899,-0.371896,-0.192844,0.023687
900,-0.464591,-0.156697,0.023687
901,0.035965,-0.192844,0.023687
902,0.406748,-0.102477,0.059847
903,0.406748,0.096331,0.023687
904,0.480904,0.024037,-0.030552
905,0.258435,0.168624,-0.084792
906,-0.408974,-0.138624,-0.066712
907,-0.353356,-0.102477,0.005607
908,-0.538748,0.096331,0.023687
909,-0.538748,0.114404,0.059847
910,-0.167965,0.005964,0.059847
911,0.462365,-0.048257,-0.012473
912,0.443826,-0.12055,-0.012473
913,-0.427513,-0.138624,-0.012473
914,-0.297739,0.150551,0.005607
915,-0.186504,0.096331,-0.030552
916,0.35113,0.060184,0.023687
917,0.758991,-0.319357,0.023687
918,0.703374,-0.391651,-0.048632
919,0.110122,-0.572385,-0.102872
920,-0.093809,0.313211,0.005607
921,-0.390435,0.963853,0.041767
922,-0.687061,0.385505,-0.030552
923,-0.223583,0.186697,0.041767
924,-0.167965,0.114404,0.041767
925,0.110122,0.078257,0.023687
926,0.332591,-0.138624,-0.012473
927,0.925843,0.024037,0.041767
928,0.870226,0.150551,-0.048632
929,0.202817,0.240918,-0.066712
930,-0.538748,-0.247064,-0.084792
931,-0.742678,-0.17477,-0.030552
932,-0.464591,0.295138,0.077927
933,-0.019652,0.060184,0.059847
934,0.221357,0.005964,0.023687
935,-0.093809,-0.138624,0.023687
936,-0.724139,-0.048257,0.023687
937,-0.112348,0.132477,0.041767
938,0.128661,0.078257,0.041767
939,0.332591,-0.22899,-0.030552
940,-0.001113,-0.156697,-0.012473
941,-0.427513,0.078257,-0.030552
942,-0.446052,-0.17477,-0.030552
943,0.017426,-0.391651,-0.012473
944,0.184278,-0.337431,0.023687
945,0.091583,-0.283211,0.005607
946,0.091583,0.240918,0.023687
947,0.073044,0.277064,-0.012473
948,-0.223583,0.150551,-0.012473
949,0.332591,0.295138,0.041767
950,0.295513,0.313211,0.023687
951,0.239896,0.078257,0.041767
952,-0.260661,-0.048257,0.023687
953,-0.390435,-0.482018,-0.030552
954,-0.130887,-0.427798,-0.012473
955,0.1472,-0.06633,0.077927
956,0.36967,-0.030183,0.023687
957,0.073044,-0.102477,-0.048632
958,-0.2792,0.457798,-0.030552
959,0.1472,0.331285,0.041767
960,0.035965,0.295138,-0.012473
961,0.073044,0.132477,-0.084792
962,-0.05673,-0.01211,-0.030552
963,0.443826,0.04211,-0.012473
964,0.314052,-0.337431,-0.066712
965,-0.446052,-0.247064,-0.030552
966,-0.631443,-0.156697,-0.048632
967,-0.149426,0.331285,0.005607
968,0.091583,0.457798,0.059847
969,0.592139,0.674679,0.132166
970,0.314052,0.204771,0.077927
971,0.202817,-0.084403,-0.012473
972,-0.093809,-0.030183,0.096007
973,-0.149426,-0.048257,0.114086
974,-0.2792,0.114404,-0.012473
975,0.073044,-0.06633,-0.120952
976,0.184278,-0.265137,-0.048632
977,0.202817,-0.192844,0.023687
978,0.221357,-0.409724,0.005607
979,0.054504,-0.355504,0.005607
980,-0.038191,0.150551,0.059847
981,-0.205043,0.024037,-0.048632
982,-0.112348,0.367431,-0.066712
983,0.1472,0.150551,-0.030552
984,-0.594365,-0.463945,0.041767
985,-0.853913,-0.662752,0.005607
986,-0.890991,-0.915779,-0.084792
987,-0.2792,-0.192844,-0.066712
988,0.443826,0.439725,0.059847
989,0.462365,0.512018,0.023687
990,0.073044,0.674679,0.023687
991,0.517983,0.439725,0.023687
992,0.851687,-0.12055,-0.066712
993,-0.297739,-0.301284,-0.102872
994,-0.742678,0.005964,0.041767
995,-0.334817,0.277064,0.059847
996,0.258435,0.114404,0.041767
997,0.517983,0.258991,0.023687
998,0.165739,0.222844,0.005607
999,-0.260661,0.04211,0.005607
1000,-0.001113,-0.048257,0.023687
1001,0.091583,0.005964,0.023687
1002,-0.112348,0.005964,0.005607
1003,-0.297739,-0.156697,-0.048632
1004,0.035965,-0.409724,-0.030552
1005,0.35113,-0.427798,0.041767
1006,0.165739,-0.22899,0.077927
1007,0.054504,0.060184,0.023687
1008,0.406748,0.421652,-0.048632
1009,0.907304,0.638532,-0.030552
1010,0.833148,0.331285,-0.030552
1011,0.499444,0.258991,0.005607
1012,-0.390435,0.078257,0.041767
1013,-0.297739,0.060184,0.041767
1014,-0.390435,0.005964,0.005607
1015,-0.446052,0.060184,0.005607
1016,-0.223583,-0.301284,0.077927
1017,-0.353356,-0.192844,0.005607
1018,0.091583,0.114404,-0.066712
1019,-0.07527,0.096331,-0.012473
1020,-0.260661,0.132477,0.005607
1021,-0.167965,0.04211,-0.012473
1022,0.054504,0.132477,-0.012473
1023,0.035965,0.060184,-0.012473
1024,0.184278,-0.17477,-0.048632
1025,-0.427513,-0.192844,0.005607
1026,-0.872452,-0.427798,0.041767
1027,-0.446052,-0.608532,0.041767
1028,-0.520209,-0.156697,0.023687
1029,-0.038191,0.493945,0.114086
1030,0.499444,-0.102477,0.023687
1031,0.592139,-0.463945,-0.048632
1032,0.388209,-0.337431,-0.048632
1033,0.5736,0.078257,0.041767
1034,0.443826,0.457798,0.041767
1035,0.165739,0.258991,0.005607
1036,-0.149426,-0.01211,-0.012473
1037,0.073044,-0.048257,-0.012473
1038,0.091583,0.132477,0.005607
1039,0.165739,0.240918,-0.084792
1040,-0.334817,0.204771,-0.066712
1041,-0.260661,0.277064,0.041767
1042,-0.093809,-0.156697,0.041767
1043,-0.242122,-0.536238,0.077927
1044,-0.130887,-0.445871,0.005607
1045,0.091583,-0.427798,-0.084792
1046,-0.019652,0.349358,-0.048632
1047,0.77753,1.271101,0.041767
1048,0.1472,0.439725,0.023687
1049,-0.316278,0.078257,-0.066712
1050,-0.371896,0.096331,-0.048632
1051,-0.260661,0.024037,0.023687
1052,0.184278,-0.030183,0.041767
1053,0.128661,0.024037,0.023687
1054,-0.464591,-0.301284,-0.012473
1055,-0.093809,-0.06633,0.059847
1056,0.091583,-0.084403,0.023687
1057,0.017426,-0.247064,-0.048632
1058,-0.001113,-0.192844,-0.012473
1059,0.314052,-0.06633,0.023687
1060,0.221357,0.204771,-0.030552
1061,0.35113,0.421652,0.005607
1062,0.647757,0.313211,-0.012473
1063,0.36967,0.204771,0.023687
1064,-0.07527,0.150551,-0.012473
1065,-0.334817,-0.17477,0.059847
1066,-0.353356,-0.048257,0.096007
1067,-0.427513,-0.210917,0.023687
1068,-0.149426,-0.319357,-0.048632
1069,-0.334817,-0.138624,-0.030552
1070,0.054504,0.132477,0.005607
1071,0.314052,0.367431,0.023687
1072,0.314052,0.168624,-0.048632
1073,-0.167965,-0.138624,-0.066712
1074,-0.390435,-0.463945,-0.048632
1075,-0.167965,-0.445871,-0.012473
1076,-0.371896,-0.463945,-0.012473
1077,-0.2792,0.168624,0.041767
1078,-0.038191,-0.030183,0.077927
1079,-0.223583,-0.12055,0.005607
1080,-0.223583,-0.048257,-0.048632
1081,-0.038191,-0.01211,-0.066712
1082,0.406748,0.602385,0.023687
1083,0.666296,0.421652,0.023687
1084,0.36967,0.349358,0.041767
1085,0.128661,0.096331,0.005607
1086,0.091583,0.240918,0.059847
1087,-0.242122,0.060184,0.005607
1088,-0.371896,-0.084403,-0.012473
1089,-0.07527,-0.247064,-0.012473
1090,0.276974,0.277064,0.059847
1091,0.499444,0.168624,0.077927
1092,0.388209,-0.102477,-0.030552
1093,0.202817,-0.030183,-0.012473
1094,-0.2792,-0.048257,0.005607
1095,-0.371896,-0.12055,0.005607
1096,0.054504,-0.247064,-0.012473
1097,-0.112348,-0.265137,-0.012473
1098,-0.186504,-0.192844,0.005607
1099,0.1472,-0.102477,-0.030552
1100,-0.112348,-0.084403,-0.048632
1101,-0.2792,0.005964,0.023687
1102,-0.538748,-0.030183,0.059847
1103,-0.390435,-0.247064,0.023687
1104,0.128661,0.04211,0.005607
1105,0.592139,0.439725,-0.012473
1106,0.314052,-0.102477,-0.012473
1107,0.314052,0.078257,-0.012473
1108,0.555061,-0.01211,0.041767
1109,-0.2792,-0.12055,0.023687
1110,-0.816835,-0.084403,-0.030552
1111,-0.724139,-0.06633,-0.030552
1112,-0.427513,-0.156697,-0.012473
1113,0.314052,0.186697,-0.012473
1114,0.555061,0.114404,-0.030552
1115,0.073044,-0.048257,-0.048632
1116,-0.446052,-0.12055,-0.048632
1117,0.128661,0.096331,0.005607
1118,0.79607,0.295138,0.059847
1119,0.944383,0.457798,0.096007
1120,-0.05673,0.186697,0.041767
1121,-0.427513,-0.030183,0.023687
1122,-0.408974,0.114404,0.041767
1123,-0.371896,0.04211,-0.012473
1124,-0.316278,-0.337431,-0.048632
1125,-0.334817,-0.463945,-0.012473
1126,0.035965,-0.192844,0.059847
1127,0.276974,0.168624,0.041767
1128,0.406748,0.584312,0.005607
1129,0.35113,0.277064,0.005607
1130,0.202817,0.096331,-0.084792
1131,0.054504,-0.030183,-0.030552
1132,-0.001113,-0.084403,0.005607
1133,-0.186504,-0.355504,0.023687
1134,-0.149426,-0.17477,0.023687
1135,-0.093809,-0.391651,-0.066712
1136,0.1472,0.150551,-0.048632
1137,0.054504,0.403578,0.005607
1138,-0.186504,0.168624,0.041767
1139,0.128661,0.060184,0.059847
1140,0.610678,0.150551,0.059847
1141,0.684835,0.403578,0.059847
1142,0.184278,0.331285,-0.048632
1143,-0.557287,0.005964,-0.030552
1144,-0.779756,-0.283211,-0.048632
1145,-0.316278,-0.210917,-0.066712
1146,-0.205043,-0.06633,-0.012473
1147,0.221357,-0.030183,0.023687
1148,0.536522,0.04211,-0.012473
1149,0.388209,-0.156697,-0.030552
1150,-0.260661,-0.500091,0.005607
1151,-0.649983,-0.554311,0.041767
1152,-0.130887,-0.06633,-0.066712
1153,0.110122,0.674679,-0.012473
1154,-0.05673,0.674679,0.059847
1155,-0.038191,0.204771,0.059847
1156,-0.05673,-0.355504,0.023687
1157,-0.07527,-0.644678,-0.012473
1158,-0.07527,-0.156697,0.005607
1159,-0.427513,0.04211,-0.030552
1160,-0.112348,0.457798,0.023687
1161,0.258435,0.475872,0.096007
1162,0.184278,0.168624,0.059847
1163,0.165739,0.005964,0.023687
1164,0.202817,0.150551,0.005607
1165,0.1472,-0.01211,0.041767
1166,0.073044,-0.283211,0.059847
1167,0.1472,-0.427798,0.077927
1168,0.202817,-0.409724,0.023687
1169,-0.464591,-0.518165,-0.012473
1170,-0.7056,-0.138624,-0.048632
1171,-0.130887,0.277064,-0.030552
1172,0.1472,0.295138,-0.030552
1173,0.721913,0.222844,-0.030552
1174,0.79607,-0.01211,0.005607
1175,-0.07527,-0.301284,-0.012473
1176,-0.742678,-0.084403,-0.012473
1177,-0.149426,-0.030183,-0.048632
1178,-0.001113,0.367431,0.005607
1179,-0.001113,0.403578,0.041767
1180,0.165739,0.331285,0.077927
1181,-0.001113,0.096331,0.023687
1182,0.017426,0.240918,0.041767
1183,0.128661,0.204771,-0.012473
1184,0.258435,-0.01211,-0.066712
1185,-0.297739,-0.06633,-0.030552
1186,-0.390435,-0.17477,0.023687
1187,-0.112348,-0.355504,-0.066712
1188,0.035965,0.060184,-0.030552
1189,-0.038191,0.168624,0.041767
1190,-0.001113,-0.12055,0.023687
1191,0.443826,0.005964,0.005607
1192,0.258435,-0.102477,0.005607
1193,-0.130887,-0.01211,0.041767
1194,-0.334817,-0.030183,0.023687
1195,-0.038191,-0.156697,0.005607
1196,-0.242122,0.277064,0.023687
1197,-0.242122,0.349358,-0.030552
1198,-0.223583,0.078257,-0.012473
1199,-0.112348,-0.247064,-0.012473
1200,0.091583,-0.427798,-0.030552
1201,0.276974,-0.463945,-0.084792
1202,0.981461,0.024037,-0.102872
1203,0.480904,0.168624,-0.012473
1204,0.517983,0.439725,0.041767
1205,-0.07527,0.331285,0.023687
1206,-0.446052,0.295138,0.059847
1207,-0.520209,0.240918,0.059847
1208,-0.464591,-0.12055,0.059847
1209,-0.371896,-0.283211,0.041767
1210,-0.242122,-0.355504,0.041767
1211,0.165739,0.04211,0.041767
1212,0.684835,0.439725,0.005607
1213,0.647757,0.222844,-0.030552
1214,0.221357,0.096331,0.041767
1215,-0.167965,-0.06633,-0.066712
1216,-0.390435,0.005964,-0.084792
1217,-0.334817,-0.048257,-0.048632
1218,-0.334817,-0.247064,-0.030552
1219,-0.130887,-0.102477,0.005607
1220,-0.001113,-0.084403,0.005607
1221,0.017426,0.005964,0.005607
1222,-0.130887,-0.192844,0.005607
1223,0.276974,0.060184,0.005607
1224,0.388209,0.060184,0.005607
1225,-0.038191,-0.06633,-0.030552
1226,-0.390435,-0.030183,0.041767
1227,0.110122,0.132477,0.023687
1228,0.1472,0.150551,0.077927
1229,0.184278,0.168624,0.077927
1230,0.35113,0.024037,0.023687
1231,0.1472,-0.156697,0.041767
1232,-0.2792,-0.626605,0.023687
1233,-1.057843,-0.771192,0.023687
1234,-0.390435,-0.301284,0.059847
1235,0.740452,0.222844,-0.012473
1236,1.129774,1.05422,-0.030552
1237,0.5736,0.692752,-0.139032
1238,0.314052,0.258991,-0.120952
1239,-0.798296,-0.01211,-0.084792
1240,-0.501669,-0.102477,-0.012473
1241,-0.334817,-0.102477,0.041767
1242,-0.223583,0.024037,0.041767
1243,-0.149426,0.024037,0.041767
1244,-0.07527,0.186697,0.041767
1245,-0.05673,0.060184,0.041767
1246,0.091583,-0.06633,0.023687
1247,0.091583,-0.138624,-0.012473
1248,0.073044,-0.048257,-0.030552
1249,-0.093809,0.096331,0.096007
1250,-0.038191,0.04211,0.077927
1251,0.110122,-0.22899,0.023687
1252,0.128661,-0.427798,0.005607
1253,-0.112348,-0.084403,0.041767
1254,-0.408974,0.04211,0.005607
1255,0.035965,0.060184,-0.012473
1256,0.36967,0.114404,-0.012473
1257,0.221357,0.186697,0.005607
1258,0.276974,0.186697,-0.012473
1259,0.110122,-0.084403,-0.048632
1260,-0.242122,0.150551,0.005607
1261,-0.575826,0.349358,0.023687
1262,-0.07527,0.114404,-0.048632
1263,0.276974,-0.192844,-0.030552
1264,0.110122,-0.391651,0.005607
1265,-0.112348,-0.265137,0.005607
1266,-0.093809,-0.192844,0.023687
1267,0.629217,0.132477,0.023687
1268,1.259548,0.331285,-0.030552
1269,0.480904,0.060184,-0.084792
1270,-0.149426,-0.210917,-0.066712
1271,-0.316278,-0.22899,-0.012473
1272,-0.390435,-0.12055,-0.012473
1273,-0.2792,0.313211,0.041767
1274,-0.520209,0.349358,0.077927
1275,-0.557287,-0.102477,0.041767
1276,-0.464591,-0.301284,0.005607
1277,-0.408974,-0.355504,0.005607
1278,-0.242122,-0.030183,0.041767
1279,0.035965,0.258991,0.023687
1280,0.110122,0.385505,-0.030552
1281,0.202817,0.204771,-0.030552
1282,0.981461,0.240918,0.041767
1283,1.111235,0.150551,0.023687
1284,0.073044,-0.265137,-0.012473
1285,-0.983687,-0.283211,0.041767
1286,-0.149426,-0.192844,0.041767
1287,0.035965,-0.048257,-0.012473
1288,-0.019652,-0.355504,-0.066712
1289,-0.390435,-0.06633,-0.030552
1290,-0.353356,0.277064,0.041767
1291,0.017426,0.331285,0.041767
1292,0.314052,0.132477,-0.030552
1293,0.314052,-0.192844,-0.048632
1294,0.128661,-0.06633,-0.048632
1295,0.073044,0.204771,-0.012473
1296,-0.390435,0.295138,-0.012473
1297,-0.446052,0.168624,-0.012473
1298,-0.07527,-0.156697,0.005607
1299,-0.05673,-0.572385,0.005607
1300,0.276974,-0.192844,0.041767
1301,0.406748,0.367431,0.059847
1302,0.480904,0.566239,0.059847
1303,0.258435,0.096331,0.005607
1304,0.425287,-0.138624,-0.030552
1305,0.332591,-0.138624,-0.048632
1306,-0.07527,-0.138624,-0.030552
1307,-0.464591,-0.048257,-0.048632
1308,-0.390435,0.204771,-0.012473
1309,-0.390435,0.258991,0.005607
1310,-0.2792,0.096331,0.041767
1311,-0.371896,-0.01211,0.041767
1312,-0.297739,0.005964,0.005607
1313,-0.149426,0.04211,-0.012473
1314,-0.019652,-0.06633,-0.030552
1315,0.035965,-0.084403,-0.030552
1316,0.462365,0.005964,0.041767
1317,0.870226,-0.102477,0.041767
1318,0.314052,-0.445871,-0.048632
1319,-0.316278,-0.482018,-0.066712
1320,-0.631443,-0.301284,0.005607
1321,-0.371896,0.186697,-0.030552
1322,-0.186504,0.024037,-0.030552
1323,-0.019652,0.186697,-0.030552
1324,0.073044,0.313211,0.023687
1325,-0.186504,0.078257,0.023687
1326,-0.334817,0.168624,0.041767
1327,-0.038191,-0.084403,-0.048632
1328,0.054504,-0.355504,-0.048632
1329,0.592139,-0.12055,-0.030552
1330,0.258435,0.005964,-0.030552
1331,0.35113,0.078257,-0.012473
1332,0.239896,0.421652,0.041767
1333,0.425287,0.620459,0.114086
1334,0.406748,0.078257,0.059847
1335,-0.242122,0.060184,0.041767
1336,-0.427513,0.005964,0.041767
1337,-0.408974,-0.030183,0.023687
1338,-0.205043,-0.138624,0.005607
1339,-0.149426,-0.12055,0.023687
1340,-0.242122,-0.156697,0.005607
1341,-0.316278,-0.084403,0.023687
1342,-0.297739,-0.12055,-0.048632
1343,-0.05673,0.277064,0.005607
1344,0.184278,0.222844,0.041767
1345,0.332591,0.060184,0.041767
1346,0.239896,0.060184,0.005607
1347,0.388209,0.204771,-0.012473
1348,0.091583,0.114404,-0.030552
1349,-0.05673,-0.030183,-0.030552
1350,-0.093809,-0.048257,-0.030552
1351,-0.07527,-0.06633,-0.048632
1352,0.017426,-0.030183,-0.030552
1353,0.110122,-0.12055,-0.048632
1354,-0.149426,-0.192844,-0.030552
1355,0.1472,-0.22899,-0.030552
1356,0.314052,-0.138624,0.041767
1357,0.1472,-0.01211,0.005607
1358,-0.05673,0.005964,0.005607
1359,-0.260661,0.078257,0.077927
1360,-0.019652,-0.030183,0.041767
1361,-0.390435,-0.12055,-0.030552
1362,-0.316278,-0.12055,-0.030552
1363,0.110122,-0.12055,-0.012473
1364,-0.093809,-0.337431,-0.012473
1365,-0.242122,0.258991,0.023687
1366,0.054504,0.367431,0.005607
1367,0.388209,0.222844,0.005607
1368,0.295513,0.060184,-0.048632
1369,0.36967,0.024037,-0.048632
1370,-0.093809,-0.156697,-0.012473
1371,-0.167965,-0.22899,0.005607
1372,-0.316278,0.024037,-0.048632
1373,-0.242122,0.295138,0.005607
1374,0.091583,0.313211,0.059847
1375,0.202817,-0.030183,0.041767
1376,0.035965,-0.283211,0.005607
1377,-0.260661,-0.06633,0.041767
1378,0.128661,0.04211,0.041767
1379,0.054504,0.078257,-0.012473
1380,-0.05673,0.150551,-0.012473
1381,-0.05673,0.060184,0.041767
1382,-0.07527,0.060184,0.023687
1383,-0.07527,-0.102477,-0.030552
1384,-0.093809,-0.22899,-0.030552
1385,-0.001113,-0.192844,-0.030552
1386,0.110122,-0.102477,-0.012473
1387,0.128661,-0.01211,0.005607
1388,0.054504,-0.156697,0.023687
1389,0.110122,0.096331,0.041767
1390,0.128661,0.258991,-0.012473
1391,0.128661,0.240918,0.005607
1392,-0.316278,0.04211,-0.012473
1393,-0.316278,0.024037,-0.048632
1394,-0.019652,0.060184,0.023687
1395,0.073044,0.04211,0.023687
1396,-0.001113,0.04211,0.005607
1397,-0.001113,0.005964,-0.012473
1398,0.054504,0.005964,-0.030552
1399,-0.019652,0.005964,-0.012473
1400,-0.112348,-0.030183,-0.012473
1401,-0.112348,-0.030183,-0.030552
1402,0.017426,-0.102477,0.005607
1403,0.091583,-0.138624,-0.030552
1404,0.035965,-0.102477,-0.012473
1405,-0.05673,0.150551,-0.012473
1406,-0.019652,0.150551,0.023687
1407,-0.001113,0.060184,0.005607
1408,0.035965,-0.01211,0.005607
1409,-0.019652,-0.01211,0.023687
1410,0.017426,-0.084403,0.023687
1411,-0.019652,-0.138624,0.005607
1412,-0.07527,-0.12055,0.005607
1413,-0.05673,0.005964,-0.012473
1414,0.165739,0.222844,0.023687
1415,0.258435,0.078257,0.023687
1416,0.314052,0.024037,0.023687
1417,0.184278,-0.048257,0.005607
1418,-0.05673,-0.01211,0.005607
1419,-0.353356,-0.01211,0.005607
1420,-0.167965,0.005964,0.005607
1421,0.110122,0.024037,0.005607
1422,0.184278,0.060184,-0.012473
1423,-0.07527,-0.01211,-0.030552
1424,-0.223583,0.005964,0.005607
1425,0.110122,0.024037,-0.012473
1426,0.091583,0.005964,0.023687
1427,-0.167965,0.024037,0.059847
1428,-0.130887,-0.01211,0.023687
1429,-0.019652,-0.030183,0.005607
1430,-0.001113,0.024037,0.005607
1431,0.035965,0.024037,-0.012473
1432,-0.019652,0.005964,-0.030552
1433,-0.019652,-0.01211,-0.030552
1434,-0.038191,-0.048257,0.005607
1435,-0.038191,-0.084403,-0.012473
1436,-0.019652,-0.138624,-0.030552
1437,-0.001113,-0.048257,-0.012473
1438,0.017426,0.04211,0.005607
1439,-0.05673,-0.06633,-0.030552
1440,-0.07527,0.096331,0.005607
1441,-0.112348,0.060184,0.023687
1442,-0.093809,0.060184,0.041767
1443,-0.001113,0.04211,-0.030552
1444,0.035965,-0.01211,0.023687
1445,0.035965,-0.01211,0.023687
1446,0.110122,0.024037,0.005607
1447,0.091583,0.060184,0.005607
1448,0.091583,0.078257,0.005607
1449,0.017426,0.04211,-0.030552
1450,-0.001113,0.060184,-0.012473
1451,-0.019652,-0.01211,-0.012473
1452,-0.001113,0.024037,-0.030552
1453,0.035965,0.024037,-0.048632
1454,0.017426,-0.01211,-0.030552
1455,-0.019652,-0.01211,0.005607
1456,-0.001113,0.005964,-0.012473
1457,-0.001113,0.005964,-0.012473
1458,-0.019652,0.005964,0.023687
1459,-0.038191,0.005964,0.041767
1460,-0.019652,0.005964,0.023687
1461,-0.001113,-0.01211,0.041767
1462,-0.001113,-0.01211,0.059847
1463,0.110122,-0.06633,0.041767
1464,0.128661,-0.048257,0.005607
1465,0.073044,-0.048257,0.005607
1466,-0.186504,-0.048257,0.023687
1467,-0.093809,0.150551,0.005607
1468,0.073044,0.096331,-0.012473
1469,-0.001113,0.04211,0.005607
1470,-0.05673,0.04211,0.005607
1471,-0.001113,0.04211,-0.012473
1472,0.017426,0.024037,-0.030552
1473,-0.019652,0.005964,-0.012473
1474,-0.001113,-0.030183,-0.048632
1475,-0.001113,-0.030183,-0.048632
1476,-0.001113,0.005964,-0.012473
1477,-0.001113,0.005964,0.005607
1478,-0.001113,-0.01211,-0.012473
1479,-0.019652,-0.01211,0.023687
1480,0.017426,-0.01211,0.005607
1481,-0.001113,-0.01211,0.005607
1482,0.017426,-0.030183,0.005607
1483,-0.038191,0.005964,0.005607
1484,-0.001113,0.005964,0.023687
1485,-0.001113,-0.01211,0.005607
1486,-0.001113,-0.030183,0.005607
1487,-0.019652,0.005964,0.023687
1488,-0.001113,-0.01211,0.005607
1489,-0.001113,-0.030183,-0.030552
1490,-0.019652,-0.01211,-0.066712
1491,-0.001113,0.024037,-0.048632
1492,-0.019652,0.005964,-0.030552
1493,-0.001113,-0.01211,-0.048632
1494,-0.001113,-0.01211,-0.030552
1495,-0.001113,0.024037,-0.012473
1496,-0.001113,-0.01211,0.005607
1497,-0.019652,0.005964,0.023687
1498,-0.001113,0.024037,0.023687
1499,-0.001113,0.005964,0.041767
1500,-0.001113,0.024037,0.059847
1501,0.017426,-0.01211,0.041767
1502,-0.019652,0.005964,0.023687
1503,-0.019652,0.005964,0.005607
1504,-0.001113,0.005964,0.059847
1505,-0.001113,0.005964,0.023687
1506,-0.001113,0.024037,0.005607
1507,0.017426,0.005964,-0.012473
1508,-0.019652,0.005964,0.005607
1509,-0.001113,-0.01211,0.005607
1510,-0.001113,-0.01211,-0.012473
1511,-0.001113,0.024037,-0.012473
1512,-0.001113,0.024037,0.005607
1513,-0.001113,-0.01211,-0.030552
1514,-0.001113,0.005964,0.005607
1515,0.017426,0.005964,0.041767
1516,-0.001113,-0.01211,0.041767
1517,-0.001113,0.005964,0.005607
1518,-0.001113,0.005964,0.023687
1519,-0.001113,0.005964,0.023687
1520,-0.001113,0.005964,0.005607
1521,-0.001113,0.024037,-0.012473
1522,0.017426,0.005964,0.005607
1523,-0.001113,0.005964,-0.012473
1524,-0.019652,-0.01211,-0.012473
1525,-0.001113,-0.030183,-0.066712
1526,-0.001113,-0.01211,-0.030552
1527,-0.001113,-0.030183,-0.012473
1528,-0.001113,0.005964,-0.030552
1529,-0.001113,0.005964,0.005607
1530,-0.019652,0.024037,0.005607
1531,-0.038191,0.005964,-0.012473
1532,-0.001113,0.005964,0.005607
1533,-0.019652,0.005964,0.023687
1534,0.035965,0.024037,0.041767
1535,0.035965,0.024037,0.023687
1536,0.017426,0.005964,0.005607
1537,0.017426,0.024037,0.041767
1538,-0.019652,0.005964,0.023687
1539,-0.001113,0.005964,0.005607
1540,-0.019652,0.005964,0.041767
1541,0.017426,-0.01211,0.023687
1542,-0.019652,-0.01211,-0.012473
1543,-0.001113,0.024037,-0.012473
1544,-0.001113,-0.01211,0.005607
1545,0.017426,0.005964,-0.012473
1546,-0.001113,0.024037,-0.012473
1547,-0.001113,0.005964,0.023687
1548,-0.019652,-0.01211,0.005607
1549,0.017426,0.024037,-0.030552
1550,0.017426,0.005964,0.005607
1551,-0.019652,0.005964,-0.012473
1552,0.017426,0.005964,0.005607
1553,-0.019652,0.005964,0.005607
1554,-0.001113,-0.01211,-0.012473
1555,-0.001113,0.005964,0.005607
1556,0.017426,0.005964,0.005607
1557,0.017426,-0.01211,-0.012473
1558,-0.001113,0.005964,0.023687
1559,-0.001113,-0.01211,0.005607
1560,-0.001113,0.005964,0.005607
1561,0.017426,0.005964,0.041767
1562,-0.001113,0.005964,0.023687
1563,0.017426,-0.01211,-0.012473
1564,-0.001113,0.005964,-0.012473
1565,-0.001113,0.005964,0.005607
1566,0.017426,0.005964,0.005607
1567,-0.001113,0.024037,-0.030552
1568,0.017426,0.024037,0.023687
1569,0.017426,0.005964,0.023687
1570,-0.001113,0.024037,0.023687
1571,-0.001113,0.024037,0.023687
1572,0.017426,-0.01211,0.041767
1573,-0.001113,0.024037,0.059847
1574,-0.001113,0.005964,0.023687
1575,-0.001113,0.005964,0.023687
1576,-0.001113,0.005964,0.005607
1577,-0.001113,-0.01211,0.005607
1578,-0.001113,0.005964,-0.012473
1579,-0.001113,0.005964,0.005607
1580,-0.001113,-0.01211,0.005607
1581,0.017426,0.005964,-0.030552
1582,0.017426,0.024037,-0.066712
1583,-0.001113,-0.01211,0.005607
1584,-0.001113,-0.01211,-0.030552
1585,-0.001113,0.024037,0.005607
1586,-0.001113,0.024037,0.023687
1587,0.017426,0.005964,0.023687
1588,-0.019652,0.024037,0.005607
1589,-0.001113,0.005964,0.023687
1590,-0.019652,0.005964,0.005607
1591,0.017426,0.005964,0.041767
1592,-0.001113,-0.01211,0.023687
1593,0.017426,0.005964,0.041767
1594,-0.001113,0.005964,0.023687
1595,-0.001113,0.005964,0.005607
1596,-0.001113,0.024037,-0.012473
1597,0.017426,0.024037,0.005607
1598,0.017426,0.005964,0.005607
1599,-0.001113,0.005964,0.005607
1600,-0.001113,-0.01211,-0.012473
1601,-0.001113,0.005964,-0.012473
1602,-0.001113,-0.01211,-0.012473
1603,-0.001113,0.005964,-0.012473
1604,-0.001113,-0.01211,-0.012473
1605,-0.001113,-0.01211,-0.012473
1606,-0.001113,-0.01211,-0.012473
1607,-0.019652,0.005964,0.005607
1608,-0.001113,0.005964,0.005607
1609,-0.001113,0.024037,0.005607
1610,0.017426,0.024037,0.005607
1611,-0.001113,-0.01211,0.005607
1612,-0.019652,-0.01211,-0.012473
1613,-0.001113,-0.01211,-0.012473
1614,0.017426,0.024037,0.023687
1615,-0.001113,0.005964,0.005607
1616,0.017426,0.005964,-0.012473
1617,-0.001113,-0.01211,-0.030552
1618,-0.001113,0.005964,0.005607
1619,-0.001113,0.005964,0.005607
1620,-0.001113,-0.01211,-0.030552
1621,0.035965,0.005964,0.005607
1622,-0.001113,0.005964,0.023687
1623,-0.001113,-0.01211,-0.048632
1624,-0.001113,0.005964,0.005607
1625,0.017426,0.024037,0.005607
1626,0.035965,0.005964,0.023687
1627,0.017426,0.005964,0.005607
1628,0.017426,-0.01211,0.023687
1629,-0.001113,0.005964,0.041767
1630,-0.001113,-0.01211,-0.012473
1631,-0.001113,-0.01211,-0.012473
1632,-0.001113,0.024037,0.005607
1633,0.035965,-0.01211,-0.012473
1634,-0.001113,-0.01211,-0.012473
1635,-0.001113,-0.01211,-0.030552
1636,-0.001113,0.005964,-0.012473
1637,-0.001113,0.005964,-0.030552
1638,0.017426,-0.01211,-0.012473
1639,0.017426,0.005964,0.005607
1640,0.035965,0.005964,0.041767
1641,0.017426,0.024037,0.023687
1642,-0.001113,0.024037,0.023687
1643,0.017426,0.024037,0.023687
1644,0.017426,0.005964,0.005607
1645,-0.001113,-0.01211,-0.030552
1646,-0.001113,0.005964,0.041767
1647,-0.001113,0.005964,0.041767
1648,-0.001113,0.005964,0.005607
1649,-0.001113,0.005964,0.005607
1650,-0.019652,-0.01211,0.041767
1651,-0.001113,0.005964,0.005607
1652,-0.001113,0.005964,-0.030552
1653,-0.001113,-0.01211,-0.030552
1654,0.017426,0.005964,-0.012473
1655,-0.019652,-0.01211,-0.012473
1656,-0.001113,0.005964,-0.030552
1657,-0.001113,-0.030183,-0.030552
1658,-0.001113,-0.01211,-0.030552
1659,-0.001113,-0.01211,-0.012473
1660,-0.019652,0.005964,-0.012473
1661,-0.001113,0.024037,0.005607
1662,-0.001113,0.024037,0.041767
1663,0.017426,0.005964,0.023687
1664,-0.001113,0.005964,0.023687
1665,-0.001113,0.005964,0.023687
1666,-0.001113,0.005964,0.005607
1667,-0.001113,0.005964,0.023687
1668,0.017426,0.005964,0.023687
1669,-0.001113,0.005964,0.023687
1670,0.017426,0.005964,0.005607
1671,0.017426,0.005964,0.023687
1672,-0.001113,0.024037,0.005607
1673,-0.001113,-0.01211,-0.012473
1674,-0.001113,0.005964,-0.030552
1675,-0.001113,0.005964,-0.012473
1676,-0.001113,0.005964,-0.066712
1677,-0.001113,0.005964,-0.030552
1678,-0.001113,0.005964,-0.030552
1679,-0.001113,-0.030183,0.023687
1680,0.017426,0.005964,0.005607
1681,-0.019652,0.024037,0.023687
1682,0.035965,-0.01211,0.041767
1683,-0.019652,-0.01211,0.041767
1684,0.017426,0.005964,0.005607
1685,-0.001113,0.005964,0.041767
1686,-0.001113,0.005964,0.023687
1687,-0.019652,0.005964,0.005607
1688,0.017426,0.005964,0.005607
1689,-0.001113,0.005964,0.041767
1690,0.017426,0.024037,0.005607
1691,-0.001113,0.024037,0.023687
1692,0.017426,0.024037,0.023687
1693,-0.019652,0.005964,-0.012473
1694,-0.001113,0.005964,-0.012473
1695,-0.019652,0.005964,-0.012473
1696,0.017426,0.024037,0.005607
1697,-0.001113,-0.01211,0.023687
1698,-0.001113,-0.01211,0.023687
1699,-0.001113,-0.01211,0.023687
1700,-0.001113,0.005964,0.005607
1701,0.017426,0.005964,0.005607
1702,-0.001113,-0.01211,0.005607
1703,0.017426,0.005964,0.005607
1704,-0.001113,0.005964,0.005607
1705,-0.001113,-0.030183,-0.012473
1706,-0.001113,0.024037,-0.048632
1707,0.017426,0.005964,-0.030552
1708,-0.001113,0.005964,-0.012473
1709,-0.001113,-0.01211,0.005607
1710,-0.019652,-0.01211,0.005607
1711,-0.001113,-0.01211,-0.012473
1712,0.017426,0.005964,0.023687
1713,-0.001113,0.005964,0.005607
1714,-0.001113,-0.01211,0.023687
1715,-0.001113,0.024037,-0.012473
1716,-0.001113,0.005964,0.005607
1717,-0.001113,-0.01211,0.005607
1718,-0.019652,-0.01211,-0.012473
1719,0.017426,0.005964,-0.012473
1720,-0.019652,0.005964,0.005607
1721,-0.001113,0.005964,-0.012473
1722,-0.001113,0.005964,-0.012473
1723,-0.019652,0.005964,-0.012473
1724,-0.001113,0.024037,-0.012473
1725,-0.001113,-0.01211,-0.012473
1726,-0.001113,0.005964,0.005607
1727,-0.001113,0.005964,-0.012473
1728,0.017426,0.005964,0.023687
1729,-0.001113,0.024037,-0.030552
1730,-0.001113,-0.01211,-0.030552
1731,-0.001113,0.005964,0.005607
1732,-0.001113,-0.01211,0.005607
1733,0.017426,-0.01211,-0.012473
1734,-0.001113,-0.01211,0.023687
1735,-0.001113,0.005964,0.041767
1736,-0.001113,0.005964,0.005607
1737,-0.001113,0.024037,0.023687
1738,-0.019652,0.005964,0.023687
1739,-0.001113,-0.01211,0.023687
1740,-0.001113,-0.01211,-0.012473
1741,-0.001113,0.005964,-0.030552
1742,-0.001113,0.005964,-0.030552
1743,-0.001113,0.005964,-0.012473
1744,-0.001113,-0.01211,0.005607
1745,0.017426,-0.01211,0.005607
1746,-0.001113,0.005964,-0.030552
1747,-0.001113,-0.01211,-0.030552
1748,0.017426,-0.01211,-0.012473
1749,-0.001113,0.005964,0.023687
1750,-0.001113,0.024037,0.041767
1751,0.035965,0.024037,0.041767
1752,-0.001113,0.024037,0.023687
1753,0.017426,0.04211,0.041767
1754,-0.001113,0.005964,0.005607
1755,0.017426,-0.01211,0.023687
1756,-0.001113,0.005964,0.041767
1757,-0.001113,-0.030183,0.023687
1758,0.017426,0.024037,0.023687
1759,-0.019652,-0.01211,0.023687
1760,-0.001113,-0.01211,0.005607
1761,-0.001113,-0.01211,-0.012473
1762,0.017426,0.005964,-0.012473
1763,-0.001113,0.005964,0.041767
1764,0.017426,0.005964,0.005607
1765,0.017426,0.024037,0.005607
1766,-0.001113,0.024037,0.005607
1767,-0.001113,0.024037,0.041767
1768,-0.019652,0.005964,0.005607
1769,-0.019652,0.005964,0.023687
1770,-0.001113,0.005964,0.023687
1771,-0.001113,0.005964,0.005607
1772,-0.001113,-0.01211,-0.012473
1773,-0.001113,0.005964,0.023687
1774,-0.001113,-0.01211,-0.012473
1775,-0.001113,-0.01211,-0.030552
1776,-0.001113,-0.030183,-0.048632
1777,-0.019652,0.005964,-0.012473
1778,-0.019652,0.005964,-0.012473
1779,0.017426,-0.01211,-0.030552
1780,-0.001113,0.005964,-0.030552
1781,-0.001113,0.005964,-0.030552
1782,-0.001113,-0.01211,-0.030552
1783,0.017426,0.005964,0.023687
1784,-0.001113,0.005964,0.041767
1785,-0.019652,-0.01211,0.023687
1786,-0.001113,-0.01211,0.005607
1787,-0.001113,0.005964,0.023687
1788,-0.019652,0.005964,0.041767
1789,-0.001113,0.005964,0.041767
1790,-0.001113,0.005964,0.023687
1791,0.017426,-0.01211,0.023687
1792,0.017426,-0.01211,0.005607
1793,0.017426,0.005964,-0.012473
1794,-0.001113,0.005964,-0.012473
1795,-0.001113,0.005964,0.023687
1796,-0.001113,-0.01211,0.005607
1797,-0.001113,-0.01211,-0.012473
1798,0.017426,-0.01211,0.005607
1799,0.017426,-0.01211,0.005607
1800,-0.001113,-0.01211,-0.030552
1801,-0.001113,0.005964,-0.012473
1802,0.017426,-0.01211,0.005607
1803,-0.001113,-0.01211,-0.030552
1804,-0.001113,-0.01211,-0.030552
1805,-0.001113,0.005964,0.005607
1806,-0.019652,0.005964,0.005607
1807,-0.001113,-0.01211,-0.030552
1808,-0.001113,-0.030183,-0.030552
1809,0.017426,-0.01211,-0.012473
1810,-0.019652,-0.01211,-0.012473
1811,-0.001113,-0.01211,-0.066712
1812,-0.019652,-0.01211,0.005607
1813,-0.001113,-0.01211,0.005607
1814,-0.001113,-0.01211,0.041767
1815,-0.001113,0.005964,0.041767
1816,-0.001113,0.024037,0.041767
1817,-0.019652,0.024037,0.023687
1818,0.017426,0.024037,0.005607
1819,0.017426,0.005964,0.005607
1820,-0.001113,0.024037,0.023687
1821,-0.019652,0.005964,0.005607
1822,-0.001113,0.005964,0.005607
1823,0.017426,0.024037,0.005607
1824,0.017426,0.024037,0.023687
1825,-0.001113,0.024037,-0.012473
1826,-0.001113,0.005964,0.005607
1827,-0.001113,0.024037,0.023687
1828,-0.001113,0.04211,0.005607
1829,-0.001113,0.005964,0.005607
1830,-0.019652,0.005964,0.041767
1831,-0.001113,0.005964,0.023687
1832,0.017426,0.005964,0.023687
1833,-0.001113,0.005964,0.005607
1834,0.017426,0.005964,0.005607
1835,0.017426,-0.01211,0.005607
1836,-0.001113,0.005964,-0.012473
1837,0.017426,0.005964,-0.012473
1838,-0.019652,-0.01211,0.005607
1839,-0.001113,-0.01211,-0.012473
1840,-0.001113,0.005964,0.005607
1841,-0.001113,-0.01211,0.023687
1842,-0.019652,0.005964,0.041767
1843,0.017426,0.005964,0.023687
1844,-0.001113,0.04211,0.041767
1845,-0.001113,0.005964,0.023687
1846,0.017426,0.005964,-0.012473
1847,-0.001113,0.005964,0.023687
1848,-0.001113,-0.01211,0.005607
1849,-0.019652,0.024037,0.023687
1850,-0.019652,0.005964,0.005607
1851,0.017426,0.005964,-0.012473
1852,0.017426,0.005964,-0.012473
1853,-0.001113,0.024037,-0.048632
1854,0.017426,0.005964,-0.012473
1855,-0.001113,-0.030183,-0.012473
1856,0.017426,0.005964,-0.030552
1857,-0.019652,-0.01211,-0.012473
1858,-0.019652,-0.01211,0.023687
1859,0.017426,0.005964,0.023687
1860,0.017426,0.005964,0.023687
1861,-0.019652,0.005964,0.023687
1862,-0.001113,-0.01211,0.023687
1863,-0.001113,-0.01211,0.005607
1864,0.017426,0.005964,0.005607
1865,-0.001113,0.005964,0.023687
1866,-0.001113,0.005964,0.005607
1867,-0.001113,0.005964,0.005607
1868,0.017426,0.024037,-0.030552
1869,-0.001113,-0.01211,-0.012473
1870,-0.001113,-0.01211,-0.030552
1871,-0.001113,0.024037,-0.030552
1872,-0.001113,0.005964,-0.030552
1873,-0.001113,0.005964,-0.030552
1874,-0.001113,-0.01211,-0.030552
1875,0.017426,0.005964,-0.012473
1876,0.017426,-0.01211,0.005607
1877,-0.001113,0.005964,0.023687
1878,-0.001113,0.005964,-0.012473
1879,-0.001113,-0.01211,0.005607
1880,0.017426,-0.01211,0.023687
1881,-0.001113,-0.01211,-0.012473
1882,0.035965,0.005964,-0.012473
1883,-0.001113,-0.01211,0.041767
1884,-0.001113,0.005964,0.041767
1885,-0.019652,0.024037,0.005607
1886,-0.001113,-0.01211,-0.030552
1887,-0.001113,0.005964,0.005607
1888,0.017426,0.005964,0.005607
1889,-0.001113,0.005964,-0.012473
1890,0.017426,-0.01211,-0.012473
1891,-0.001113,0.005964,-0.012473
1892,-0.001113,0.005964,0.005607
1893,-0.019652,0.005964,-0.012473
1894,0.017426,-0.01211,0.005607
1895,-0.001113,0.005964,0.023687
1896,0.017426,0.024037,0.005607
1897,0.017426,0.005964,0.023687
1898,-0.001113,0.005964,0.041767
1899,0.017426,-0.01211,0.005607
1900,-0.001113,0.005964,0.023687
1901,-0.001113,-0.01211,0.023687
1902,-0.019652,0.024037,0.023687
1903,-0.001113,0.005964,0.005607
1904,-0.019652,0.005964,-0.012473
1905,-0.001113,0.005964,0.023687
1906,-0.001113,0.005964,0.005607
1907,-0.001113,-0.01211,-0.012473
1908,-0.001113,0.005964,-0.012473
1909,-0.001113,0.005964,-0.030552
1910,-0.019652,0.005964,-0.048632
1911,0.017426,-0.01211,-0.030552
1912,-0.001113,0.005964,-0.012473
1913,-0.038191,0.005964,-0.012473
1914,-0.001113,0.005964,0.005607
1915,-0.019652,0.005964,0.005607
1916,-0.001113,-0.01211,0.005607
1917,-0.019652,-0.01211,0.023687
1918,-0.019652,-0.01211,0.041767
1919,-0.001113,0.005964,0.005607
1920,-0.001113,0.005964,0.005607
1921,-0.001113,0.005964,-0.012473
1922,-0.019652,0.024037,0.041767
1923,-0.001113,0.024037,0.005607
1924,0.017426,0.005964,-0.012473
1925,-0.019652,-0.01211,0.005607
1926,0.017426,0.024037,0.023687
1927,-0.001113,0.005964,-0.012473
1928,-0.001113,0.024037,-0.012473
1929,-0.019652,0.005964,0.005607
1930,-0.001113,0.005964,0.005607
1931,-0.001113,0.024037,0.005607
1932,-0.001113,0.005964,0.005607
1933,-0.019652,0.005964,0.041767
1934,-0.019652,-0.01211,0.023687
1935,-0.001113,0.005964,0.005607
1936,-0.001113,-0.01211,0.023687
1937,-0.019652,-0.01211,-0.012473
1938,-0.001113,-0.01211,-0.030552
1939,-0.001113,-0.01211,-0.012473
1940,-0.001113,-0.01211,-0.012473
1941,-0.001113,-0.01211,-0.030552
1942,0.017426,0.005964,-0.048632
1943,-0.001113,-0.01211,-0.030552
1944,-0.001113,0.005964,-0.012473
1945,-0.001113,-0.01211,-0.012473
1946,0.017426,0.005964,0.005607
1947,0.017426,0.005964,0.041767
1948,0.017426,-0.01211,0.059847
1949,0.017426,0.005964,0.023687
1950,-0.001113,0.005964,0.041767
1951,0.017426,0.005964,0.059847
1952,-0.001113,0.005964,0.005607
1953,-0.019652,0.005964,0.041767
1954,-0.001113,0.005964,0.023687
1955,0.017426,0.04211,0.005607
1956,-0.001113,-0.01211,0.005607
1957,-0.001113,0.005964,0.023687
1958,-0.019652,-0.01211,0.005607
1959,0.017426,0.005964,-0.012473
1960,-0.001113,0.024037,-0.048632
1961,-0.001113,0.024037,-0.012473
1962,-0.001113,-0.01211,0.005607
1963,-0.019652,0.005964,-0.012473
1964,-0.019652,0.024037,0.005607
1965,0.035965,-0.030183,0.005607
1966,-0.019652,-0.01211,-0.012473
1967,0.017426,-0.01211,0.005607
1968,-0.001113,0.005964,0.041767
1969,-0.001113,-0.01211,0.041767
1970,-0.019652,-0.01211,0.023687
1971,-0.001113,0.005964,0.023687
1972,-0.001113,0.005964,0.005607
1973,-0.001113,-0.01211,0.005607
1974,-0.001113,0.024037,-0.030552
1975,-0.019652,0.005964,0.005607
1976,-0.001113,-0.01211,-0.012473
1977,-0.001113,0.005964,-0.030552
1978,-0.001113,0.024037,-0.030552
1979,-0.019652,0.005964,-0.012473
1980,0.035965,0.024037,-0.048632
1981,-0.001113,0.005964,0.023687
1982,0.017426,0.005964,0.023687
1983,0.017426,-0.01211,0.005607
1984,0.017426,0.005964,0.005607
1985,-0.001113,-0.01211,0.005607
1986,-0.001113,-0.01211,0.023687
1987,-0.001113,-0.01211,-0.012473
1988,-0.019652,0.024037,0.005607
1989,-0.019652,0.005964,0.023687
1990,0.017426,0.005964,0.023687
1991,-0.001113,-0.01211,0.023687
1992,-0.001113,0.005964,0.005607
1993,-0.001113,0.005964,0.005607
1994,-0.001113,0.024037,-0.012473
1995,-0.001113,-0.01211,-0.030552
1996,-0.001113,0.024037,-0.012473
1997,-0.019652,-0.01211,-0.012473
1998,-0.001113,-0.01211,-0.012473
1999,0.017426,0.024037,-0.012473
2000,-0.001113,0.005964,0.023687
2001,-0.001113,0.005964,-0.012473
2002,-0.019652,0.005964,0.023687
2003,-0.001113,0.005964,0.023687
2004,-0.001113,-0.01211,0.041767
2005,-0.001113,-0.01211,-0.012473
2006,-0.019652,-0.01211,0.023687
2007,-0.001113,0.04211,0.023687
2008,-0.001113,-0.01211,0.005607
2009,-0.001113,0.005964,-0.012473
2010,-0.001113,-0.01211,0.023687
2011,0.017426,0.005964,0.005607
2012,0.017426,0.005964,-0.030552
2013,-0.019652,0.005964,-0.012473
2014,0.017426,0.005964,0.005607
2015,-0.001113,0.024037,-0.012473
2016,0.017426,0.005964,-0.030552
2017,-0.001113,-0.01211,-0.012473
2018,-0.001113,0.005964,0.023687
2019,-0.001113,-0.01211,0.005607
2020,-0.001113,0.005964,0.023687
2021,-0.019652,0.005964,0.023687
2022,-0.001113,0.005964,0.005607
2023,0.017426,0.005964,-0.012473
2024,-0.001113,0.005964,0.005607
2025,-0.001113,0.005964,0.005607
2026,-0.019652,-0.01211,-0.012473
2027,-0.001113,0.005964,-0.030552
2028,-0.001113,0.024037,-0.012473
2029,0.017426,0.005964,-0.012473
2030,-0.001113,0.005964,-0.030552
2031,-0.001113,0.005964,0.005607
2032,-0.001113,0.024037,0.005607
2033,-0.001113,0.005964,0.005607
2034,-0.001113,0.024037,0.005607
2035,-0.001113,0.005964,0.023687
2036,0.017426,0.024037,0.041767
2037,-0.001113,-0.01211,0.023687
2038,-0.001113,0.005964,0.041767
2039,-0.001113,0.024037,0.041767
2040,0.017426,0.024037,0.005607
2041,-0.001113,0.005964,0.023687
2042,-0.019652,-0.030183,0.005607
2043,-0.001113,-0.01211,-0.012473
2044,-0.019652,-0.01211,-0.012473
2045,0.017426,0.005964,0.005607
2046,-0.001113,0.005964,0.005607
2047,-0.019652,0.005964,-0.012473
2048,-0.001113,0.024037,-0.012473
2049,-0.019652,0.005964,0.005607
2050,-0.001113,0.005964,-0.012473
2051,-0.019652,0.005964,-0.012473
2052,0.017426,0.005964,0.005607
2053,-0.019652,0.024037,0.005607
2054,-0.001113,0.005964,-0.030552
2055,0.017426,0.024037,-0.012473
2056,-0.001113,0.005964,0.023687
2057,-0.001113,-0.01211,0.023687
2058,-0.001113,0.005964,-0.012473
2059,-0.001113,0.005964,0.023687
2060,-0.019652,0.005964,0.059847
2061,-0.019652,0.005964,0.023687
2062,-0.001113,0.024037,0.005607
2063,0.017426,0.005964,0.005607
2064,0.017426,0.005964,0.005607
2065,-0.001113,0.005964,0.005607
2066,0.017426,0.024037,0.023687
2067,-0.001113,0.024037,0.005607
2068,-0.001113,-0.01211,-0.012473
2069,-0.001113,0.005964,0.005607
2070,-0.019652,0.005964,0.023687
2071,-0.001113,0.005964,0.023687
2072,-0.001113,-0.01211,-0.012473
2073,-0.001113,0.005964,0.005607
2074,-0.001113,0.005964,-0.012473
2075,-0.001113,0.005964,-0.012473
2076,-0.019652,0.005964,-0.012473
2077,-0.019652,-0.01211,0.023687
2078,-0.001113,0.005964,0.005607
2079,0.035965,0.005964,0.005607
2080,-0.019652,0.005964,-0.012473
2081,-0.001113,0.005964,0.023687
2082,0.017426,0.005964,-0.012473
2083,-0.001113,0.024037,-0.012473
2084,-0.001113,-0.01211,-0.030552
2085,0.017426,-0.01211,-0.030552
2086,-0.001113,0.005964,-0.030552
2087,-0.019652,0.005964,-0.012473
2088,-0.001113,0.005964,0.005607
2089,-0.001113,0.005964,-0.012473
2090,-0.019652,0.024037,0.023687
2091,-0.001113,0.005964,0.041767
2092,0.017426,0.005964,0.041767
2093,-0.001113,0.005964,0.023687
2094,0.017426,0.005964,0.041767
2095,0.017426,0.005964,0.059847
2096,-0.001113,0.024037,0.005607
2097,-0.001113,0.005964,-0.012473
2098,-0.001113,0.005964,0.005607
2099,-0.001113,0.005964,-0.030552
2100,-0.001113,0.005964,-0.030552
2101,-0.019652,-0.01211,-0.030552
2102,0.017426,0.024037,-0.030552
2103,-0.019652,-0.01211,-0.030552
2104,-0.001113,0.005964,-0.030552
2105,-0.001113,-0.01211,-0.012473
2106,-0.001113,-0.01211,0.023687
2107,-0.019652,0.024037,-0.012473
2108,0.017426,0.005964,-0.012473
2109,-0.001113,0.005964,0.023687
2110,-0.019652,-0.01211,0.041767
2111,-0.001113,0.005964,0.005607
2112,-0.001113,0.005964,0.041767
2113,-0.001113,-0.01211,0.023687
2114,-0.001113,0.005964,-0.012473
2115,-0.001113,0.024037,-0.012473
2116,-0.001113,0.005964,0.005607
2117,-0.019652,0.024037,-0.012473
2118,0.017426,0.005964,-0.012473
2119,-0.001113,0.005964,-0.012473
2120,-0.001113,0.005964,-0.012473
2121,-0.001113,0.005964,-0.012473
2122,-0.001113,-0.01211,-0.012473
2123,-0.001113,-0.01211,0.005607
2124,-0.001113,0.024037,-0.012473
2125,0.017426,0.005964,-0.030552
2126,-0.001113,0.005964,0.005607
2127,-0.001113,-0.01211,0.005607
2128,0.017426,0.005964,0.005607
2129,0.017426,0.005964,-0.012473
2130,-0.001113,0.005964,0.005607
2131,-0.001113,0.005964,0.005607
2132,-0.001113,0.024037,0.005607
2133,-0.001113,0.024037,0.041767
2134,0.017426,0.005964,0.023687
2135,-0.001113,0.005964,-0.012473
2136,-0.001113,0.005964,-0.012473
2137,0.017426,0.024037,0.005607
2138,-0.019652,0.005964,0.005607
2139,-0.019652,0.005964,-0.030552
2140,-0.001113,0.005964,0.005607
2141,0.017426,0.005964,0.023687
2142,-0.001113,0.024037,-0.012473
2143,-0.001113,0.024037,0.023687
2144,0.017426,0.024037,0.041767
2145,-0.019652,0.005964,0.041767
2146,0.017426,0.005964,0.023687
2147,-0.001113,0.024037,0.023687
2148,0.017426,0.005964,0.023687
2149,-0.001113,0.005964,-0.012473
2150,-0.001113,0.005964,-0.012473
2151,-0.001113,0.005964,0.041767
2152,-0.001113,-0.01211,0.005607
2153,-0.001113,0.024037,-0.012473
2154,-0.001113,-0.01211,-0.030552
2155,0.017426,0.005964,-0.012473
2156,0.017426,0.005964,-0.012473
2157,0.017426,0.024037,-0.012473
2158,-0.05673,0.005964,-0.012473
2159,-0.019652,0.005964,0.023687
2160,-0.019652,0.005964,-0.012473
2161,-0.001113,-0.01211,-0.012473
2162,-0.019652,0.024037,0.005607
2163,-0.001113,-0.01211,0.005607
2164,-0.001113,-0.01211,-0.012473
2165,0.017426,0.005964,0.005607
2166,-0.001113,0.005964,0.005607
2167,-0.019652,0.005964,-0.012473
2168,-0.001113,0.005964,-0.030552
2169,0.017426,-0.01211,-0.012473
2170,-0.001113,0.005964,-0.012473
2171,-0.001113,0.005964,-0.012473
2172,-0.019652,0.005964,-0.030552
2173,-0.001113,0.005964,-0.012473
2174,-0.001113,0.005964,-0.030552
2175,0.017426,0.005964,-0.030552
2176,0.017426,0.005964,0.005607
2177,0.017426,0.005964,0.005607
2178,-0.001113,0.005964,0.005607
2179,0.017426,0.005964,0.041767
2180,-0.019652,0.005964,0.023687
2181,0.017426,0.005964,0.041767
2182,0.017426,0.005964,0.005607
2183,-0.001113,-0.01211,0.023687
2184,0.017426,0.005964,0.005607
2185,-0.001113,0.005964,-0.030552
2186,-0.001113,-0.01211,0.023687
2187,-0.001113,0.005964,0.005607
2188,-0.001113,0.024037,-0.012473
2189,-0.001113,0.005964,-0.030552
2190,0.017426,0.005964,-0.012473
2191,-0.019652,0.005964,-0.012473
2192,-0.019652,0.005964,-0.012473
2193,-0.001113,0.005964,0.005607
2194,-0.019652,0.005964,0.023687
2195,-0.019652,0.005964,-0.030552
2196,-0.019652,0.005964,-0.012473
2197,0.017426,-0.01211,-0.012473
2198,-0.001113,0.024037,0.023687
2199,-0.001113,0.005964,0.005607
2200,-0.019652,0.005964,-0.012473
2201,-0.001113,0.005964,0.005607
2202,-0.019652,0.005964,-0.012473
2203,-0.001113,0.005964,-0.012473
2204,-0.001113,0.005964,0.023687
2205,-0.001113,0.024037,0.005607
2206,0.017426,0.005964,0.023687
2207,-0.019652,0.005964,-0.012473
2208,0.017426,0.005964,0.005607
2209,0.017426,-0.01211,0.005607
2210,-0.001113,-0.01211,-0.012473
2211,-0.001113,0.024037,0.005607
2212,-0.001113,0.005964,0.005607
2213,-0.001113,0.005964,-0.030552
2214,-0.001113,0.005964,0.005607
2215,0.017426,0.005964,0.005607
2216,-0.019652,0.005964,0.023687
2217,-0.001113,0.005964,0.005607
2218,-0.001113,0.005964,0.023687
2219,-0.038191,0.024037,0.023687
2220,-0.019652,0.005964,0.005607
2221,0.017426,0.005964,0.023687
2222,-0.001113,0.024037,0.023687
2223,-0.001113,0.024037,0.005607
2224,-0.001113,0.024037,-0.012473
2225,-0.001113,0.005964,-0.030552
2226,-0.001113,-0.01211,0.005607
2227,-0.001113,0.005964,0.005607
2228,0.017426,0.005964,-0.012473
2229,0.017426,0.024037,0.005607
2230,-0.001113,0.005964,-0.012473
2231,0.017426,0.005964,0.023687
2232,-0.019652,-0.01211,0.023687
2233,-0.001113,0.005964,0.005607
2234,-0.001113,0.005964,0.005607
2235,-0.001113,-0.01211,-0.012473
2236,-0.001113,0.005964,0.005607
2237,0.091583,0.005964,-0.030552
2238,-0.019652,0.005964,-0.030552
2239,-0.001113,0.005964,-0.030552
2240,-0.019652,0.005964,-0.030552
2241,-0.001113,0.005964,-0.030552
2242,-0.019652,0.005964,-0.030552
2243,-0.001113,0.024037,0.005607
2244,-0.001113,0.024037,0.041767
2245,0.017426,0.024037,0.041767
2246,-0.019652,0.005964,0.041767
2247,-0.001113,0.005964,0.023687
2248,-0.001113,0.024037,0.005607
2249,-0.001113,0.024037,0.005607
2250,-0.001113,0.005964,0.023687
2251,-0.019652,0.005964,0.023687
2252,-0.001113,-0.01211,0.005607
2253,-0.001113,-0.01211,0.023687
2254,-0.001113,0.024037,0.023687
2255,-0.019652,0.005964,0.005607
2256,-0.001113,0.005964,-0.030552
2257,-0.001113,0.024037,0.005607
2258,0.017426,-0.01211,-0.012473
2259,-0.001113,-0.030183,-0.012473
2260,0.017426,0.005964,-0.012473
2261,-0.001113,-0.01211,0.005607
2262,-0.001113,0.005964,-0.030552
2263,-0.001113,0.005964,-0.030552
2264,-0.001113,0.005964,-0.012473
2265,-0.001113,0.005964,-0.030552
2266,0.017426,0.005964,-0.030552
2267,-0.001113,0.005964,0.005607
2268,-0.001113,0.005964,0.041767
2269,-0.001113,0.005964,0.041767
2270,-0.001113,0.005964,0.023687
2271,-0.001113,0.04211,0.005607
2272,-0.001113,0.005964,0.041767
2273,-0.001113,0.024037,0.005607
2274,0.017426,0.04211,0.023687
2275,-0.001113,0.024037,0.023687
2276,-0.001113,0.005964,0.005607
2277,0.017426,0.005964,-0.012473
2278,-0.001113,0.005964,-0.012473
2279,-0.001113,0.005964,0.005607
2280,-0.001113,-0.01211,-0.012473
2281,-0.001113,0.005964,-0.012473
2282,-0.001113,0.005964,0.005607
2283,0.017426,0.005964,-0.030552
2284,0.017426,0.005964,-0.012473
2285,0.017426,-0.01211,0.005607
2286,-0.019652,0.005964,0.023687
2287,-0.001113,0.024037,-0.012473
2288,-0.019652,-0.01211,0.005607
2289,-0.001113,-0.01211,0.041767
2290,-0.001113,0.005964,0.005607
2291,0.017426,-0.01211,-0.012473
2292,-0.019652,0.005964,0.005607
2293,-0.001113,0.024037,0.023687
2294,-0.001113,0.024037,-0.012473
2295,-0.001113,0.024037,-0.030552
2296,-0.001113,0.005964,0.023687
2297,-0.001113,0.024037,0.005607
2298,-0.001113,0.005964,-0.012473
2299,-0.001113,-0.01211,0.023687
2300,-0.001113,0.005964,0.023687
2301,0.017426,0.005964,-0.012473
2302,-0.001113,0.005964,-0.012473
2303,-0.001113,-0.01211,0.023687
2304,-0.001113,0.005964,0.023687
2305,-0.019652,-0.01211,0.077927
2306,-0.019652,0.005964,0.023687
2307,-0.001113,0.005964,0.005607
2308,-0.001113,0.005964,-0.012473
2309,-0.001113,0.005964,0.023687
2310,-0.001113,0.005964,-0.012473
2311,-0.038191,-0.01211,-0.012473
2312,0.017426,0.024037,-0.030552
2313,-0.019652,0.005964,-0.012473
2314,-0.001113,0.024037,-0.012473
2315,-0.019652,-0.01211,-0.030552
2316,-0.001113,0.005964,0.023687
2317,-0.001113,0.005964,0.005607
2318,-0.001113,0.005964,-0.012473
2319,-0.001113,0.005964,-0.012473
2320,-0.001113,0.005964,-0.012473
2321,-0.001113,0.005964,0.005607
2322,-0.019652,0.005964,-0.030552
2323,-0.001113,0.005964,0.005607
2324,0.017426,0.005964,0.023687
2325,0.017426,0.005964,0.005607
2326,-0.001113,0.005964,0.005607
2327,-0.001113,0.005964,0.005607
2328,-0.001113,0.024037,0.005607
2329,-0.019652,0.005964,0.005607
2330,-0.019652,0.024037,-0.030552
2331,-0.001113,0.024037,0.005607
2332,-0.001113,0.005964,-0.012473
2333,-0.001113,0.005964,0.005607
2334,-0.001113,0.024037,0.005607
2335,-0.001113,0.005964,0.005607
2336,-0.001113,-0.01211,-0.012473
2337,-0.019652,0.005964,-0.012473
2338,-0.019652,-0.01211,0.005607
2339,-0.038191,0.005964,-0.012473
2340,-0.001113,0.005964,0.005607
2341,-0.001113,0.005964,0.023687
2342,0.017426,0.005964,0.005607
2343,-0.001113,0.005964,0.005607
2344,0.017426,0.024037,-0.012473
2345,-0.001113,0.005964,0.023687
2346,-0.001113,0.005964,0.005607
2347,-0.001113,0.024037,0.005607
2348,-0.001113,0.024037,0.023687
2349,0.017426,0.024037,0.005607
2350,0.017426,-0.01211,-0.012473
2351,-0.038191,-0.01211,0.005607
2352,-0.001113,0.005964,-0.012473
2353,-0.001113,0.005964,-0.030552
2354,-0.001113,0.024037,-0.012473
2355,-0.001113,0.005964,0.023687
2356,-0.019652,0.005964,0.041767
2357,-0.001113,0.005964,0.041767
2358,-0.019652,0.005964,0.023687
2359,-0.019652,0.005964,0.041767
2360,-0.001113,0.005964,0.005607
2361,-0.001113,0.005964,0.005607
2362,-0.001113,0.04211,0.023687
2363,-0.001113,0.005964,0.005607
2364,-0.001113,0.005964,-0.012473
2365,-0.001113,0.005964,-0.012473
2366,-0.001113,0.005964,0.005607
2367,-0.001113,0.005964,-0.030552
2368,-0.019652,-0.01211,-0.048632
2369,-0.001113,-0.01211,-0.030552
2370,0.017426,0.024037,0.005607
2371,-0.001113,0.005964,-0.012473
2372,-0.019652,0.005964,0.005607
2373,-0.001113,0.005964,0.023687
2374,-0.019652,0.005964,0.041767
2375,0.017426,0.005964,0.023687
2376,-0.001113,0.005964,0.023687
2377,-0.001113,0.005964,0.023687
2378,0.017426,-0.01211,0.023687
2379,-0.019652,0.005964,-0.012473
2380,-0.001113,0.024037,0.041767
2381,-0.019652,0.04211,0.023687
2382,-0.001113,0.005964,0.005607
2383,-0.001113,0.024037,-0.012473
2384,-0.001113,0.005964,0.005607
2385,-0.001113,0.005964,-0.012473
2386,-0.001113,0.005964,0.005607
2387,-0.001113,0.005964,0.005607
2388,-0.001113,0.005964,0.005607
2389,0.017426,0.005964,0.005607
2390,0.017426,0.005964,0.023687
2391,-0.019652,0.005964,0.023687
2392,-0.001113,0.005964,0.023687
2393,-0.001113,0.024037,0.005607
2394,0.017426,0.005964,0.023687
2395,-0.001113,0.024037,0.023687
2396,-0.001113,0.024037,0.023687
2397,-0.001113,0.005964,0.023687
2398,0.017426,0.005964,0.023687
2399,-0.001113,0.005964,0.005607
2400,-0.001113,-0.01211,-0.012473
2401,-0.001113,0.005964,-0.012473
2402,-0.001113,0.005964,0.005607
2403,0.017426,0.005964,-0.030552
2404,0.017426,0.005964,-0.012473
2405,-0.001113,0.005964,0.005607
2406,-0.001113,0.005964,-0.030552
2407,0.017426,-0.01211,-0.012473
2408,-0.019652,0.005964,0.023687
2409,-0.019652,0.005964,0.023687
2410,-0.019652,0.005964,0.023687
2411,0.017426,0.005964,0.005607
2412,-0.001113,0.005964,0.023687
2413,-0.001113,-0.01211,0.005607
2414,-0.001113,0.005964,0.005607
2415,-0.001113,0.005964,0.023687
2416,-0.001113,0.005964,0.005607
2417,-0.001113,0.005964,0.005607
2418,-0.019652,-0.01211,-0.048632
2419,0.017426,-0.01211,-0.012473
2420,-0.019652,0.005964,0.005607
2421,-0.019652,0.005964,-0.030552
2422,-0.019652,0.005964,0.005607
2423,-0.001113,0.005964,0.023687
2424,-0.001113,0.005964,0.005607
2425,-0.001113,0.005964,0.023687
2426,0.017426,0.024037,0.041767
2427,-0.001113,0.024037,0.059847
2428,-0.001113,0.005964,0.005607
2429,-0.001113,-0.01211,0.023687
2430,-0.019652,-0.030183,0.005607
2431,-0.019652,0.024037,0.005607
2432,-0.001113,0.005964,-0.030552
2433,-0.019652,0.005964,0.023687
2434,0.017426,0.005964,0.005607
2435,-0.001113,0.005964,-0.030552
2436,-0.001113,0.005964,-0.012473
2437,-0.001113,0.005964,0.005607
2438,-0.001113,-0.01211,0.005607
2439,-0.001113,0.005964,-0.030552
2440,-0.019652,0.005964,0.005607
2441,-0.019652,0.024037,-0.012473
2442,-0.019652,0.005964,0.005607
2443,-0.001113,0.005964,0.005607
2444,0.017426,0.005964,0.023687
2445,0.035965,0.024037,0.023687
2446,0.017426,0.005964,0.023687
2447,-0.001113,0.005964,0.041767
2448,-0.019652,0.005964,0.023687
2449,-0.001113,0.005964,0.005607
2450,-0.001113,0.005964,0.005607
2451,-0.001113,0.005964,0.005607
2452,-0.019652,-0.01211,-0.012473
2453,-0.001113,0.005964,-0.030552
2454,-0.001113,-0.01211,-0.030552
2455,-0.001113,0.005964,-0.030552
2456,-0.001113,0.005964,-0.012473
2457,-0.001113,0.005964,0.005607
2458,0.017426,0.024037,0.023687
2459,0.017426,0.005964,0.005607
2460,-0.001113,0.005964,0.005607
2461,0.017426,0.005964,0.005607
2462,0.017426,0.005964,0.041767
2463,-0.001113,0.024037,0.023687
2464,-0.001113,0.024037,0.023687
2465,-0.001113,-0.01211,0.023687
2466,-0.001113,0.024037,-0.012473
2467,-0.019652,0.024037,-0.012473
2468,-0.001113,0.005964,0.023687
2469,-0.001113,0.005964,0.005607
2470,-0.001113,0.005964,-0.012473
2471,-0.019652,0.005964,-0.030552
2472,0.035965,0.005964,-0.012473
2473,-0.019652,0.005964,-0.030552
2474,-0.019652,0.005964,-0.030552
2475,-0.001113,0.005964,-0.012473
2476,0.017426,-0.01211,0.005607
2477,-0.019652,0.005964,-0.030552
2478,-0.001113,0.024037,-0.012473
2479,-0.019652,0.005964,0.005607
2480,-0.019652,0.024037,0.023687
2481,-0.019652,0.005964,0.023687
2482,-0.001113,-0.01211,0.023687
2483,-0.019652,-0.01211,0.023687
2484,-0.019652,-0.01211,0.005607
2485,-0.001113,0.005964,0.041767
2486,-0.019652,0.005964,0.023687
2487,0.017426,0.024037,0.023687
2488,-0.001113,0.005964,-0.012473
2489,-0.001113,0.005964,-0.030552
2490,-0.001113,0.005964,-0.030552
2491,-0.019652,-0.01211,-0.030552
2492,-0.019652,0.005964,-0.012473
2493,0.035965,0.005964,0.005607
2494,-0.001113,0.005964,-0.012473
2495,-0.019652,0.005964,-0.012473
2496,-0.001113,-0.030183,-0.012473
2497,0.017426,0.005964,0.005607
2498,0.017426,0.005964,0.041767
2499,-0.001113,0.024037,0.005607
2500,-0.001113,-0.01211,0.023687
2501,-0.019652,0.005964,0.023687
2502,-0.019652,0.005964,0.023687
2503,-0.001113,0.024037,0.059847
2504,-0.001113,0.005964,0.023687
2505,-0.001113,0.024037,0.005607
2506,-0.001113,0.005964,-0.030552
2507,-0.001113,0.005964,0.005607
2508,-0.001113,0.005964,0.005607
2509,-0.001113,0.024037,-0.012473
2510,0.017426,0.024037,-0.030552
2511,-0.019652,-0.01211,-0.012473
2512,-0.001113,0.005964,-0.048632
2513,-0.001113,0.005964,-0.012473
2514,-0.001113,-0.01211,0.005607
2515,-0.001113,0.005964,0.005607
2516,0.017426,0.024037,-0.012473
2517,-0.001113,0.005964,0.005607
2518,-0.001113,-0.01211,0.023687
2519,-0.001113,-0.01211,0.005607
2520,0.017426,0.005964,-0.012473
2521,-0.019652,0.005964,0.041767
2522,-0.019652,0.005964,0.005607
2523,-0.001113,0.005964,-0.012473
2524,-0.001113,-0.01211,-0.030552
2525,0.017426,0.005964,-0.012473
2526,-0.001113,0.005964,-0.012473
2527,-0.001113,0.005964,-0.012473
2528,-0.001113,0.024037,0.005607
2529,-0.001113,0.005964,0.023687
2530,-0.001113,0.005964,-0.012473
2531,-0.001113,0.005964,0.005607
2532,-0.001113,0.024037,0.041767
2533,-0.019652,0.005964,0.023687
2534,-0.019652,0.005964,0.005607
2535,0.017426,0.024037,0.005607
2536,0.017426,0.005964,0.023687
2537,-0.001113,0.024037,0.005607
2538,-0.001113,0.005964,0.005607
2539,-0.019652,0.024037,0.005607
2540,-0.001113,-0.01211,-0.012473
2541,-0.001113,0.005964,-0.030552
2542,-0.001113,0.005964,-0.012473
2543,-0.001113,0.005964,0.005607
2544,-0.019652,0.005964,0.023687
2545,-0.001113,0.024037,0.005607
2546,-0.001113,0.005964,0.023687
2547,-0.001113,-0.01211,0.005607
2548,0.017426,0.005964,0.023687
2549,-0.001113,0.005964,0.023687
2550,0.017426,0.005964,0.023687
2551,-0.001113,0.024037,0.023687
2552,0.035965,0.005964,0.023687
2553,-0.019652,0.024037,0.041767
2554,-0.001113,0.005964,0.005607
2555,0.017426,0.005964,-0.012473
2556,-0.019652,0.005964,0.023687
2557,-0.001113,0.005964,0.005607
2558,0.017426,0.005964,-0.012473
2559,-0.001113,0.024037,-0.030552
2560,-0.001113,0.024037,-0.012473
2561,-0.001113,0.005964,-0.030552
2562,-0.001113,0.005964,-0.030552
2563,0.017426,0.005964,-0.012473
2564,-0.019652,0.005964,-0.012473
2565,-0.001113,-0.01211,-0.012473
2566,-0.001113,0.005964,-0.012473
2567,-0.001113,0.024037,0.005607
2568,-0.001113,-0.01211,0.041767
2569,0.017426,-0.01211,0.005607
2570,-0.038191,0.005964,0.023687
2571,-0.019652,0.024037,0.023687
2572,-0.001113,0.005964,0.005607
2573,-0.001113,0.024037,-0.012473
2574,-0.038191,0.005964,0.023687
2575,0.017426,0.04211,0.005607
2576,-0.001113,0.005964,-0.012473
2577,-0.001113,0.005964,0.005607
2578,-0.001113,0.005964,0.005607
2579,-0.019652,0.005964,-0.012473
2580,-0.001113,0.005964,0.005607
2581,-0.019652,-0.01211,-0.012473
2582,-0.019652,0.005964,-0.030552
2583,-0.001113,0.005964,0.005607
2584,-0.001113,-0.01211,0.005607
2585,-0.019652,0.024037,0.023687
2586,-0.001113,0.005964,0.005607
2587,-0.001113,-0.01211,0.005607
2588,0.017426,-0.01211,0.041767
2589,0.017426,0.005964,0.023687
2590,-0.019652,0.005964,-0.012473
2591,-0.001113,-0.01211,0.023687
2592,-0.001113,0.005964,-0.012473
2593,-0.001113,0.005964,-0.012473
2594,-0.001113,0.024037,-0.030552
2595,-0.001113,0.005964,-0.012473
2596,-0.001113,0.005964,-0.030552
2597,-0.001113,0.005964,-0.012473
2598,-0.001113,-0.01211,0.005607
2599,-0.001113,-0.01211,-0.012473
2600,-0.001113,0.005964,-0.030552
2601,0.017426,0.005964,-0.012473
2602,-0.001113,-0.01211,0.005607
2603,-0.019652,0.005964,0.023687
2604,-0.001113,0.005964,0.005607
2605,-0.019652,-0.01211,0.023687
2606,-0.001113,0.005964,0.023687
2607,-0.001113,0.024037,0.023687
2608,-0.019652,0.005964,-0.012473
2609,0.017426,0.005964,0.005607
2610,-0.001113,0.005964,-0.030552
2611,-0.001113,0.005964,-0.012473
2612,-0.001113,0.005964,-0.012473
2613,-0.001113,-0.01211,-0.012473
2614,-0.001113,0.005964,-0.012473
2615,0.017426,0.005964,-0.012473
2616,-0.001113,0.005964,0.005607
2617,-0.019652,-0.01211,0.005607
2618,-0.001113,0.005964,-0.012473
2619,-0.001113,0.005964,-0.012473
2620,0.017426,-0.01211,0.005607
2621,-0.001113,-0.01211,0.005607
2622,-0.001113,0.005964,-0.012473
2623,0.017426,-0.01211,0.023687
2624,-0.001113,0.005964,0.041767
2625,-0.001113,0.005964,0.005607
2626,-0.001113,0.024037,0.023687
2627,-0.001113,0.005964,0.005607
2628,-0.001113,0.024037,0.005607
2629,-0.019652,0.005964,0.005607
2630,-0.001113,0.005964,-0.012473
2631,-0.038191,-0.01211,0.023687
2632,0.017426,0.005964,-0.012473
2633,-0.001113,0.024037,0.005607
2634,-0.001113,0.024037,0.005607
2635,-0.019652,0.005964,-0.030552
2636,-0.019652,0.005964,0.005607
2637,-0.019652,0.005964,0.005607
2638,-0.019652,-0.01211,0.023687
2639,0.017426,0.005964,0.005607
2640,-0.019652,-0.01211,0.023687
2641,-0.001113,-0.01211,0.041767
2642,-0.019652,0.024037,0.023687
2643,0.017426,0.04211,0.005607
2644,-0.001113,0.024037,0.023687
2645,-0.001113,0.024037,0.023687
2646,-0.001113,0.005964,0.005607
2647,0.017426,-0.01211,-0.012473
2648,-0.001113,0.024037,0.005607
2649,-0.019652,-0.01211,0.005607
2650,-0.001113,0.024037,-0.012473
2651,-0.001113,0.005964,-0.012473
2652,0.017426,0.024037,-0.012473
2653,-0.001113,-0.030183,-0.048632
2654,-0.001113,-0.01211,-0.012473
2655,-0.001113,0.005964,-0.012473
2656,-0.001113,0.005964,-0.012473
2657,-0.001113,0.005964,-0.012473
2658,-0.019652,0.024037,0.023687
2659,-0.001113,0.005964,0.041767
2660,-0.001113,0.024037,0.023687
2661,-0.019652,0.024037,0.005607
2662,-0.001113,0.005964,0.041767
2663,-0.001113,0.024037,0.023687
2664,0.017426,0.005964,-0.012473
2665,-0.019652,0.005964,0.005607
2666,0.017426,0.005964,0.005607
2667,-0.001113,0.024037,-0.012473
2668,-0.001113,0.024037,-0.012473
2669,-0.001113,-0.01211,-0.012473
2670,0.017426,0.005964,-0.030552
2671,-0.001113,-0.01211,-0.030552
2672,-0.019652,0.005964,-0.012473
2673,-0.038191,-0.01211,0.023687
2674,-0.001113,0.005964,0.041767
2675,0.017426,0.024037,-0.012473
2676,-0.001113,0.005964,0.023687
2677,-0.019652,0.005964,0.023687
2678,-0.001113,-0.01211,0.023687
2679,-0.001113,0.005964,0.041767
2680,-0.001113,0.005964,0.041767
2681,-0.001113,-0.01211,0.023687
2682,0.017426,0.005964,-0.012473
2683,-0.019652,0.024037,-0.012473
2684,-0.019652,0.024037,0.005607
2685,-0.001113,0.005964,-0.012473
2686,-0.001113,0.005964,-0.048632
2687,-0.019652,0.005964,-0.030552
2688,-0.019652,-0.01211,-0.030552
2689,-0.001113,-0.01211,-0.030552
2690,-0.001113,0.005964,-0.012473
2691,-0.001113,0.005964,0.005607
2692,-0.001113,0.024037,-0.012473
2693,-0.001113,0.005964,0.023687
2694,-0.001113,0.005964,0.041767
2695,-0.001113,0.005964,0.041767
2696,0.017426,0.005964,0.005607
2697,-0.019652,-0.01211,0.023687
2698,-0.019652,0.005964,0.023687
2699,-0.001113,0.005964,0.005607
2700,-0.019652,0.024037,0.005607
2701,-0.001113,0.024037,-0.012473
2702,-0.001113,0.005964,-0.030552
2703,-0.001113,0.005964,-0.048632
2704,-0.001113,0.005964,-0.030552
2705,-0.019652,-0.01211,-0.012473
2706,0.017426,-0.01211,-0.030552
2707,-0.001113,0.005964,-0.030552
2708,0.017426,0.005964,0.005607
2709,0.017426,0.005964,0.023687
2710,0.017426,0.024037,0.077927
2711,-0.019652,0.005964,0.005607
2712,-0.001113,0.005964,0.041767
2713,-0.019652,0.005964,0.005607
2714,-0.001113,0.005964,0.023687
2715,-0.001113,0.024037,0.059847
2716,-0.001113,0.024037,0.023687
2717,-0.001113,0.005964,-0.012473
2718,0.017426,-0.01211,-0.012473
2719,-0.001113,-0.01211,-0.012473
2720,-0.001113,-0.01211,-0.012473
2721,0.017426,-0.01211,-0.012473
2722,-0.019652,0.005964,0.005607
2723,-0.001113,0.024037,-0.012473
2724,-0.001113,0.005964,-0.012473
2725,-0.019652,0.005964,0.005607
2726,-0.019652,0.005964,0.005607
2727,-0.001113,0.005964,0.023687
2728,-0.019652,0.005964,0.005607
2729,-0.001113,0.005964,0.005607
2730,-0.019652,0.005964,0.023687
2731,-0.001113,0.024037,-0.030552
2732,-0.001113,-0.01211,0.077927
2733,-0.019652,0.005964,0.023687
2734,-0.001113,0.005964,0.005607
2735,-0.001113,-0.01211,-0.012473
2736,-0.019652,0.024037,0.023687
2737,0.017426,0.005964,0.005607
2738,-0.019652,0.005964,0.005607
2739,0.017426,0.005964,-0.030552
2740,-0.001113,0.005964,0.005607
2741,-0.019652,0.024037,-0.012473
2742,-0.001113,0.005964,-0.012473
2743,-0.001113,0.024037,0.023687
2744,-0.019652,0.005964,0.041767
2745,0.017426,0.005964,0.005607
2746,-0.001113,0.005964,0.023687
2747,0.017426,0.005964,0.005607
2748,-0.001113,0.04211,0.005607
2749,-0.019652,0.005964,0.005607
2750,-0.001113,0.005964,0.023687
2751,-0.001113,-0.01211,0.005607
2752,-0.001113,0.005964,-0.012473
2753,0.017426,0.005964,-0.012473
2754,-0.001113,-0.01211,-0.012473
2755,-0.001113,-0.01211,-0.012473
2756,-0.019652,0.005964,-0.030552
2757,-0.001113,0.005964,0.005607
2758,-0.019652,0.005964,-0.012473
2759,-0.001113,0.005964,-0.012473
2760,-0.038191,0.005964,-0.012473
2761,-0.019652,0.024037,0.023687
2762,-0.019652,0.005964,0.023687
2763,-0.001113,0.005964,0.023687
2764,-0.001113,0.024037,0.005607
2765,0.017426,-0.030183,0.023687
2766,-0.019652,0.005964,0.005607
2767,-0.019652,0.005964,0.005607
2768,0.017426,-0.01211,0.005607
2769,-0.001113,0.005964,-0.012473
2770,-0.019652,-0.01211,-0.012473
2771,-0.001113,-0.01211,0.005607
2772,-0.038191,0.005964,-0.012473
2773,-0.001113,0.005964,-0.012473
2774,0.017426,0.024037,-0.048632
2775,-0.001113,0.024037,0.005607
2776,-0.001113,0.005964,0.005607
2777,0.017426,-0.01211,-0.012473
2778,0.017426,0.024037,0.005607
2779,0.017426,0.005964,0.023687
2780,-0.001113,0.024037,-0.012473
2781,-0.001113,0.024037,0.023687
2782,-0.001113,0.005964,0.023687
2783,-0.019652,0.005964,0.041767
2784,-0.001113,0.005964,0.023687
2785,-0.001113,0.005964,0.041767
2786,0.017426,0.005964,0.041767
2787,0.017426,0.005964,0.005607
2788,0.017426,0.024037,-0.012473
2789,-0.019652,-0.01211,-0.012473
2790,-0.001113,0.04211,-0.012473
2791,0.017426,0.005964,-0.012473
2792,-0.019652,0.005964,-0.030552
2793,-0.019652,0.005964,-0.012473
2794,-0.001113,-0.01211,-0.012473
2795,-0.019652,0.024037,-0.012473
2796,-0.001113,0.005964,0.005607
2797,-0.001113,0.024037,0.023687
2798,-0.019652,-0.01211,0.005607
2799,-0.001113,0.005964,0.023687
2800,-0.001113,0.024037,0.023687
2801,-0.001113,0.005964,0.023687
2802,0.017426,0.005964,0.005607
2803,-0.019652,0.005964,0.005607
2804,-0.019652,-0.01211,0.023687
2805,0.017426,0.005964,-0.012473
2806,-0.001113,0.005964,-0.012473
2807,-0.001113,-0.01211,0.005607
2808,-0.001113,0.005964,-0.012473
2809,-0.001113,0.005964,-0.012473
2810,-0.019652,0.04211,-0.030552
2811,-0.001113,-0.01211,-0.012473
2812,-0.001113,0.005964,-0.012473
2813,-0.001113,0.024037,-0.030552
2814,0.017426,0.005964,0.005607
2815,0.017426,0.005964,-0.012473
2816,-0.001113,0.024037,-0.012473
2817,-0.001113,-0.01211,0.023687
2818,-0.019652,0.005964,0.041767
2819,-0.001113,0.024037,0.023687
2820,-0.019652,-0.01211,0.023687
2821,-0.019652,0.005964,0.023687
2822,-0.001113,0.005964,0.005607
2823,-0.001113,-0.01211,0.005607
2824,-0.001113,0.005964,0.023687
2825,-0.001113,0.005964,0.005607
2826,-0.019652,0.005964,-0.012473
2827,-0.001113,-0.01211,-0.030552
2828,-0.019652,0.005964,-0.012473
2829,-0.001113,0.005964,-0.012473
2830,-0.001113,-0.01211,-0.030552
2831,-0.019652,0.024037,0.005607
2832,0.017426,0.005964,0.005607
2833,-0.001113,0.024037,-0.048632
2834,-0.001113,0.005964,-0.012473
2835,-0.019652,0.005964,0.023687
2836,-0.001113,-0.01211,0.023687
2837,0.017426,0.04211,0.005607
2838,-0.001113,0.005964,0.005607
2839,-0.019652,0.005964,0.023687
2840,-0.001113,0.005964,-0.012473
2841,-0.001113,-0.01211,-0.030552
2842,-0.019652,0.005964,-0.012473
2843,-0.001113,0.005964,-0.012473
2844,-0.001113,0.005964,-0.012473
2845,0.017426,0.005964,-0.012473
2846,-0.001113,0.005964,0.005607
2847,0.017426,0.005964,-0.012473
2848,-0.001113,0.024037,-0.012473
2849,-0.001113,0.024037,0.005607
2850,-0.001113,0.005964,0.041767
2851,-0.001113,0.005964,0.005607
2852,0.017426,0.024037,0.023687
2853,0.017426,0.024037,0.041767
2854,-0.019652,0.024037,0.041767
2855,-0.001113,0.005964,0.023687
2856,-0.001113,0.005964,0.023687
2857,-0.001113,0.005964,0.023687
2858,-0.038191,0.005964,-0.012473
2859,-0.001113,0.005964,-0.012473
2860,-0.001113,0.005964,0.023687
2861,-0.001113,0.005964,0.005607
2862,-0.019652,0.024037,0.005607
2863,-0.001113,0.024037,-0.012473
2864,-0.001113,0.005964,0.005607
2865,0.017426,0.024037,-0.012473
2866,-0.019652,0.005964,-0.030552
2867,-0.019652,0.024037,0.005607
2868,-0.001113,-0.01211,-0.030552
2869,-0.001113,-0.01211,-0.012473
2870,-0.001113,0.005964,0.005607
2871,-0.019652,0.005964,0.023687
2872,-0.001113,0.005964,0.023687
2873,-0.001113,0.005964,0.005607
2874,0.017426,0.005964,0.023687
2875,-0.001113,0.005964,0.005607
2876,-0.001113,0.005964,0.005607
2877,-0.019652,0.005964,0.023687
2878,0.017426,0.005964,0.023687
2879,-0.001113,0.024037,-0.012473
2880,0.017426,0.005964,0.005607
2881,-0.019652,0.005964,-0.012473
2882,-0.001113,-0.01211,-0.030552
2883,-0.019652,0.005964,-0.030552
2884,-0.019652,-0.01211,-0.012473
2885,0.017426,0.005964,-0.012473
2886,-0.001113,0.005964,-0.012473
2887,-0.019652,0.024037,-0.012473
2888,-0.001113,0.005964,0.023687
2889,-0.001113,0.024037,0.023687
2890,-0.019652,0.024037,-0.012473
2891,-0.001113,0.024037,0.005607
2892,-0.001113,0.005964,0.023687
2893,-0.001113,-0.01211,-0.012473
2894,-0.019652,0.024037,-0.012473
2895,-0.001113,0.005964,0.023687
2896,-0.038191,0.005964,0.005607
2897,0.017426,0.005964,0.005607
2898,-0.001113,0.005964,-0.012473
2899,-0.001113,0.005964,0.005607
2900,-0.001113,0.005964,0.005607
2901,-0.001113,0.005964,-0.030552
2902,-0.001113,0.005964,0.005607
2903,-0.038191,0.005964,0.023687
2904,0.017426,0.024037,0.005607
2905,0.017426,0.005964,0.005607
2906,-0.001113,0.005964,0.023687
2907,-0.001113,0.005964,0.023687
2908,-0.001113,0.005964,0.023687
2909,-0.019652,0.005964,0.023687
2910,-0.001113,0.005964,0.023687
2911,-0.001113,0.005964,0.005607
2912,-0.001113,0.005964,0.041767
2913,-0.001113,0.005964,0.023687
2914,-0.019652,0.005964,0.005607
2915,-0.001113,-0.01211,0.023687
2916,0.017426,0.005964,-0.030552
2917,-0.019652,-0.01211,-0.012473
2918,-0.001113,-0.01211,-0.012473
2919,-0.001113,0.005964,-0.012473
2920,0.017426,0.005964,0.005607
2921,-0.019652,0.024037,-0.012473
2922,0.017426,0.005964,0.005607
2923,-0.001113,-0.01211,0.023687
2924,0.017426,0.005964,0.023687
2925,0.017426,-0.01211,0.023687
2926,-0.001113,-0.01211,0.005607
2927,0.017426,0.005964,0.005607
2928,-0.001113,-0.01211,-0.012473
2929,-0.001113,0.005964,-0.030552
2930,-0.001113,-0.01211,0.023687
2931,-0.001113,0.005964,0.023687
2932,-0.001113,0.024037,-0.012473
2933,-0.019652,0.005964,-0.012473
2934,-0.019652,0.005964,0.023687
2935,-0.001113,0.005964,0.023687
2936,-0.001113,-0.01211,-0.030552
2937,0.017426,0.005964,0.005607
2938,-0.019652,0.005964,0.023687
2939,-0.001113,0.005964,-0.012473
2940,-0.001113,0.005964,0.023687
2941,-0.019652,0.005964,0.023687
2942,-0.019652,0.005964,0.023687
2943,-0.001113,0.005964,0.005607
2944,0.017426,0.005964,0.005607
2945,-0.001113,0.005964,0.023687
2946,-0.019652,0.005964,0.005607
2947,-0.001113,0.005964,0.005607
2948,0.017426,0.024037,0.023687
2949,-0.019652,0.005964,-0.012473
2950,-0.019652,-0.01211,-0.012473
2951,-0.001113,0.005964,-0.030552
2952,0.017426,-0.01211,-0.012473
2953,-0.001113,0.005964,-0.012473
2954,-0.001113,0.005964,-0.048632
2955,-0.019652,0.024037,0.005607
2956,-0.001113,0.005964,0.005607
2957,-0.001113,0.005964,-0.012473
2958,-0.001113,0.005964,0.005607
2959,-0.019652,-0.01211,0.023687
2960,-0.001113,0.005964,0.041767
2961,0.017426,0.024037,0.023687
2962,-0.001113,0.024037,0.023687
2963,-0.001113,0.005964,0.023687
2964,0.017426,0.005964,0.005607
2965,-0.001113,0.005964,0.023687
2966,0.017426,0.005964,0.005607
2967,-0.001113,0.005964,-0.012473
2968,-0.001113,-0.01211,-0.012473
2969,-0.019652,-0.030183,-0.030552
2970,-0.001113,0.005964,-0.012473
2971,-0.019652,-0.01211,-0.012473
2972,0.017426,0.005964,-0.030552
2973,-0.001113,-0.01211,0.005607
2974,-0.001113,0.005964,-0.030552
2975,-0.019652,-0.01211,-0.030552
2976,-0.001113,-0.01211,0.023687
2977,0.017426,0.024037,0.023687
2978,0.017426,0.024037,0.005607
2979,-0.001113,0.005964,0.041767
2980,-0.001113,0.024037,0.023687
2981,-0.001113,0.024037,0.005607
2982,-0.019652,-0.01211,-0.012473
2983,-0.019652,0.005964,0.023687
2984,-0.019652,0.005964,0.005607
2985,-0.001113,-0.01211,-0.030552
2986,-0.001113,0.005964,-0.012473
2987,-0.001113,0.024037,0.005607
2988,-0.001113,0.024037,-0.012473
2989,-0.001113,0.024037,-0.012473
2990,-0.001113,-0.01211,0.023687
2991,-0.001113,-0.01211,0.005607
2992,-0.019652,-0.01211,-0.012473
2993,-0.001113,0.005964,0.005607
2994,-0.001113,-0.01211,0.023687
2995,-0.038191,0.024037,0.023687
2996,-0.019652,0.024037,0.005607
2997,-0.001113,0.024037,0.023687
2998,-0.001113,0.005964,0.041767
2999,-0.001113,0.005964,0.005607
3000,-0.001113,-0.01211,0.005607
3001,-0.001113,0.005964,0.005607
3002,-0.001113,0.005964,0.005607
3003,-0.019652,0.005964,-0.012473
3004,-0.001113,0.005964,-0.012473
3005,0.017426,0.005964,0.005607
3006,-0.001113,0.005964,-0.012473
3007,-0.001113,0.005964,-0.030552
3008,-0.001113,0.005964,0.005607
3009,-0.001113,0.005964,-0.012473
3010,-0.001113,-0.030183,-0.012473
3011,-0.019652,0.005964,0.005607
3012,-0.001113,0.005964,0.005607
3013,-0.001113,0.005964,0.023687
3014,0.017426,0.005964,0.005607
3015,-0.001113,0.005964,0.005607
3016,-0.001113,0.005964,0.023687
3017,-0.001113,0.005964,0.005607
3018,-0.001113,0.005964,0.005607
3019,-0.001113,0.005964,0.023687
3020,-0.001113,0.024037,0.005607
3021,-0.001113,0.005964,0.005607
3022,-0.019652,0.005964,0.041767
3023,-0.001113,0.005964,0.005607
3024,-0.019652,0.005964,0.005607
3025,-0.001113,-0.01211,0.005607
3026,-0.001113,0.005964,0.023687
3027,-0.019652,0.005964,-0.012473
3028,-0.001113,0.024037,-0.030552
3029,0.017426,-0.01211,0.005607
3030,-0.001113,0.005964,0.005607
3031,-0.001113,-0.01211,-0.030552
3032,-0.001113,0.005964,0.005607
3033,-0.001113,0.005964,0.005607
3034,-0.019652,0.005964,0.041767
3035,-0.019652,0.005964,0.023687
3036,-0.001113,0.005964,0.005607
3037,-0.001113,0.005964,0.041767
3038,-0.001113,0.005964,0.023687
3039,-0.019652,0.005964,0.005607
3040,-0.038191,0.005964,0.023687
3041,-0.001113,-0.01211,0.005607
3042,-0.001113,0.005964,-0.012473
3043,-0.001113,0.005964,-0.012473
3044,-0.019652,0.005964,0.005607
3045,-0.001113,-0.01211,0.005607
3046,0.017426,0.005964,-0.030552
3047,-0.019652,0.005964,0.005607
3048,-0.001113,-0.01211,0.005607
3049,-0.001113,-0.01211,-0.030552
3050,-0.001113,-0.01211,0.005607
3051,-0.001113,-0.01211,0.005607
3052,-0.001113,0.005964,0.023687
3053,-0.001113,0.005964,-0.012473
3054,-0.019652,0.005964,0.005607
3055,-0.001113,0.005964,-0.012473
3056,-0.019652,0.005964,-0.012473
3057,-0.019652,0.024037,-0.030552
3058,-0.001113,0.005964,0.005607
3059,-0.001113,0.005964,-0.012473
3060,0.017426,0.005964,-0.012473
3061,-0.001113,0.005964,-0.030552
3062,-0.001113,0.005964,0.005607
3063,-0.001113,0.024037,0.005607
3064,-0.001113,-0.01211,-0.012473
3065,0.017426,0.024037,-0.012473
3066,-0.001113,-0.01211,-0.012473
3067,-0.001113,0.005964,0.005607
3068,-0.019652,0.005964,0.005607
3069,-0.019652,-0.01211,0.023687
3070,0.035965,0.005964,0.041767
3071,-0.001113,0.005964,0.023687
3072,-0.001113,0.005964,0.023687
3073,-0.019652,0.005964,0.005607
3074,-0.001113,0.005964,0.005607
3075,-0.001113,0.005964,0.023687
3076,-0.019652,0.005964,0.005607
3077,-0.001113,0.005964,-0.012473
3078,-0.001113,0.005964,-0.030552
3079,-0.019652,0.024037,-0.030552
3080,-0.001113,0.024037,-0.012473
3081,-0.001113,0.005964,-0.030552
3082,-0.001113,0.024037,-0.012473
3083,-0.001113,0.024037,0.005607
3084,-0.001113,-0.01211,-0.012473
3085,-0.019652,0.005964,0.005607
3086,-0.001113,0.005964,0.005607
3087,-0.001113,-0.01211,0.005607
3088,-0.001113,0.005964,0.005607
3089,-0.001113,-0.01211,0.005607
3090,-0.019652,0.005964,0.023687
3091,-0.001113,0.024037,0.023687
3092,-0.001113,0.005964,0.005607
3093,-0.001113,0.005964,0.059847
3094,0.017426,0.005964,0.005607
3095,-0.001113,0.005964,-0.012473
3096,-0.001113,-0.01211,-0.012473
3097,0.017426,-0.01211,0.005607
3098,-0.001113,-0.01211,-0.012473
3099,-0.019652,0.005964,-0.030552
3100,-0.019652,0.005964,-0.012473
3101,-0.001113,0.005964,-0.012473
3102,-0.001113,0.005964,-0.048632
3103,-0.001113,0.024037,-0.012473
3104,-0.019652,-0.01211,-0.012473
3105,-0.001113,0.005964,0.023687
3106,-0.019652,0.005964,0.005607
3107,-0.001113,0.005964,0.005607
3108,-0.001113,-0.01211,0.023687
3109,0.017426,0.005964,0.023687
3110,-0.001113,0.005964,0.023687
3111,-0.019652,0.005964,0.059847
3112,-0.001113,0.024037,0.023687
3113,-0.001113,0.024037,0.023687
3114,-0.001113,0.005964,0.005607
3115,0.017426,0.005964,0.005607
3116,-0.001113,0.024037,-0.012473
3117,-0.001113,0.005964,-0.030552
3118,-0.001113,-0.01211,0.005607
3119,-0.001113,-0.01211,-0.012473
3120,-0.001113,0.005964,-0.012473
3121,-0.001113,-0.01211,-0.012473
3122,-0.001113,0.024037,0.023687
3123,-0.001113,0.005964,0.023687
3124,-0.001113,0.024037,0.023687
3125,-0.001113,0.024037,0.005607
3126,-0.001113,0.005964,0.023687
3127,-0.001113,0.005964,0.005607
3128,-0.001113,0.024037,0.077927
3129,-0.019652,0.005964,0.023687
3130,-0.001113,-0.01211,0.005607
3131,-0.001113,0.04211,-0.012473
3132,-0.001113,0.005964,0.023687
3133,-0.019652,0.005964,0.005607
3134,0.017426,-0.01211,-0.030552
3135,-0.001113,0.005964,-0.030552
3136,-0.001113,0.005964,-0.012473
3137,-0.019652,0.005964,-0.012473
3138,-0.001113,0.005964,-0.012473
3139,-0.001113,0.005964,0.023687
3140,-0.019652,0.005964,0.023687
3141,-0.001113,0.024037,-0.012473
3142,-0.019652,0.005964,0.005607
3143,-0.019652,0.024037,0.005607
3144,-0.001113,0.005964,-0.012473
3145,-0.001113,0.005964,-0.012473
3146,-0.001113,0.005964,0.005607
3147,-0.001113,0.024037,-0.012473
3148,-0.001113,0.005964,-0.012473
3149,-0.001113,0.005964,-0.012473
3150,-0.019652,-0.01211,0.005607
3151,0.017426,0.005964,0.005607
3152,-0.001113,0.005964,-0.030552
3153,-0.001113,0.005964,0.005607
3154,-0.001113,0.005964,0.005607
3155,-0.001113,0.005964,0.005607
3156,0.017426,-0.01211,0.005607
3157,-0.001113,0.005964,0.023687
3158,-0.001113,-0.01211,0.041767
3159,0.017426,0.024037,0.005607
3160,-0.019652,0.005964,0.005607
3161,0.017426,0.005964,0.023687
3162,-0.019652,0.005964,0.005607
3163,-0.001113,-0.01211,0.023687
3164,-0.001113,0.005964,0.023687
3165,-0.001113,0.024037,0.005607
3166,-0.019652,0.024037,-0.012473
3167,-0.019652,0.005964,-0.030552
3168,-0.019652,0.024037,-0.012473
3169,-0.001113,0.005964,-0.012473
3170,-0.001113,-0.01211,-0.030552
3171,-0.001113,0.005964,0.005607
3172,-0.001113,0.005964,-0.030552
3173,-0.019652,-0.01211,-0.030552
3174,-0.001113,0.005964,0.005607
3175,-0.019652,0.005964,0.005607
3176,-0.001113,0.005964,0.005607
3177,-0.019652,0.005964,0.005607
3178,-0.001113,0.005964,0.023687
3179,-0.001113,0.04211,0.059847
3180,-0.019652,0.005964,0.005607
3181,-0.001113,0.024037,0.023687
3182,0.017426,0.024037,0.023687
3183,-0.001113,0.024037,-0.012473
3184,-0.019652,-0.01211,-0.012473
3185,-0.001113,0.005964,0.005607
3186,-0.001113,0.005964,0.005607
3187,-0.001113,-0.01211,-0.012473
3188,-0.019652,0.024037,-0.030552
3189,0.017426,0.005964,-0.012473
3190,-0.001113,-0.01211,-0.012473
3191,-0.001113,-0.01211,-0.012473
3192,-0.001113,0.005964,0.005607
3193,-0.001113,-0.01211,0.023687
3194,-0.001113,0.005964,-0.012473
3195,-0.001113,0.005964,0.005607
3196,-0.019652,0.005964,0.041767
3197,-0.001113,0.005964,0.023687
3198,-0.019652,0.005964,0.005607
3199,0.035965,0.005964,0.023687
3200,-0.019652,0.005964,0.005607
3201,-0.001113,0.005964,-0.030552
3202,-0.001113,0.005964,-0.030552
3203,-0.001113,-0.01211,0.005607
3204,-0.001113,0.005964,-0.012473
3205,-0.001113,0.005964,-0.012473
3206,0.017426,0.005964,0.005607
3207,0.017426,0.005964,-0.012473
3208,-0.001113,0.005964,-0.030552
3209,-0.001113,0.005964,0.005607
3210,-0.001113,0.005964,0.023687
3211,-0.001113,-0.01211,0.023687
3212,-0.019652,0.024037,0.023687
3213,0.017426,0.024037,0.005607
3214,-0.001113,0.024037,0.041767
3215,-0.001113,0.005964,0.005607
3216,-0.001113,0.005964,0.023687
3217,-0.001113,0.005964,0.023687
3218,-0.001113,-0.01211,-0.012473
3219,-0.001113,0.024037,-0.012473
3220,-0.001113,-0.01211,0.005607
3221,-0.001113,0.005964,0.005607
3222,-0.001113,0.005964,0.005607
3223,-0.001113,0.024037,-0.012473
3224,-0.019652,0.005964,0.005607
3225,-0.019652,0.005964,-0.012473
3226,-0.001113,0.024037,-0.012473
3227,-0.001113,0.024037,0.005607
3228,-0.001113,0.005964,0.023687
3229,-0.001113,0.024037,0.005607
3230,-0.001113,0.005964,0.023687
3231,-0.019652,-0.01211,0.041767
3232,-0.001113,0.005964,0.023687
3233,0.017426,0.005964,-0.030552
3234,-0.001113,0.024037,0.023687
3235,-0.001113,0.005964,0.005607
3236,0.091583,0.005964,0.005607
3237,-0.001113,0.005964,-0.030552
3238,-0.001113,0.005964,0.005607
3239,0.017426,0.005964,-0.012473
3240,-0.001113,0.005964,-0.012473
3241,0.017426,0.005964,-0.012473
3242,-0.001113,0.005964,-0.030552
3243,0.017426,0.024037,-0.048632
3244,-0.001113,0.005964,-0.012473
3245,-0.001113,0.024037,0.005607
3246,-0.001113,0.005964,0.023687
3247,-0.001113,0.005964,0.005607
3248,-0.001113,0.005964,0.005607
3249,-0.019652,-0.01211,0.023687
3250,-0.001113,-0.01211,0.005607
3251,-0.001113,0.005964,0.023687
3252,0.017426,0.024037,0.023687
3253,-0.001113,0.024037,0.005607
3254,-0.001113,0.005964,-0.012473
3255,-0.001113,0.005964,-0.030552
3256,-0.001113,0.005964,-0.012473
3257,-0.001113,-0.01211,-0.012473
3258,-0.001113,0.005964,-0.030552
3259,-0.019652,0.005964,-0.012473
3260,-0.001113,0.005964,-0.012473
3261,0.017426,0.005964,-0.012473
3262,-0.019652,0.005964,0.005607
3263,-0.001113,-0.01211,0.023687
3264,0.017426,-0.01211,-0.012473
3265,-0.001113,0.024037,0.005607
3266,-0.001113,0.005964,0.023687
3267,-0.001113,0.024037,0.023687
3268,-0.001113,0.024037,0.023687
3269,-0.019652,-0.01211,0.023687
3270,-0.019652,0.005964,0.023687
3271,-0.019652,0.005964,0.023687
3272,-0.019652,0.005964,0.005607
3273,0.017426,0.005964,0.023687
3274,-0.001113,0.024037,0.005607
3275,-0.019652,0.005964,-0.030552
3276,-0.019652,0.024037,-0.012473
3277,-0.001113,0.024037,-0.012473
3278,-0.019652,0.005964,-0.012473
3279,-0.001113,0.024037,-0.012473
3280,-0.019652,0.005964,0.005607
3281,-0.001113,-0.01211,0.005607
3282,-0.001113,0.005964,-0.012473
3283,0.017426,-0.01211,0.005607
3284,-0.001113,0.005964,0.005607
3285,-0.019652,-0.01211,0.005607
3286,-0.001113,0.024037,-0.012473
3287,-0.001113,0.005964,0.005607
3288,0.017426,0.005964,-0.012473
3289,-0.019652,-0.01211,-0.012473
3290,0.035965,0.005964,-0.030552
3291,-0.001113,0.005964,0.005607
3292,-0.001113,-0.01211,0.005607
3293,-0.001113,0.024037,-0.012473
3294,-0.001113,0.005964,0.005607
3295,-0.001113,0.024037,0.005607
3296,-0.001113,0.005964,0.005607
3297,-0.001113,0.005964,0.023687
3298,-0.019652,0.005964,0.041767
3299,-0.019652,0.024037,0.059847
3300,-0.001113,0.005964,0.023687
3301,-0.019652,0.005964,0.023687
3302,-0.001113,0.024037,0.023687
3303,-0.001113,0.005964,0.005607
3304,-0.001113,0.005964,0.005607
3305,0.017426,0.024037,0.005607
3306,-0.001113,0.005964,0.005607
3307,-0.001113,0.005964,0.005607
3308,-0.001113,0.005964,-0.012473
3309,-0.019652,0.005964,-0.012473
3310,-0.019652,0.005964,-0.012473
3311,-0.001113,-0.01211,-0.030552
3312,-0.019652,0.024037,0.005607
3313,-0.001113,0.005964,-0.012473
3314,-0.001113,0.005964,-0.030552
3315,0.017426,-0.01211,-0.012473
3316,-0.019652,0.005964,0.005607
3317,-0.001113,0.005964,-0.012473
3318,-0.001113,0.005964,-0.012473
3319,-0.001113,0.024037,0.023687
3320,-0.001113,0.096331,0.023687
3321,-0.001113,0.005964,0.005607
3322,-0.001113,-0.01211,0.005607
3323,-0.019652,0.005964,0.005607
3324,0.017426,0.005964,-0.012473
3325,-0.001113,0.005964,-0.030552
3326,-0.019652,0.024037,0.005607
3327,-0.001113,0.005964,-0.012473
3328,-0.001113,0.005964,-0.030552
3329,0.017426,-0.01211,-0.012473
3330,-0.001113,0.005964,-0.012473
3331,-0.001113,-0.01211,-0.012473
3332,-0.019652,0.005964,0.005607
3333,-0.001113,0.005964,-0.012473
3334,0.017426,0.005964,0.005607
3335,-0.019652,0.024037,0.005607
3336,0.017426,0.005964,0.023687
3337,-0.001113,0.005964,0.023687
3338,0.017426,0.005964,0.005607
3339,-0.001113,-0.01211,0.023687
3340,-0.019652,0.005964,0.023687
3341,-0.001113,0.005964,0.005607
3342,0.017426,0.005964,-0.030552
3343,-0.019652,0.024037,-0.012473
3344,-0.001113,0.005964,-0.012473
3345,-0.001113,-0.01211,-0.012473
3346,-0.001113,-0.01211,-0.012473
3347,0.017426,0.024037,-0.012473
3348,-0.001113,0.005964,-0.012473
3349,-0.001113,0.005964,-0.012473
3350,-0.001113,0.024037,0.023687
3351,-0.019652,0.005964,0.041767
3352,-0.001113,-0.01211,-0.012473
3353,-0.001113,0.005964,0.005607
3354,0.017426,-0.01211,0.023687
3355,-0.001113,-0.01211,0.023687
3356,-0.001113,0.005964,0.005607
3357,0.017426,-0.01211,0.023687
3358,-0.001113,0.005964,0.005607
3359,-0.019652,-0.01211,-0.012473
3360,-0.019652,0.024037,-0.012473
3361,-0.001113,0.005964,0.005607
3362,-0.001113,-0.030183,-0.012473
3363,-0.001113,0.005964,-0.012473
3364,-0.001113,-0.01211,0.005607
3365,-0.019652,0.005964,0.005607
3366,0.017426,0.005964,0.005607
3367,-0.001113,0.024037,0.005607
3368,-0.001113,0.005964,0.023687
3369,-0.001113,0.005964,0.041767
3370,-0.019652,0.005964,-0.012473
3371,-0.019652,0.005964,0.005607
3372,0.017426,0.005964,0.023687
3373,-0.001113,0.005964,0.005607
3374,-0.019652,0.005964,0.005607
3375,0.017426,-0.01211,0.023687
3376,-0.001113,0.005964,0.005607
3377,-0.019652,0.005964,-0.012473
3378,0.017426,0.005964,-0.012473
3379,-0.019652,0.024037,0.005607
3380,-0.019652,0.005964,-0.012473
3381,-0.001113,0.005964,-0.012473
3382,-0.001113,0.005964,0.005607
3383,-0.019652,0.005964,0.005607
3384,-0.019652,0.024037,-0.012473
3385,-0.001113,0.024037,0.005607
3386,-0.001113,0.005964,-0.012473
3387,-0.019652,-0.01211,0.023687
3388,-0.001113,-0.01211,-0.012473
3389,-0.001113,0.005964,0.005607
3390,-0.001113,0.024037,0.023687
3391,-0.001113,0.024037,0.005607
3392,-0.001113,0.024037,0.005607
3393,-0.019652,-0.01211,0.023687
3394,-0.001113,0.005964,0.005607
3395,-0.001113,-0.01211,-0.012473
3396,-0.001113,0.005964,0.023687
3397,0.017426,0.005964,0.023687
3398,-0.001113,0.005964,0.005607
3399,-0.001113,-0.01211,-0.012473
3400,-0.019652,0.024037,0.005607
3401,-0.019652,0.024037,-0.030552
3402,-0.001113,0.005964,-0.048632
3403,-0.001113,0.005964,-0.012473
3404,-0.001113,0.024037,0.023687
3405,-0.001113,0.005964,-0.030552
3406,-0.019652,0.005964,0.005607
3407,-0.001113,0.005964,0.005607
3408,-0.019652,0.005964,0.023687
3409,-0.019652,-0.01211,0.005607
3410,-0.001113,-0.01211,0.005607
3411,-0.019652,0.005964,0.005607
3412,-0.038191,0.005964,-0.012473
3413,0.017426,0.024037,-0.012473
3414,-0.001113,-0.030183,0.005607
3415,0.017426,0.024037,-0.012473
3416,-0.001113,0.005964,-0.030552
3417,-0.019652,0.005964,-0.030552
3418,-0.001113,0.005964,-0.030552
3419,-0.001113,0.005964,-0.030552
3420,-0.001113,0.024037,-0.012473
3421,-0.001113,0.005964,0.005607
3422,-0.001113,0.024037,0.023687
3423,-0.001113,0.005964,0.023687
3424,-0.019652,0.024037,0.005607
3425,-0.019652,0.005964,0.041767
3426,0.017426,0.005964,0.023687
3427,-0.001113,-0.01211,0.023687
3428,0.017426,-0.01211,0.023687
3429,-0.001113,0.024037,0.023687
3430,-0.001113,0.005964,0.005607
3431,-0.019652,0.005964,0.005607
3432,-0.019652,0.005964,0.023687
3433,-0.001113,0.005964,0.005607
3434,-0.001113,0.005964,-0.030552
3435,-0.001113,-0.01211,-0.030552
3436,-0.001113,0.024037,-0.030552
3437,0.017426,0.005964,-0.030552
3438,0.017426,0.005964,-0.030552
3439,-0.001113,0.005964,0.005607
3440,-0.019652,0.024037,-0.030552
3441,-0.019652,0.005964,-0.012473
3442,-0.001113,0.005964,-0.012473
3443,-0.001113,0.005964,0.041767
3444,-0.05673,0.005964,0.023687
3445,-0.019652,0.005964,0.023687
3446,-0.001113,-0.01211,0.059847
3447,-0.001113,0.024037,0.041767
3448,-0.019652,0.005964,0.023687
3449,-0.001113,0.024037,0.077927
3450,-0.001113,0.04211,0.023687
3451,-0.001113,-0.01211,-0.012473
3452,-0.001113,0.005964,0.005607
3453,-0.001113,0.005964,-0.012473
3454,-0.001113,0.024037,-0.012473
3455,-0.001113,-0.01211,-0.030552
3456,-0.001113,0.005964,-0.012473
3457,-0.001113,0.005964,0.023687
3458,0.017426,0.005964,-0.030552
3459,-0.001113,0.005964,0.005607
3460,-0.001113,0.024037,-0.012473
3461,-0.019652,0.024037,0.023687
3462,-0.019652,0.005964,-0.012473
3463,0.017426,0.005964,0.023687
3464,-0.001113,-0.01211,0.023687
3465,-0.001113,0.005964,0.005607
3466,-0.001113,-0.01211,0.005607
3467,-0.001113,0.005964,0.023687
3468,-0.001113,-0.01211,-0.012473
3469,-0.001113,0.024037,-0.012473
3470,0.017426,0.024037,-0.030552
3471,-0.001113,-0.01211,-0.012473
3472,-0.001113,0.005964,-0.030552
3473,-0.001113,0.024037,-0.030552
3474,-0.019652,-0.01211,-0.012473
3475,-0.019652,0.005964,0.005607
3476,-0.001113,0.024037,-0.030552
3477,-0.001113,-0.01211,0.005607
3478,0.017426,0.005964,0.023687
3479,-0.001113,0.005964,0.023687
3480,-0.001113,0.005964,0.005607
3481,-0.001113,-0.01211,0.023687
3482,-0.001113,-0.01211,0.005607
3483,-0.001113,0.005964,0.023687
3484,-0.019652,0.005964,-0.012473
3485,-0.019652,0.005964,0.023687
3486,-0.038191,0.005964,0.005607
3487,0.017426,-0.01211,-0.012473
3488,-0.019652,0.005964,-0.012473
3489,-0.001113,0.005964,0.005607
3490,-0.019652,0.005964,-0.030552
3491,0.017426,0.005964,-0.030552
3492,-0.001113,0.005964,0.005607
3493,-0.001113,0.005964,0.005607
3494,-0.001113,0.005964,-0.030552
3495,-0.001113,-0.01211,0.005607
3496,-0.019652,0.005964,0.041767
3497,-0.001113,0.005964,0.005607
3498,-0.001113,0.005964,0.023687
3499,-0.001113,0.005964,-0.012473
3500,-0.001113,0.005964,0.005607
3501,-0.001113,0.005964,0.005607
3502,-0.019652,0.024037,0.005607
3503,-0.001113,-0.01211,0.005607
3504,-0.019652,0.005964,-0.012473
3505,-0.001113,0.005964,-0.012473
3506,0.017426,0.024037,0.005607
3507,-0.001113,0.005964,-0.012473
3508,-0.001113,0.005964,-0.012473
3509,-0.019652,0.005964,-0.030552
3510,-0.001113,-0.01211,0.005607
3511,-0.001113,0.005964,0.005607
3512,-0.001113,-0.01211,-0.012473
3513,-0.019652,0.005964,0.023687
3514,0.017426,-0.01211,0.041767
3515,0.017426,0.005964,0.005607
3516,-0.001113,-0.01211,-0.012473
3517,-0.001113,0.005964,0.023687
3518,0.017426,-0.01211,0.041767
3519,-0.001113,0.005964,0.005607
3520,-0.019652,0.005964,0.041767
3521,-0.019652,0.024037,0.023687
3522,-0.019652,0.024037,-0.012473
3523,-0.001113,0.005964,-0.012473
3524,-0.001113,-0.030183,0.005607
3525,-0.001113,0.005964,0.005607
3526,0.017426,0.005964,0.005607
3527,-0.001113,0.024037,-0.030552
3528,-0.001113,0.005964,-0.012473
3529,0.017426,0.024037,-0.012473
3530,-0.001113,0.005964,-0.012473
3531,-0.019652,-0.01211,-0.012473
3532,-0.001113,-0.01211,0.005607
3533,-0.001113,-0.01211,0.005607
3534,-0.001113,-0.01211,0.005607
3535,-0.001113,0.005964,0.023687
3536,-0.001113,0.005964,0.005607
3537,-0.001113,0.005964,0.023687
3538,-0.019652,-0.01211,0.023687
3539,0.017426,0.005964,0.005607
3540,-0.019652,0.024037,-0.012473
3541,-0.019652,0.005964,-0.030552
3542,-0.001113,-0.01211,0.023687
3543,-0.001113,0.005964,0.005607
3544,0.091583,0.005964,-0.012473
3545,-0.001113,0.005964,0.005607
3546,-0.019652,0.005964,-0.012473
3547,-0.019652,0.005964,-0.012473
3548,-0.001113,0.005964,-0.012473
3549,-0.001113,0.005964,0.005607
3550,-0.001113,0.005964,-0.030552
3551,0.017426,0.005964,-0.030552
3552,0.017426,0.005964,0.023687
3553,-0.001113,0.024037,0.005607
3554,-0.001113,0.005964,0.005607
3555,-0.019652,0.005964,0.005607
3556,-0.019652,0.005964,0.041767
3557,-0.001113,0.005964,0.005607
3558,-0.019652,0.005964,0.005607
3559,-0.001113,0.005964,0.041767
3560,-0.019652,0.005964,0.023687
3561,-0.019652,0.024037,0.005607
3562,-0.001113,0.005964,-0.012473
3563,-0.001113,0.005964,0.005607
3564,0.017426,0.005964,-0.012473
3565,-0.019652,0.005964,-0.012473
3566,-0.001113,0.024037,0.005607
3567,-0.001113,0.005964,0.005607
3568,-0.019652,-0.01211,-0.048632
3569,0.017426,0.005964,-0.012473
3570,-0.001113,0.005964,0.005607
3571,0.017426,0.005964,0.023687
3572,-0.019652,-0.01211,0.005607
3573,-0.001113,0.005964,0.023687
3574,-0.001113,0.005964,0.041767
3575,-0.001113,-0.01211,0.005607
3576,-0.019652,0.005964,0.005607
3577,-0.001113,0.005964,0.041767
3578,-0.001113,0.024037,0.023687
3579,-0.001113,0.005964,0.005607
3580,0.017426,0.005964,-0.030552
3581,0.017426,0.005964,-0.012473
3582,-0.019652,0.005964,-0.012473
3583,-0.001113,0.005964,-0.030552
3584,-0.019652,0.005964,-0.012473
3585,-0.019652,-0.01211,0.005607
3586,-0.001113,0.005964,-0.030552
3587,-0.001113,0.005964,-0.012473
3588,-0.001113,-0.01211,0.005607
3589,-0.001113,0.04211,0.041767
3590,-0.001113,0.005964,0.005607
3591,-0.019652,-0.01211,0.041767
3592,-0.001113,0.024037,0.041767
3593,0.017426,0.024037,0.005607
3594,-0.001113,0.005964,0.023687
3595,-0.001113,0.024037,0.005607
3596,-0.001113,0.005964,0.005607
3597,-0.001113,0.005964,-0.012473
3598,-0.019652,0.005964,-0.012473
3599,-0.019652,0.005964,-0.012473
3600,0.017426,0.005964,0.005607
3601,-0.001113,0.005964,0.005607
3602,-0.001113,0.005964,0.005607
3603,-0.001113,-0.01211,-0.030552
3604,0.017426,0.024037,-0.012473
3605,-0.001113,-0.01211,-0.030552
3606,-0.001113,0.005964,0.005607
3607,-0.001113,-0.01211,0.005607
3608,-0.001113,0.005964,0.005607
3609,-0.001113,0.005964,0.005607
3610,-0.001113,0.005964,0.023687
3611,-0.001113,0.005964,0.005607
3612,-0.001113,0.005964,0.023687
3613,-0.001113,0.024037,0.023687
3614,-0.019652,0.005964,-0.012473
3615,-0.019652,0.024037,-0.030552
3616,-0.001113,0.024037,0.005607
3617,-0.001113,-0.01211,-0.012473
3618,-0.001113,-0.01211,-0.012473
3619,-0.001113,0.005964,0.005607
3620,-0.001113,0.005964,-0.012473
3621,-0.001113,0.024037,-0.048632
3622,-0.001113,0.005964,0.005607
3623,-0.019652,0.005964,0.005607
3624,-0.001113,0.005964,0.023687
3625,-0.019652,-0.01211,-0.012473
3626,0.017426,0.024037,0.023687
3627,-0.001113,0.005964,0.023687
3628,-0.001113,0.005964,0.023687
3629,-0.001113,0.005964,-0.012473
3630,-0.001113,0.005964,0.023687
3631,-0.001113,-0.01211,0.005607
3632,0.091583,0.005964,-0.012473
3633,-0.001113,0.005964,-0.012473
3634,-0.019652,0.005964,0.005607
3635,-0.001113,0.005964,-0.012473
3636,-0.001113,0.005964,-0.030552
3637,-0.001113,-0.01211,-0.012473
3638,-0.001113,0.005964,0.005607
3639,-0.019652,-0.01211,-0.030552
3640,-0.001113,0.005964,-0.030552
3641,-0.001113,0.005964,0.023687
3642,-0.019652,0.005964,0.023687
3643,-0.019652,0.005964,-0.012473
3644,-0.001113,0.005964,0.023687
