# Requested Sampling Rate (Hz):,1000
# Actual Sampling Rate (Hz):,998.86
# Requested Duration (s):,5.0
# Actual Duration (s):,5.051
# REST Calibration:,830.1050347222211,832.3250694444425,834.079930555557
# MAX Calibration:,888.0000,890.0000,886.0000
# Normalization: MVC-based  (x_norm = (x - REST) / (MAX - REST))
sample_idx,EMG1,EMG2,EMG3
0,-0.001814,-0.040313,-0.001539
1,0.015458,-0.022975,-0.001539
2,-0.001814,0.029041,-0.0208
3,0.015458,0.011702,-0.0208
4,-0.001814,0.011702,-0.001539
5,-0.001814,0.029041,0.017721
6,0.015458,0.011702,-0.0208
7,-0.001814,0.011702,-0.0208
8,0.015458,-0.022975,-0.001539
9,0.015458,-0.040313,-0.001539
10,-0.019087,-0.022975,-0.001539
11,-0.019087,-0.022975,-0.001539
12,-0.001814,-0.022975,-0.001539
13,0.015458,-0.022975,-0.0208
14,-0.03636,-0.022975,-0.0208
15,-0.001814,-0.005636,-0.0208
16,0.032731,-0.005636,-0.001539
17,0.032731,0.029041,0.017721
18,0.015458,-0.005636,-0.001539
19,-0.001814,0.011702,-0.0208
20,-0.019087,0.011702,-0.001539
21,0.032731,-0.005636,-0.001539
22,0.032731,-0.005636,-0.001539
23,0.015458,-0.005636,-0.001539
24,0.015458,-0.040313,-0.0208
25,-0.001814,-0.022975,-0.0208
26,-0.019087,-0.022975,-0.0208
27,-0.019087,-0.022975,-0.001539
28,-0.03636,-0.022975,-0.001539
29,-0.03636,-0.005636,-0.001539
30,-0.019087,-0.005636,-0.0208
31,-0.019087,0.029041,-0.0208
32,-0.03636,0.011702,0.017721
33,-0.03636,0.029041,-0.0208
34,-0.019087,0.011702,-0.001539
35,-0.001814,-0.005636,0.017721
36,0.032731,-0.005636,-0.001539
37,-0.001814,-0.005636,-0.001539
38,0.032731,-0.005636,-0.001539
39,-0.001814,-0.005636,-0.001539
40,-0.001814,-0.005636,-0.001539
41,0.015458,-0.040313,-0.0208
42,0.015458,-0.022975,-0.001539
43,-0.019087,-0.005636,-0.001539
44,0.015458,0.011702,-0.001539
45,0.015458,0.011702,-0.0208
46,0.015458,0.029041,-0.001539
47,-0.019087,-0.005636,-0.001539
48,-0.001814,-0.022975,-0.001539
49,-0.03636,0.011702,-0.001539
50,-0.001814,-0.005636,-0.001539
51,-0.019087,-0.005636,-0.001539
52,-0.03636,-0.005636,-0.001539
53,-0.019087,0.029041,-0.0208
54,0.032731,-0.022975,-0.001539
55,0.015458,-0.005636,-0.001539
56,-0.001814,0.011702,-0.0208
57,0.032731,0.029041,-0.001539
58,-0.019087,0.011702,0.017721
59,-0.019087,0.029041,-0.001539
60,-0.019087,0.011702,-0.001539
61,-0.019087,-0.022975,-0.001539
62,-0.019087,-0.040313,-0.001539
63,-0.019087,-0.040313,-0.001539
64,-0.001814,-0.022975,-0.001539
65,0.015458,-0.022975,-0.001539
66,-0.019087,0.029041,-0.001539
67,-0.019087,-0.005636,-0.001539
68,-0.019087,-0.005636,-0.001539
69,-0.053632,0.011702,-0.001539
70,-0.001814,0.029041,-0.001539
71,0.015458,-0.022975,-0.001539
72,0.015458,0.029041,-0.001539
73,0.015458,0.011702,-0.0208
74,0.015458,-0.005636,-0.001539
75,-0.019087,-0.022975,-0.001539
76,-0.053632,-0.005636,-0.001539
77,-0.019087,-0.022975,-0.001539
78,-0.019087,-0.022975,0.017721
79,-0.019087,-0.005636,-0.0208
80,-0.019087,0.029041,-0.001539
81,-0.03636,-0.022975,-0.0208
82,-0.019087,0.011702,-0.001539
83,0.015458,0.029041,-0.001539
84,-0.001814,-0.040313,-0.001539
85,-0.001814,-0.005636,-0.0208
86,-0.001814,-0.005636,-0.0208
87,-0.019087,-0.005636,-0.0208
88,-0.019087,0.011702,-0.0208
89,-0.03636,0.029041,0.017721
90,-0.001814,0.011702,-0.001539
91,-0.053632,-0.022975,-0.001539
92,-0.019087,0.011702,-0.001539
93,-0.019087,0.011702,-0.001539
94,-0.03636,-0.022975,-0.001539
95,-0.03636,0.011702,-0.001539
96,-0.001814,0.011702,-0.001539
97,-0.019087,0.029041,-0.001539
98,-0.019087,0.029041,-0.001539
99,-0.019087,-0.005636,-0.001539
100,0.015458,-0.022975,-0.001539
101,-0.001814,-0.005636,-0.001539
102,0.015458,0.011702,-0.001539
103,-0.001814,-0.005636,-0.001539
104,-0.001814,-0.022975,-0.0208
105,0.015458,0.011702,-0.001539
106,0.015458,0.029041,-0.001539
107,0.015458,-0.005636,-0.001539
108,-0.001814,-0.005636,-0.001539
109,-0.001814,0.011702,-0.001539
110,-0.019087,-0.005636,-0.001539
111,0.015458,0.011702,-0.001539
112,-0.019087,0.011702,0.017721
113,-0.019087,-0.005636,0.036981
114,-0.03636,-0.022975,-0.001539
115,-0.019087,-0.057652,-0.001539
116,-0.001814,-0.005636,-0.001539
117,-0.019087,-0.022975,-0.001539
118,-0.001814,-0.005636,0.017721
119,-0.001814,0.029041,-0.001539
120,-0.019087,0.011702,-0.0208
121,-0.001814,-0.005636,-0.001539
122,-0.001814,0.011702,-0.0208
123,-0.001814,0.011702,-0.001539
124,-0.019087,-0.005636,-0.001539
125,-0.019087,-0.005636,-0.001539
126,-0.070905,-0.022975,-0.0208
127,-0.03636,-0.022975,-0.001539
128,-0.053632,-0.022975,-0.001539
129,-0.019087,-0.005636,-0.001539
130,-0.03636,-0.005636,-0.001539
131,-0.03636,0.011702,-0.001539
132,-0.03636,0.029041,-0.0208
133,-0.019087,-0.022975,0.017721
134,-0.019087,-0.005636,-0.001539
135,0.015458,-0.040313,-0.001539
136,-0.001814,-0.022975,-0.001539
137,0.015458,-0.005636,-0.001539
138,-0.001814,-0.005636,-0.0208
139,-0.019087,0.011702,-0.001539
140,0.015458,-0.022975,-0.0208
141,-0.019087,-0.022975,-0.001539
142,-0.03636,-0.005636,-0.001539
143,-0.001814,-0.040313,-0.001539
144,-0.001814,-0.040313,-0.001539
145,0.015458,-0.022975,-0.0208
146,-0.019087,-0.005636,-0.0208
147,-0.019087,-0.005636,-0.001539
148,-0.019087,0.011702,-0.001539
149,-0.019087,0.011702,-0.001539
150,-0.03636,0.011702,-0.001539
151,-0.03636,0.046379,-0.001539
152,-0.03636,0.029041,0.017721
153,-0.019087,0.011702,-0.001539
154,-0.001814,-0.005636,0.017721
155,-0.001814,-0.005636,-0.04006
156,0.032731,-0.022975,-0.001539
157,0.015458,-0.057652,-0.001539
158,0.015458,-0.022975,-0.0208
159,-0.019087,-0.005636,-0.001539
160,-0.019087,-0.022975,-0.0208
161,-0.019087,-0.005636,-0.0208
162,-0.03636,0.011702,-0.04006
163,-0.001814,-0.005636,-0.001539
164,-0.001814,-0.005636,-0.001539
165,0.015458,0.011702,-0.001539
166,-0.001814,-0.005636,-0.001539
167,0.015458,-0.005636,-0.001539
168,0.032731,-0.005636,-0.001539
169,0.015458,0.011702,-0.001539
170,0.015458,-0.005636,-0.001539
171,-0.001814,0.011702,-0.001539
172,0.032731,0.029041,-0.001539
173,0.032731,-0.005636,0.017721
174,-0.001814,0.011702,0.017721
175,-0.03636,0.011702,-0.001539
176,-0.019087,-0.022975,-0.001539
177,-0.019087,-0.005636,-0.0208
178,-0.019087,-0.005636,-0.001539
179,-0.001814,-0.005636,-0.001539
180,-0.001814,-0.022975,-0.001539
181,-0.03636,-0.022975,-0.04006
182,-0.019087,-0.022975,-0.001539
183,-0.019087,-0.040313,-0.001539
184,-0.03636,-0.022975,-0.001539
185,-0.001814,0.011702,-0.001539
186,-0.001814,-0.005636,-0.001539
187,0.015458,0.011702,-0.001539
188,-0.001814,0.029041,-0.001539
189,-0.019087,-0.005636,-0.001539
190,-0.019087,-0.022975,-0.001539
191,-0.019087,0.011702,0.017721
192,0.015458,-0.022975,-0.001539
193,-0.001814,-0.040313,-0.001539
194,-0.053632,-0.040313,-0.0208
195,-0.03636,-0.022975,-0.0208
196,-0.001814,-0.040313,-0.0208
197,-0.019087,-0.005636,-0.001539
198,-0.019087,0.011702,0.017721
199,0.015458,-0.005636,-0.001539
200,-0.001814,0.011702,0.017721
201,-0.03636,0.011702,-0.001539
202,-0.019087,0.011702,-0.001539
203,0.015458,0.011702,-0.001539
204,0.015458,0.029041,-0.001539
205,0.032731,0.029041,-0.001539
206,0.015458,-0.005636,-0.0208
207,-0.019087,-0.022975,-0.001539
208,-0.001814,-0.040313,-0.001539
209,-0.001814,-0.022975,-0.0208
210,-0.001814,-0.022975,-0.0208
211,-0.019087,-0.005636,-0.001539
212,-0.03636,0.011702,-0.0208
213,-0.019087,-0.022975,-0.001539
214,-0.001814,-0.005636,-0.001539
215,0.015458,0.011702,-0.0208
216,0.015458,0.011702,-0.0208
217,-0.001814,0.029041,0.017721
218,-0.001814,-0.005636,-0.001539
219,-0.001814,-0.005636,-0.001539
220,-0.019087,-0.022975,-0.001539
221,0.015458,-0.005636,-0.001539
222,-0.019087,-0.005636,-0.001539
223,-0.053632,-0.005636,0.017721
224,-0.019087,0.029041,-0.001539
225,-0.001814,-0.005636,-0.001539
226,-0.001814,-0.022975,0.017721
227,-0.019087,-0.005636,-0.001539
228,-0.001814,0.011702,-0.0208
229,-0.019087,-0.005636,-0.001539
230,-0.03636,0.011702,-0.001539
231,-0.03636,-0.022975,-0.001539
232,-0.001814,-0.005636,-0.001539
233,-0.019087,-0.040313,-0.001539
234,-0.03636,-0.022975,-0.001539
235,-0.001814,0.011702,-0.0208
236,0.015458,-0.022975,-0.001539
237,0.015458,0.011702,-0.0208
238,0.015458,0.011702,-0.001539
239,0.015458,0.011702,-0.0208
240,-0.001814,-0.005636,-0.001539
241,-0.019087,0.046379,-0.0208
242,-0.019087,-0.005636,-0.001539
243,-0.03636,0.011702,-0.001539
244,-0.001814,-0.005636,-0.0208
245,0.015458,-0.005636,-0.001539
246,-0.001814,-0.022975,-0.001539
247,0.015458,-0.022975,-0.001539
248,-0.001814,-0.040313,-0.0208
249,0.015458,-0.022975,-0.0208
250,0.015458,0.011702,-0.001539
251,-0.001814,0.029041,-0.001539
252,-0.019087,0.011702,0.017721
253,-0.001814,0.011702,-0.001539
254,-0.019087,0.029041,-0.001539
255,-0.019087,0.011702,-0.001539
256,-0.019087,-0.022975,-0.001539
257,-0.001814,0.011702,-0.001539
258,-0.001814,-0.005636,-0.001539
259,-0.001814,-0.005636,0.017721
260,-0.001814,-0.040313,-0.001539
261,-0.001814,-0.040313,-0.001539
262,0.015458,-0.022975,-0.001539
263,-0.001814,-0.022975,-0.001539
264,-0.001814,-0.005636,-0.001539
265,-0.03636,-0.022975,0.017721
266,-0.019087,0.029041,-0.001539
267,-0.03636,0.029041,-0.001539
268,-0.019087,0.011702,-0.001539
269,-0.019087,0.011702,-0.001539
270,-0.001814,0.029041,-0.001539
271,-0.001814,0.029041,-0.001539
272,0.015458,-0.005636,-0.0208
273,-0.001814,-0.005636,-0.0208
274,0.032731,-0.022975,-0.001539
275,0.015458,-0.057652,-0.001539
276,0.015458,-0.005636,0.036981
277,0.015458,-0.005636,-0.001539
278,0.015458,0.011702,-0.001539
279,-0.001814,-0.022975,-0.0208
280,-0.03636,-0.005636,-0.0208
281,-0.001814,0.011702,-0.001539
282,-0.019087,-0.005636,-0.001539
283,-0.019087,0.011702,0.017721
284,-0.03636,-0.005636,-0.0208
285,-0.001814,-0.005636,-0.001539
286,-0.019087,-0.005636,-0.001539
287,0.050004,0.011702,-0.001539
288,-0.001814,-0.022975,-0.001539
289,-0.001814,-0.022975,-0.001539
290,0.015458,-0.005636,-0.001539
291,0.015458,0.011702,-0.001539
292,-0.001814,-0.005636,-0.001539
293,-0.001814,-0.005636,-0.001539
294,-0.019087,-0.005636,0.017721
295,-0.001814,0.011702,-0.001539
296,-0.03636,-0.005636,-0.001539
297,-0.019087,-0.022975,0.017721
298,-0.019087,-0.005636,-0.001539
299,-0.019087,-0.005636,-0.001539
300,-0.001814,-0.022975,-0.001539
301,-0.019087,-0.005636,-0.001539
302,0.032731,-0.022975,-0.001539
303,0.015458,-0.005636,-0.001539
304,0.015458,0.011702,-0.001539
305,-0.019087,-0.005636,-0.001539
306,-0.001814,0.011702,-0.001539
307,-0.001814,0.029041,-0.001539
308,-0.001814,0.011702,-0.001539
309,-0.001814,-0.005636,-0.001539
310,0.015458,-0.005636,-0.001539
311,-0.019087,-0.022975,-0.001539
312,-0.019087,-0.040313,-0.001539
313,-0.001814,-0.022975,-0.001539
314,-0.001814,-0.005636,-0.001539
315,-0.019087,-0.040313,-0.001539
316,-0.019087,-0.022975,-0.001539
317,-0.03636,0.011702,-0.001539
318,-0.001814,-0.022975,-0.001539
319,-0.019087,-0.005636,-0.001539
320,0.032731,0.011702,-0.001539
321,-0.019087,0.011702,-0.001539
322,0.015458,-0.005636,-0.001539
323,-0.001814,0.029041,-0.001539
324,0.015458,-0.005636,-0.001539
325,0.015458,-0.005636,-0.001539
326,-0.001814,-0.022975,-0.001539
327,-0.019087,-0.005636,0.017721
328,-0.001814,-0.022975,-0.001539
329,0.015458,-0.040313,-0.001539
330,-0.001814,-0.022975,0.017721
331,-0.001814,-0.022975,-0.001539
332,0.015458,-0.005636,-0.001539
333,-0.019087,-0.005636,0.017721
334,-0.001814,0.011702,-0.001539
335,-0.019087,-0.005636,-0.001539
336,-0.019087,0.029041,-0.001539
337,-0.001814,0.029041,-0.001539
338,-0.001814,0.011702,-0.001539
339,-0.001814,-0.005636,-0.001539
340,0.032731,-0.005636,-0.001539
341,0.032731,-0.022975,-0.0208
342,0.015458,-0.040313,-0.001539
343,-0.001814,-0.040313,-0.001539
344,0.015458,-0.057652,-0.001539
345,-0.001814,-0.092329,-0.001539
346,-0.019087,-0.022975,-0.0208
347,-0.001814,0.029041,-0.001539
348,-0.019087,0.063718,-0.001539
349,-0.03636,0.063718,-0.0208
350,-0.019087,0.063718,-0.001539
351,-0.001814,0.046379,-0.001539
352,0.015458,0.011702,-0.001539
353,0.015458,-0.022975,0.017721
354,-0.001814,-0.040313,-0.001539
355,0.015458,-0.040313,-0.001539
356,-0.001814,-0.040313,-0.001539
357,-0.001814,-0.022975,-0.001539
358,0.015458,-0.022975,-0.001539
359,-0.001814,-0.022975,-0.001539
360,-0.001814,0.011702,-0.001539
361,-0.019087,0.011702,-0.001539
362,-0.03636,-0.005636,-0.001539
363,-0.019087,-0.005636,0.017721
364,-0.019087,-0.005636,-0.001539
365,-0.03636,-0.022975,0.017721
366,-0.001814,-0.040313,-0.0208
367,0.015458,0.011702,-0.001539
368,-0.001814,-0.005636,0.017721
369,-0.001814,-0.022975,0.017721
370,0.015458,-0.005636,-0.001539
371,0.015458,-0.022975,-0.001539
372,-0.001814,-0.005636,-0.001539
373,0.015458,-0.022975,-0.001539
374,-0.03636,-0.022975,-0.0208
375,0.015458,-0.005636,-0.001539
376,-0.019087,0.011702,-0.001539
377,-0.03636,0.011702,0.017721
378,-0.019087,0.011702,-0.0208
379,-0.019087,-0.022975,-0.001539
380,0.015458,0.011702,-0.001539
381,0.015458,-0.022975,-0.001539
382,0.015458,-0.022975,-0.001539
383,0.015458,-0.022975,-0.001539
384,-0.019087,-0.022975,-0.001539
385,-0.001814,-0.022975,0.017721
386,-0.019087,0.011702,-0.001539
387,-0.001814,0.011702,-0.0208
388,-0.001814,0.046379,-0.001539
389,-0.019087,-0.005636,-0.0208
390,-0.001814,0.011702,-0.001539
391,0.015458,0.011702,-0.001539
392,-0.019087,-0.005636,-0.001539
393,-0.019087,0.011702,-0.001539
394,-0.019087,-0.005636,-0.001539
395,-0.001814,-0.022975,-0.001539
396,-0.001814,-0.040313,-0.001539
397,-0.001814,-0.022975,-0.0208
398,0.015458,-0.022975,0.017721
399,-0.001814,-0.005636,0.017721
400,0.015458,0.011702,-0.001539
401,0.015458,0.029041,0.017721
402,0.032731,0.029041,-0.0208
403,0.015458,0.011702,-0.001539
404,-0.019087,0.011702,-0.001539
405,-0.001814,-0.005636,-0.0208
406,0.015458,0.011702,-0.001539
407,-0.001814,-0.005636,0.056242
408,-0.019087,-0.005636,-0.001539
409,-0.03636,-0.040313,-0.001539
410,-0.001814,-0.022975,0.017721
411,-0.019087,-0.040313,-0.0208
412,-0.019087,-0.040313,-0.001539
413,-0.03636,-0.022975,-0.001539
414,-0.001814,0.011702,-0.0208
415,-0.03636,-0.022975,-0.001539
416,-0.03636,0.011702,0.017721
417,-0.001814,0.029041,-0.001539
418,-0.001814,-0.005636,-0.0208
419,-0.03636,0.011702,-0.001539
420,-0.001814,0.011702,-0.001539
421,-0.001814,-0.005636,-0.001539
422,-0.001814,-0.022975,-0.001539
423,-0.001814,-0.005636,-0.001539
424,-0.001814,-0.022975,0.017721
425,-0.001814,-0.022975,-0.001539
426,-0.053632,-0.005636,-0.0208
427,-0.001814,0.011702,-0.001539
428,0.032731,-0.022975,-0.0208
429,-0.001814,0.011702,-0.001539
430,0.015458,0.011702,-0.001539
431,-0.019087,-0.022975,-0.001539
432,-0.019087,-0.022975,-0.001539
433,-0.001814,0.011702,-0.0208
434,0.032731,-0.005636,-0.001539
435,0.015458,0.011702,0.017721
436,-0.001814,-0.005636,0.017721
437,-0.001814,-0.005636,-0.001539
438,0.015458,-0.040313,-0.0208
439,0.015458,-0.005636,-0.001539
440,-0.001814,0.011702,-0.001539
441,0.015458,0.011702,-0.001539
442,-0.019087,-0.005636,-0.001539
443,-0.001814,0.011702,-0.001539
444,-0.019087,0.011702,-0.001539
445,-0.03636,-0.005636,-0.001539
446,-0.019087,0.011702,-0.001539
447,-0.03636,-0.022975,-0.001539
448,-0.019087,-0.057652,-0.001539
449,-0.019087,-0.022975,0.017721
450,-0.03636,-0.022975,-0.001539
451,-0.019087,-0.040313,-0.001539
452,-0.001814,0.011702,0.017721
453,-0.019087,-0.005636,-0.001539
454,-0.019087,0.011702,-0.001539
455,-0.019087,-0.005636,0.017721
456,-0.001814,-0.005636,-0.001539
457,0.015458,0.011702,-0.001539
458,-0.001814,-0.005636,-0.001539
459,-0.001814,0.011702,-0.001539
460,-0.001814,-0.022975,-0.001539
461,-0.001814,-0.005636,0.017721
462,-0.019087,-0.040313,-0.0208
463,-0.019087,-0.022975,-0.001539
464,-0.001814,-0.022975,0.056242
465,-0.019087,-0.040313,-0.001539
466,-0.019087,0.011702,-0.001539
467,-0.001814,0.029041,-0.001539
468,-0.001814,-0.005636,-0.001539
469,-0.019087,0.011702,-0.001539
470,0.015458,0.046379,-0.001539
471,-0.001814,-0.005636,-0.0208
472,-0.03636,0.029041,-0.001539
473,-0.001814,-0.005636,-0.001539
474,-0.001814,-0.022975,-0.0208
475,-0.019087,-0.040313,-0.001539
476,-0.019087,-0.022975,-0.001539
477,0.015458,-0.022975,-0.001539
478,-0.019087,-0.022975,-0.0208
479,-0.019087,-0.005636,-0.001539
480,-0.019087,-0.005636,0.017721
481,-0.001814,-0.022975,-0.0208
482,0.032731,-0.005636,-0.0208
483,0.032731,0.011702,-0.001539
484,0.015458,0.011702,-0.001539
485,0.015458,0.011702,-0.001539
486,0.032731,0.029041,-0.0208
487,0.015458,0.011702,-0.001539
488,-0.019087,0.011702,-0.001539
489,-0.001814,-0.022975,0.036981
490,-0.019087,-0.005636,-0.001539
491,-0.070905,-0.022975,-0.001539
492,-0.019087,-0.022975,-0.0208
493,-0.03636,0.011702,0.017721
494,-0.001814,-0.022975,-0.001539
495,-0.019087,-0.005636,-0.001539
496,-0.019087,-0.005636,-0.001539
497,-0.053632,0.011702,0.017721
498,-0.001814,-0.022975,0.017721
499,0.032731,0.029041,0.017721
500,-0.001814,-0.005636,-0.001539
501,0.015458,-0.005636,-0.001539
502,0.015458,-0.022975,0.017721
503,0.015458,0.011702,-0.0208
504,0.015458,-0.022975,-0.001539
505,0.032731,-0.005636,-0.0208
506,-0.019087,-0.005636,-0.001539
507,-0.019087,-0.040313,-0.001539
508,-0.001814,-0.005636,-0.0208
509,-0.03636,-0.005636,0.017721
510,-0.03636,0.029041,-0.0208
511,-0.001814,-0.005636,-0.001539
512,0.015458,0.011702,-0.001539
513,-0.001814,-0.022975,-0.0208
514,-0.001814,-0.022975,-0.001539
515,-0.001814,-0.022975,-0.001539
516,0.015458,-0.005636,-0.0208
517,0.015458,-0.022975,-0.001539
518,0.015458,-0.022975,-0.0208
519,0.032731,-0.005636,-0.001539
520,0.032731,0.011702,-0.001539
521,0.015458,-0.005636,-0.0208
522,-0.001814,0.011702,-0.0208
523,0.015458,0.011702,-0.001539
524,0.032731,-0.005636,-0.0208
525,-0.019087,0.011702,-0.001539
526,-0.001814,-0.005636,-0.001539
527,-0.019087,-0.022975,-0.001539
528,-0.019087,-0.040313,-0.001539
529,-0.001814,-0.005636,-0.001539
530,-0.019087,-0.005636,-0.001539
531,-0.019087,-0.022975,-0.001539
532,-0.03636,-0.005636,-0.001539
533,-0.001814,0.011702,-0.001539
534,0.015458,-0.005636,-0.0208
535,-0.03636,0.011702,-0.001539
536,-0.001814,0.011702,-0.0208
537,-0.019087,0.011702,-0.001539
538,0.032731,-0.005636,-0.001539
539,0.015458,0.029041,-0.001539
540,-0.019087,-0.022975,-0.001539
541,-0.001814,-0.005636,-0.0208
542,-0.03636,-0.040313,-0.001539
543,-0.019087,-0.022975,-0.001539
544,-0.019087,-0.022975,-0.001539
545,0.015458,-0.005636,-0.001539
546,0.015458,-0.005636,0.017721
547,-0.03636,-0.040313,-0.001539
548,-0.001814,-0.022975,-0.0208
549,-0.019087,0.011702,-0.001539
550,-0.001814,0.029041,-0.001539
551,0.015458,0.011702,-0.001539
552,0.015458,0.029041,-0.001539
553,-0.001814,0.011702,-0.001539
554,0.015458,0.011702,-0.001539
555,-0.03636,-0.022975,-0.001539
556,0.015458,-0.005636,-0.001539
557,0.015458,-0.005636,-0.001539
558,0.015458,-0.040313,-0.001539
559,0.015458,-0.022975,-0.001539
560,-0.001814,-0.022975,-0.001539
561,-0.001814,-0.005636,-0.001539
562,0.015458,0.011702,-0.001539
563,-0.001814,0.011702,-0.001539
564,-0.019087,-0.005636,-0.0208
565,0.015458,0.011702,-0.001539
566,-0.019087,0.029041,-0.001539
567,-0.001814,-0.005636,0.017721
568,-0.001814,-0.022975,-0.001539
569,0.015458,0.011702,-0.001539
570,0.015458,0.011702,-0.001539
571,-0.019087,-0.005636,-0.0208
572,-0.019087,-0.005636,-0.001539
573,-0.001814,-0.022975,-0.001539
574,-0.001814,-0.022975,-0.0208
575,-0.001814,-0.005636,-0.001539
576,0.015458,-0.005636,-0.001539
577,-0.019087,0.011702,-0.001539
578,-0.019087,0.011702,-0.001539
579,-0.019087,-0.005636,-0.001539
580,-0.001814,-0.022975,-0.001539
581,-0.001814,-0.005636,-0.001539
582,-0.001814,-0.022975,-0.001539
583,0.101822,-0.022975,-0.001539
584,0.032731,-0.022975,-0.0208
585,-0.001814,-0.005636,-0.001539
586,-0.001814,-0.005636,-0.001539
587,-0.03636,-0.022975,-0.0208
588,-0.03636,0.011702,-0.0208
589,-0.001814,0.029041,-0.001539
590,0.015458,0.029041,-0.001539
591,-0.019087,0.011702,-0.001539
592,-0.019087,0.011702,-0.0208
593,-0.019087,-0.022975,-0.001539
594,-0.019087,-0.022975,-0.001539
595,-0.019087,0.029041,-0.001539
596,-0.001814,-0.005636,-0.001539
597,-0.03636,-0.040313,-0.001539
598,-0.019087,-0.022975,-0.001539
599,-0.019087,-0.005636,-0.001539
600,-0.019087,-0.005636,0.017721
601,-0.019087,-0.005636,-0.001539
602,0.015458,0.011702,0.017721
603,0.015458,0.011702,-0.001539
604,0.015458,-0.005636,-0.001539
605,0.032731,0.011702,-0.001539
606,0.050004,0.011702,-0.0208
607,0.015458,-0.005636,-0.001539
608,0.015458,-0.022975,-0.001539
609,0.015458,-0.005636,-0.001539
610,-0.019087,-0.022975,-0.0208
611,-0.001814,-0.022975,-0.001539
612,-0.019087,-0.005636,-0.001539
613,-0.03636,-0.022975,-0.0208
614,-0.053632,-0.040313,-0.001539
615,-0.019087,-0.005636,-0.0208
616,-0.019087,-0.005636,-0.001539
617,-0.019087,-0.022975,-0.0208
618,-0.001814,0.011702,-0.001539
619,-0.019087,0.046379,-0.001539
620,-0.001814,0.011702,-0.0208
621,-0.001814,-0.005636,-0.001539
622,-0.001814,-0.005636,-0.001539
623,-0.019087,-0.005636,-0.001539
624,-0.03636,-0.040313,-0.001539
625,-0.001814,-0.022975,-0.0208
626,0.032731,-0.022975,-0.001539
627,-0.001814,-0.040313,0.017721
628,-0.001814,-0.005636,-0.001539
629,0.015458,-0.022975,-0.001539
630,-0.03636,-0.005636,-0.001539
631,-0.001814,0.011702,-0.001539
632,-0.001814,-0.005636,-0.001539
633,-0.019087,0.011702,0.036981
634,-0.001814,-0.005636,0.017721
635,-0.001814,0.029041,-0.0208
636,-0.019087,-0.005636,-0.0208
637,0.015458,-0.005636,-0.001539
638,0.015458,-0.022975,-0.001539
639,0.015458,-0.022975,-0.001539
640,0.050004,-0.022975,-0.001539
641,-0.001814,-0.005636,-0.0208
642,-0.001814,-0.022975,-0.001539
643,0.032731,0.011702,-0.001539
644,-0.019087,-0.005636,-0.001539
645,-0.019087,-0.005636,-0.0208
646,-0.019087,0.029041,-0.0208
647,-0.019087,-0.022975,-0.001539
648,-0.019087,0.011702,-0.001539
649,-0.070905,-0.022975,-0.0208
650,-0.001814,-0.005636,-0.001539
651,0.015458,-0.022975,-0.001539
652,0.015458,-0.005636,-0.0208
653,-0.001814,-0.005636,-0.001539
654,0.015458,-0.005636,-0.0208
655,-0.001814,-0.005636,-0.001539
656,-0.019087,-0.005636,-0.001539
657,-0.019087,-0.005636,-0.001539
658,-0.001814,-0.022975,-0.001539
659,0.015458,0.029041,-0.001539
660,-0.019087,-0.022975,-0.001539
661,0.015458,0.011702,-0.0208
662,-0.019087,-0.022975,-0.001539
663,-0.019087,-0.022975,-0.001539
664,-0.03636,-0.022975,-0.001539
665,-0.03636,-0.022975,0.017721
666,-0.001814,-0.005636,-0.001539
667,-0.019087,-0.022975,-0.001539
668,0.015458,0.011702,-0.0208
669,-0.019087,0.029041,0.017721
670,-0.019087,-0.040313,-0.0208
671,-0.001814,-0.005636,-0.001539
672,0.015458,0.029041,-0.001539
673,0.015458,0.011702,-0.001539
674,0.015458,-0.005636,-0.001539
675,-0.001814,-0.022975,-0.001539
676,-0.019087,-0.005636,0.017721
677,-0.019087,-0.040313,-0.001539
678,-0.001814,-0.022975,0.017721
679,-0.019087,-0.022975,-0.001539
680,-0.001814,-0.040313,-0.001539
681,-0.019087,-0.022975,0.017721
682,-0.03636,-0.022975,-0.001539
683,-0.019087,-0.005636,-0.001539
684,0.015458,-0.005636,-0.001539
685,0.032731,0.011702,0.056242
686,0.032731,-0.022975,-0.001539
687,0.015458,-0.022975,-0.001539
688,0.032731,0.011702,-0.001539
689,-0.001814,-0.022975,-0.001539
690,-0.001814,-0.022975,-0.001539
691,0.015458,-0.022975,-0.001539
692,-0.001814,-0.022975,-0.001539
693,-0.001814,-0.022975,-0.001539
694,-0.001814,-0.040313,-0.001539
695,-0.019087,-0.005636,0.017721
696,-0.001814,0.011702,-0.001539
697,-0.001814,0.011702,-0.001539
698,-0.001814,0.029041,-0.0208
699,-0.019087,-0.005636,-0.001539
700,-0.03636,-0.022975,-0.001539
701,-0.019087,0.011702,-0.0208
702,-0.03636,-0.005636,-0.001539
703,-0.001814,-0.022975,-0.0208
704,0.015458,-0.022975,-0.001539
705,0.015458,-0.022975,-0.001539
706,-0.001814,-0.057652,0.017721
707,0.015458,-0.005636,-0.001539
708,-0.019087,0.011702,-0.001539
709,-0.001814,0.029041,-0.001539
710,-0.001814,-0.005636,-0.001539
711,-0.019087,-0.005636,-0.001539
712,-0.03636,-0.005636,-0.001539
713,-0.019087,-0.022975,-0.001539
714,-0.019087,0.011702,-0.0208
715,-0.019087,-0.005636,-0.0208
716,-0.019087,-0.005636,-0.0208
717,-0.03636,-0.022975,-0.001539
718,-0.019087,0.011702,0.017721
719,-0.03636,-0.022975,-0.001539
720,0.015458,-0.005636,-0.001539
721,0.015458,0.029041,-0.001539
722,0.015458,0.011702,-0.001539
723,0.032731,-0.005636,-0.001539
724,-0.001814,0.011702,-0.001539
725,-0.001814,-0.022975,-0.001539
726,-0.001814,-0.022975,-0.0208
727,-0.019087,0.011702,-0.0208
728,0.015458,-0.005636,-0.001539
729,-0.001814,-0.022975,-0.001539
730,-0.019087,-0.057652,-0.001539
731,-0.03636,-0.005636,-0.001539
732,-0.053632,-0.022975,-0.001539
733,-0.03636,-0.005636,-0.001539
734,-0.019087,0.011702,0.017721
735,-0.019087,0.029041,-0.0208
736,-0.001814,0.011702,-0.0208
737,0.015458,0.011702,-0.001539
738,0.050004,-0.005636,-0.001539
739,0.015458,-0.005636,-0.001539
740,-0.001814,-0.022975,-0.001539
741,-0.001814,-0.005636,-0.001539
742,-0.03636,-0.022975,-0.0208
743,0.015458,-0.040313,-0.001539
744,-0.03636,-0.022975,-0.0208
745,-0.03636,-0.022975,-0.001539
746,-0.03636,-0.022975,-0.001539
747,-0.03636,0.011702,-0.001539
748,-0.019087,0.029041,-0.001539
749,-0.019087,-0.022975,-0.001539
750,-0.001814,0.029041,-0.0208
751,-0.019087,0.011702,-0.001539
752,-0.001814,-0.005636,0.017721
753,-0.019087,-0.022975,-0.001539
754,0.050004,0.011702,-0.001539
755,0.032731,-0.022975,-0.001539
756,-0.019087,-0.022975,-0.001539
757,0.015458,0.011702,-0.001539
758,0.015458,-0.022975,-0.001539
759,-0.001814,-0.005636,-0.0208
760,0.032731,0.011702,-0.001539
761,-0.001814,0.011702,-0.001539
762,-0.001814,-0.005636,-0.001539
763,-0.019087,0.011702,-0.001539
764,-0.001814,-0.005636,-0.001539
765,-0.001814,-0.005636,-0.001539
766,-0.019087,-0.022975,-0.001539
767,-0.001814,-0.005636,0.017721
768,-0.019087,-0.022975,-0.0208
769,-0.03636,-0.022975,-0.001539
770,-0.001814,-0.005636,-0.001539
771,0.015458,-0.022975,-0.001539
772,-0.001814,-0.022975,0.017721
773,-0.019087,0.011702,-0.0208
774,-0.019087,0.011702,-0.001539
775,-0.001814,-0.040313,-0.001539
776,-0.001814,0.011702,-0.001539
777,-0.03636,0.011702,-0.001539
778,-0.019087,-0.022975,-0.001539
779,-0.001814,-0.022975,-0.0208
780,-0.019087,-0.022975,-0.001539
781,-0.001814,-0.022975,-0.001539
782,-0.001814,-0.022975,-0.001539
783,0.032731,-0.005636,-0.001539
784,0.015458,0.011702,-0.001539
785,0.032731,-0.022975,-0.001539
786,-0.001814,-0.005636,-0.001539
787,0.015458,0.011702,-0.001539
788,0.015458,0.011702,-0.001539
789,0.032731,0.011702,-0.001539
790,-0.001814,-0.005636,-0.001539
791,-0.001814,-0.022975,-0.0208
792,-0.001814,-0.040313,-0.001539
793,-0.001814,-0.005636,-0.001539
794,0.015458,-0.022975,-0.001539
795,-0.019087,-0.040313,-0.0208
796,-0.03636,-0.022975,-0.001539
797,-0.019087,0.011702,-0.001539
798,-0.053632,-0.005636,-0.001539
799,-0.019087,0.011702,-0.0208
800,-0.001814,0.011702,-0.001539
801,-0.019087,0.011702,-0.001539
802,-0.001814,0.029041,-0.001539
803,-0.03636,0.011702,-0.001539
804,-0.001814,-0.005636,-0.001539
805,0.015458,-0.022975,-0.001539
806,0.015458,-0.022975,-0.001539
807,0.015458,-0.005636,0.036981
808,-0.019087,-0.022975,0.017721
809,0.032731,-0.022975,-0.001539
810,-0.001814,-0.022975,-0.001539
811,-0.001814,-0.040313,-0.001539
812,-0.019087,0.011702,-0.0208
813,-0.001814,0.011702,-0.001539
814,0.015458,-0.005636,-0.001539
815,-0.019087,0.011702,-0.001539
816,-0.001814,0.011702,-0.001539
817,-0.001814,-0.005636,-0.0208
818,0.015458,-0.022975,-0.001539
819,-0.001814,-0.005636,-0.001539
820,-0.001814,-0.005636,-0.001539
821,-0.001814,-0.022975,-0.0208
822,-0.019087,-0.005636,-0.0208
823,-0.001814,-0.005636,-0.001539
824,-0.001814,-0.022975,-0.001539
825,-0.001814,-0.005636,0.017721
826,-0.03636,0.011702,-0.0208
827,-0.03636,-0.022975,-0.001539
828,-0.03636,-0.040313,-0.001539
829,-0.001814,-0.005636,0.017721
830,-0.001814,-0.022975,0.017721
831,-0.03636,-0.040313,-0.001539
832,-0.019087,-0.022975,-0.001539
833,-0.001814,-0.022975,0.017721
834,-0.001814,-0.022975,-0.001539
835,-0.03636,-0.005636,-0.001539
836,-0.019087,0.011702,-0.001539
837,-0.03636,-0.005636,-0.001539
838,-0.001814,0.011702,-0.001539
839,-0.019087,0.011702,-0.001539
840,-0.001814,-0.005636,-0.001539
841,-0.03636,-0.022975,-0.001539
842,-0.019087,-0.005636,-0.0208
843,-0.001814,-0.022975,-0.001539
844,-0.001814,-0.022975,-0.001539
845,-0.019087,-0.022975,-0.001539
846,-0.019087,-0.040313,-0.001539
847,-0.019087,-0.022975,-0.001539
848,-0.019087,0.011702,-0.001539
849,-0.001814,0.011702,-0.0208
850,-0.001814,0.046379,-0.0208
851,-0.001814,-0.005636,-0.001539
852,0.032731,0.029041,-0.001539
853,0.032731,-0.005636,-0.001539
854,0.015458,-0.005636,-0.0208
855,0.015458,0.011702,-0.001539
856,-0.001814,-0.022975,-0.001539
857,-0.001814,-0.005636,-0.001539
858,-0.019087,-0.022975,-0.0208
859,-0.019087,-0.022975,-0.001539
860,-0.019087,-0.040313,-0.0208
861,-0.001814,-0.022975,0.017721
862,0.015458,0.011702,-0.001539
863,-0.001814,0.029041,-0.001539
864,0.015458,-0.005636,0.017721
865,-0.001814,0.011702,-0.001539
866,-0.001814,0.011702,-0.001539
867,-0.019087,0.011702,-0.001539
868,-0.019087,0.029041,-0.001539
869,-0.001814,-0.022975,-0.001539
870,-0.001814,-0.022975,-0.001539
871,-0.001814,-0.005636,-0.001539
872,-0.001814,-0.005636,-0.0208
873,-0.001814,-0.040313,-0.001539
874,-0.019087,-0.005636,-0.001539
875,0.015458,-0.005636,-0.0208
876,-0.001814,0.029041,-0.001539
877,-0.001814,-0.005636,-0.0208
878,-0.019087,-0.005636,-0.0208
879,-0.001814,0.011702,-0.0208
880,-0.019087,-0.022975,-0.001539
881,-0.001814,0.029041,-0.001539
882,-0.019087,0.011702,-0.001539
883,-0.001814,0.011702,0.017721
884,-0.03636,-0.022975,-0.001539
885,-0.019087,-0.005636,0.017721
886,-0.03636,-0.005636,-0.001539
887,-0.019087,-0.005636,0.017721
888,-0.019087,0.011702,-0.0208
889,-0.019087,0.011702,-0.001539
890,-0.053632,-0.022975,-0.001539
891,0.015458,-0.005636,-0.0208
892,-0.053632,-0.022975,-0.001539
893,-0.019087,-0.040313,-0.001539
894,-0.001814,-0.040313,0.017721
895,-0.019087,-0.005636,-0.001539
896,0.015458,-0.022975,-0.001539
897,0.015458,-0.005636,-0.0208
898,-0.019087,0.029041,-0.0208
899,-0.001814,-0.005636,-0.001539
900,-0.03636,-0.005636,-0.0208
901,-0.019087,0.011702,-0.001539
902,-0.019087,0.029041,-0.0208
903,-0.019087,0.011702,-0.001539
904,-0.001814,0.011702,-0.001539
905,0.015458,0.029041,-0.001539
906,0.015458,-0.005636,-0.001539
907,0.015458,-0.022975,-0.0208
908,-0.001814,-0.005636,-0.001539
909,-0.001814,-0.022975,-0.001539
910,-0.001814,-0.022975,-0.001539
911,-0.001814,-0.005636,-0.001539
912,-0.019087,-0.022975,-0.001539
913,-0.053632,-0.040313,-0.001539
914,-0.019087,0.029041,-0.001539
915,-0.019087,0.046379,-0.001539
916,-0.001814,0.046379,-0.001539
917,-0.001814,0.063718,-0.001539
918,0.015458,0.046379,0.017721
919,0.015458,0.011702,-0.001539
920,-0.001814,-0.057652,-0.001539
921,0.015458,-0.07499,-0.001539
922,0.015458,-0.057652,-0.001539
923,0.015458,-0.07499,-0.001539
924,-0.019087,-0.022975,-0.001539
925,0.015458,-0.040313,-0.001539
926,-0.001814,-0.057652,-0.001539
927,-0.019087,-0.040313,-0.001539
928,-0.019087,-0.005636,-0.001539
929,-0.019087,0.029041,-0.001539
930,-0.001814,0.011702,-0.001539
931,0.015458,0.029041,-0.0208
932,0.015458,0.011702,-0.001539
933,-0.019087,-0.005636,-0.001539
934,-0.001814,0.011702,-0.0208
935,-0.019087,-0.005636,-0.001539
936,0.015458,-0.005636,-0.0208
937,-0.001814,-0.022975,-0.001539
938,-0.001814,-0.005636,-0.001539
939,-0.03636,-0.022975,-0.001539
940,0.015458,-0.005636,-0.001539
941,-0.019087,-0.005636,-0.0208
942,-0.019087,-0.005636,-0.0208
943,-0.019087,-0.022975,-0.001539
944,-0.03636,-0.005636,0.017721
945,-0.019087,0.029041,-0.0208
946,0.015458,0.046379,-0.0208
947,-0.019087,0.081057,-0.001539
948,-0.019087,-0.005636,-0.001539
949,-0.001814,-0.022975,-0.0208
950,-0.001814,-0.040313,-0.001539
951,-0.001814,-0.07499,-0.001539
952,-0.001814,-0.092329,-0.0208
953,0.032731,-0.022975,0.017721
954,0.032731,0.029041,-0.0208
955,0.032731,0.029041,-0.0208
956,0.032731,0.011702,-0.0208
957,-0.019087,0.081057,-0.001539
958,-0.019087,0.011702,-0.001539
959,-0.03636,-0.005636,-0.001539
960,-0.03636,-0.022975,-0.001539
961,-0.001814,-0.005636,-0.001539
962,0.015458,-0.005636,-0.001539
963,-0.019087,-0.040313,-0.001539
964,-0.001814,-0.005636,-0.001539
965,-0.001814,-0.022975,-0.0208
966,0.032731,-0.005636,0.017721
967,0.015458,0.029041,-0.0208
968,0.032731,0.011702,-0.0208
969,-0.001814,-0.005636,-0.001539
970,0.015458,-0.005636,-0.0208
971,-0.001814,0.011702,-0.0208
972,-0.019087,0.011702,-0.001539
973,-0.019087,-0.022975,-0.001539
974,-0.019087,-0.040313,-0.001539
975,-0.03636,-0.040313,-0.001539
976,0.015458,-0.109668,-0.001539
977,-0.019087,-0.07499,-0.0208
978,0.119094,-0.022975,-0.001539
979,0.170912,0.029041,0.017721
980,0.101822,0.081057,-0.001539
981,0.032731,0.098395,-0.0208
982,-0.157268,0.063718,-0.0208
983,-0.139996,-0.005636,-0.001539
984,-0.157268,-0.022975,-0.001539
985,0.015458,-0.092329,-0.001539
986,-0.03636,-0.144345,-0.001539
987,-0.03636,-0.161683,-0.001539
988,-0.001814,-0.161683,-0.001539
989,0.032731,-0.179022,-0.001539
990,0.084549,-0.127006,-0.001539
991,0.084549,-0.022975,-0.001539
992,0.032731,0.029041,-0.001539
993,-0.001814,0.133072,-0.001539
994,-0.03636,0.237104,-0.001539
995,-0.10545,0.271781,-0.001539
996,-0.139996,0.133072,0.017721
997,-0.019087,0.011702,-0.001539
998,0.050004,-0.109668,-0.001539
999,0.067276,-0.127006,-0.001539
1000,-0.001814,-0.092329,-0.001539
1001,-0.019087,-0.144345,-0.001539
1002,0.084549,-0.092329,-0.0208
1003,0.015458,-0.127006,-0.001539
1004,-0.157268,-0.109668,-0.001539
1005,-0.191813,-0.057652,-0.001539
1006,-0.226359,0.011702,-0.001539
1007,-0.174541,-0.07499,-0.001539
1008,-0.278177,0.029041,-0.001539
1009,-0.571812,0.098395,0.017721
1010,-0.174541,0.202426,-0.0208
1011,0.274548,0.271781,-0.001539
1012,0.499093,0.341135,-0.001539
1013,0.395457,0.306458,-0.001539
1014,0.360912,0.254442,-0.001539
1015,0.326366,0.150411,0.017721
1016,0.309094,0.011702,-0.001539
1017,0.378184,-0.022975,-0.001539
1018,0.430002,-0.19636,-0.0208
1019,0.378184,-0.647163,-0.001539
1020,0.395457,-0.716517,-0.001539
1021,0.188185,-0.508454,-0.0208
1022,-0.001814,-0.456439,-0.0208
1023,-0.03636,-0.213699,-0.001539
1024,-0.347267,0.063718,-0.001539
1025,-0.62363,0.323796,-0.001539
1026,-0.329995,0.462505,-0.001539
1027,0.032731,0.63589,-0.0208
1028,0.257276,0.531859,0.017721
1029,0.343639,0.237104,-0.0208
1030,0.291821,0.133072,0.017721
1031,0.188185,0.219765,-0.001539
1032,-0.191813,0.133072,-0.0208
1033,-0.519994,0.202426,-0.001539
1034,-0.519994,0.289119,-0.001539
1035,-0.243631,0.271781,-0.001539
1036,-0.157268,-0.040313,0.017721
1037,-0.295449,-0.248376,-0.0208
1038,-0.157268,-0.335069,-0.001539
1039,-0.070905,-0.387084,-0.001539
1040,-0.001814,-0.300392,-0.0208
1041,0.205458,-0.19636,-0.001539
1042,0.343639,-0.057652,-0.0208
1043,0.378184,0.254442,-0.001539
1044,0.257276,0.462505,-0.001539
1045,0.015458,0.133072,-0.0208
1046,0.015458,-0.231037,-0.001539
1047,-0.001814,-0.265715,-0.001539
1048,-0.295449,-0.144345,-0.0208
1049,-0.03636,0.289119,-0.0208
1050,0.101822,0.427828,-0.0208
1051,-0.019087,0.462505,-0.001539
1052,-0.416358,0.51452,-0.001539
1053,-0.122723,0.462505,-0.001539
1054,0.447275,0.254442,-0.001539
1055,0.274548,0.046379,-0.001539
1056,-0.312722,-0.127006,-0.001539
1057,-0.744539,-0.092329,-0.001539
1058,-0.589085,-0.161683,-0.001539
1059,-0.088178,-0.369746,-0.001539
1060,0.291821,-0.543131,-0.001539
1061,0.620001,-0.647163,-0.001539
1062,0.620001,-0.959257,-0.001539
1063,0.430002,-0.699178,-0.001539
1064,0.084549,-0.300392,-0.001539
1065,0.032731,0.393151,0.017721
1066,-0.070905,0.791937,-0.001539
1067,-0.088178,0.687906,-0.0208
1068,0.101822,0.531859,-0.001539
1069,0.119094,0.51452,-0.001539
1070,-0.001814,0.011702,-0.0208
1071,0.050004,-0.508454,-0.0208
1072,0.447275,-0.248376,-0.001539
1073,0.360912,-0.092329,-0.001539
1074,0.101822,0.150411,-0.0208
1075,-0.088178,0.289119,-0.0208
1076,-0.174541,0.254442,-0.001539
1077,-0.399085,0.185088,-0.0208
1078,-0.209086,0.133072,-0.001539
1079,0.015458,0.167749,-0.0208
1080,0.032731,0.150411,-0.001539
1081,-0.03636,-0.421762,-0.001539
1082,-0.139996,-0.647163,-0.001539
1083,-0.174541,-0.629824,-0.0208
1084,-0.347267,-0.473777,-0.001539
1085,-0.485449,-0.543131,-0.001539
1086,-0.122723,-0.4391,-0.001539
1087,0.084549,-0.19636,-0.001539
1088,0.188185,0.115734,-0.001539
1089,0.015458,0.618552,-0.001539
1090,-0.03636,0.618552,-0.001539
1091,-0.174541,0.445166,0.017721
1092,-0.226359,0.375812,-0.001539
1093,-0.243631,0.133072,-0.001539
1094,-0.260904,-0.040313,0.017721
1095,-0.157268,-0.057652,-0.001539
1096,0.15364,-0.07499,-0.001539
1097,0.084549,-0.07499,-0.0208
1098,0.032731,-0.040313,0.017721
1099,-0.053632,0.185088,-0.001539
1100,0.084549,0.237104,-0.0208
1101,0.274548,0.254442,-0.001539
1102,0.170912,0.029041,-0.0208
1103,0.067276,-0.283053,0.017721
1104,0.050004,-0.491116,0.017721
1105,-0.10545,-0.525793,-0.001539
1106,-0.278177,-0.387084,-0.0208
1107,-0.260904,-0.283053,-0.001539
1108,-0.312722,-0.005636,-0.0208
1109,-0.019087,-0.022975,-0.001539
1110,0.378184,0.029041,-0.001539
1111,0.516366,0.254442,-0.001539
1112,0.533638,-0.040313,-0.0208
1113,-0.157268,-0.300392,-0.0208
1114,-0.519994,-0.161683,0.017721
1115,-0.416358,0.098395,-0.001539
1116,-0.312722,0.237104,-0.001539
1117,-0.10545,0.098395,-0.0208
1118,0.032731,-0.144345,-0.001539
1119,0.240003,-0.248376,-0.001539
1120,0.326366,-0.248376,-0.001539
1121,0.291821,-0.369746,-0.001539
1122,-0.226359,-0.456439,-0.001539
1123,-0.191813,-0.144345,-0.001539
1124,-0.174541,-0.040313,0.017721
1125,-0.295449,-0.127006,0.017721
1126,-0.122723,0.081057,-0.001539
1127,0.050004,0.289119,-0.001539
1128,0.101822,0.410489,-0.04006
1129,0.240003,0.202426,-0.001539
1130,0.360912,0.098395,-0.001539
1131,0.378184,0.011702,-0.001539
1132,0.15364,0.202426,-0.001539
1133,0.067276,0.289119,-0.04006
1134,0.101822,0.081057,-0.001539
1135,0.205458,-0.005636,-0.001539
1136,0.309094,0.011702,-0.001539
1137,0.22273,0.063718,-0.001539
1138,-0.001814,0.081057,-0.001539
1139,-0.03636,0.167749,-0.001539
1140,0.015458,0.289119,-0.001539
1141,-0.019087,0.479843,-0.001539
1142,-0.209086,0.271781,-0.001539
1143,-0.260904,0.046379,-0.0208
1144,-0.174541,-0.092329,-0.001539
1145,-0.053632,-0.161683,-0.001539
1146,-0.243631,-0.56047,-0.001539
1147,-0.62363,-0.837887,-0.0208
1148,-0.295449,-0.647163,-0.001539
1149,0.015458,-0.300392,-0.001539
1150,-0.019087,0.011702,-0.001539
1151,-0.053632,0.029041,-0.001539
1152,0.067276,0.115734,-0.001539
1153,0.22273,0.341135,-0.001539
1154,0.309094,0.323796,-0.001539
1155,0.067276,0.167749,-0.0208
1156,0.032731,-0.19636,-0.001539
1157,0.343639,-0.421762,-0.001539
1158,0.585456,-0.404423,-0.001539
1159,0.723637,-0.161683,-0.001539
1160,0.602729,-0.248376,-0.0208
1161,-0.139996,0.254442,-0.001539
1162,-0.969083,0.826614,0.017721
1163,-0.537267,0.549198,-0.001539
1164,0.084549,0.011702,-0.001539
1165,0.274548,-0.231037,-0.0208
1166,0.274548,-0.491116,-0.001539
1167,-0.381813,-0.421762,-0.0208
1168,-0.95181,-0.040313,-0.001539
1169,-0.416358,0.393151,-0.0208
1170,0.067276,0.653229,-0.001539
1171,0.274548,0.358473,-0.0208
1172,0.585456,-0.022975,-0.001539
1173,0.41273,0.202426,-0.001539
1174,0.101822,0.133072,0.017721
1175,-0.157268,0.029041,-0.001539
1176,0.084549,0.150411,-0.001539
1177,0.050004,-0.161683,-0.001539
1178,-0.226359,-0.300392,-0.001539
1179,0.015458,-0.456439,-0.0208
1180,0.170912,-0.473777,-0.001539
1181,-0.226359,-0.80321,-0.001539
1182,-0.606357,-0.369746,0.017721
1183,-0.260904,0.133072,-0.001539
1184,-0.10545,0.51452,-0.001539
1185,-0.019087,0.739922,-0.001539
1186,0.032731,0.427828,-0.0208
1187,0.136367,0.115734,-0.001539
1188,0.15364,0.011702,-0.001539
1189,-0.174541,0.063718,-0.001539
1190,-0.053632,0.133072,-0.0208
1191,-0.070905,0.202426,-0.001539
1192,-0.001814,-0.022975,0.017721
1193,0.015458,-0.248376,-0.001539
1194,0.032731,-0.283053,-0.001539
1195,0.067276,-0.179022,-0.001539
1196,-0.001814,-0.022975,-0.001539
1197,-0.10545,-0.022975,-0.001539
1198,-0.019087,-0.300392,-0.001539
1199,0.032731,-0.352407,-0.001539
1200,-0.001814,-0.19636,-0.001539
1201,0.067276,-0.109668,-0.0208
1202,-0.209086,0.011702,-0.001539
1203,-0.243631,0.618552,0.017721
1204,-0.10545,0.531859,-0.001539
1205,-0.019087,0.167749,-0.001539
1206,0.188185,0.133072,-0.001539
1207,0.309094,-0.005636,-0.001539
1208,-0.019087,-0.057652,-0.0208
1209,-0.226359,-0.057652,-0.001539
1210,0.15364,-0.092329,-0.001539
1211,0.378184,0.046379,-0.001539
1212,0.360912,0.029041,-0.001539
1213,-0.174541,-0.022975,-0.001539
1214,-0.295449,0.029041,-0.0208
1215,-0.312722,0.046379,-0.0208
1216,-0.122723,-0.040313,-0.001539
1217,-0.157268,-0.057652,-0.001539
1218,-0.088178,-0.213699,0.017721
1219,-0.03636,-0.07499,-0.001539
1220,0.360912,-0.127006,-0.001539
1221,0.360912,-0.335069,-0.001539
1222,0.101822,-0.231037,-0.001539
1223,-0.606357,-0.092329,-0.001539
1224,-0.416358,-0.057652,-0.001539
1225,-0.174541,0.150411,-0.001539
1226,0.032731,0.393151,-0.001539
1227,0.170912,0.427828,-0.001539
1228,0.309094,0.358473,-0.0208
1229,-0.019087,0.167749,-0.0208
1230,-0.347267,0.011702,-0.001539
1231,-0.053632,0.098395,-0.001539
1232,0.274548,-0.057652,-0.001539
1233,0.22273,-0.161683,-0.001539
1234,0.15364,-0.19636,-0.0208
1235,0.050004,-0.092329,-0.001539
1236,-0.088178,-0.161683,-0.001539
1237,-0.226359,-0.179022,-0.001539
1238,-0.278177,-0.092329,-0.0208
1239,-0.053632,-0.022975,-0.001539
1240,0.015458,-0.040313,-0.001539
1241,0.084549,-0.022975,-0.04006
1242,0.257276,-0.005636,-0.0208
1243,0.101822,-0.109668,-0.0208
1244,-0.001814,-0.109668,-0.001539
1245,-0.019087,0.046379,-0.0208
1246,-0.053632,0.063718,-0.001539
1247,-0.070905,-0.022975,-0.001539
1248,-0.03636,-0.022975,-0.001539
1249,-0.03636,-0.040313,-0.001539
1250,-0.019087,-0.109668,-0.001539
1251,-0.001814,-0.231037,-0.001539
1252,-0.053632,-0.179022,-0.001539
1253,-0.088178,-0.161683,-0.001539
1254,-0.122723,-0.092329,-0.001539
1255,-0.10545,0.167749,-0.0208
1256,0.015458,0.029041,-0.001539
1257,0.101822,-0.022975,-0.001539
1258,0.170912,0.081057,-0.001539
1259,0.050004,0.219765,-0.001539
1260,-0.03636,0.115734,-0.001539
1261,-0.03636,0.150411,-0.001539
1262,-0.03636,0.115734,-0.001539
1263,0.22273,0.046379,-0.001539
1264,0.22273,0.011702,-0.001539
1265,0.067276,0.029041,-0.001539
1266,-0.260904,0.011702,-0.001539
1267,-0.260904,-0.022975,-0.001539
1268,-0.157268,0.011702,-0.001539
1269,-0.03636,0.011702,-0.001539
1270,0.15364,-0.022975,-0.001539
1271,0.205458,-0.040313,-0.0208
1272,0.170912,-0.092329,-0.001539
1273,0.084549,-0.248376,-0.001539
1274,-0.226359,-0.387084,-0.0208
1275,-0.191813,-0.31773,-0.001539
1276,-0.157268,-0.144345,-0.0208
1277,-0.10545,0.098395,-0.001539
1278,-0.03636,0.358473,-0.001539
1279,0.032731,0.289119,-0.001539
1280,0.15364,-0.022975,-0.001539
1281,0.309094,-0.161683,-0.0208
1282,0.050004,-0.179022,-0.0208
1283,0.015458,-0.022975,-0.001539
1284,-0.243631,0.167749,-0.001539
1285,-0.10545,-0.179022,-0.001539
1286,-0.03636,-0.456439,-0.0208
1287,-0.088178,-0.352407,-0.001539
1288,-0.053632,0.029041,-0.0208
1289,0.15364,0.393151,-0.0208
1290,0.257276,0.63589,-0.0208
1291,0.22273,0.549198,-0.001539
1292,-0.03636,0.289119,0.017721
1293,-0.088178,0.081057,-0.001539
1294,-0.174541,-0.092329,-0.0208
1295,-0.157268,-0.109668,-0.001539
1296,-0.019087,-0.092329,-0.001539
1297,0.15364,0.029041,-0.001539
1298,0.119094,0.098395,-0.001539
1299,-0.019087,0.098395,-0.001539
1300,-0.088178,-0.005636,-0.001539
1301,-0.122723,-0.283053,-0.001539
1302,0.205458,-0.213699,-0.001539
1303,0.499093,-0.335069,-0.001539
1304,0.533638,-0.248376,-0.001539
1305,0.032731,0.237104,-0.001539
1306,-0.157268,0.427828,-0.0208
1307,-0.381813,0.306458,-0.001539
1308,-0.03636,0.341135,-0.0208
1309,0.032731,0.219765,-0.001539
1310,-0.03636,-0.092329,-0.0208
1311,-0.088178,-0.161683,-0.001539
1312,-0.053632,-0.057652,-0.0208
1313,-0.053632,-0.005636,-0.001539
1314,-0.088178,-0.022975,-0.001539
1315,-0.019087,-0.022975,-0.001539
1316,-0.053632,-0.07499,-0.0208
1317,-0.03636,-0.092329,-0.0208
1318,-0.001814,-0.022975,-0.001539
1319,-0.001814,-0.022975,-0.001539
1320,-0.001814,-0.040313,-0.001539
1321,-0.019087,-0.005636,-0.0208
1322,0.015458,-0.040313,-0.001539
1323,-0.019087,-0.092329,-0.001539
1324,-0.001814,-0.092329,-0.001539
1325,-0.019087,-0.040313,-0.001539
1326,-0.019087,-0.040313,-0.0208
1327,-0.019087,0.011702,-0.001539
1328,-0.019087,-0.022975,-0.0208
1329,-0.019087,-0.057652,-0.001539
1330,-0.001814,-0.092329,-0.0208
1331,-0.053632,-0.092329,-0.0208
1332,-0.10545,-0.022975,0.017721
1333,-0.122723,0.185088,0.017721
1334,-0.019087,0.150411,-0.001539
1335,0.067276,0.029041,-0.001539
1336,0.257276,-0.005636,-0.001539
1337,0.101822,-0.057652,-0.001539
1338,0.015458,0.011702,-0.0208
1339,-0.001814,-0.005636,-0.001539
1340,-0.03636,0.011702,-0.001539
1341,-0.03636,0.011702,-0.001539
1342,-0.03636,0.011702,-0.001539
1343,0.015458,-0.005636,-0.001539
1344,0.032731,-0.022975,-0.001539
1345,-0.001814,-0.005636,-0.0208
1346,-0.001814,-0.040313,-0.001539
1347,-0.001814,-0.022975,-0.001539
1348,-0.001814,-0.005636,-0.001539
1349,0.015458,-0.005636,-0.001539
1350,-0.001814,-0.057652,-0.001539
1351,-0.019087,0.081057,-0.001539
1352,0.015458,0.115734,-0.001539
1353,0.015458,0.081057,-0.001539
1354,-0.019087,-0.07499,-0.001539
1355,-0.070905,-0.300392,-0.001539
1356,-0.03636,-0.109668,-0.001539
1357,-0.001814,-0.040313,-0.001539
1358,0.015458,-0.179022,-0.001539
1359,0.119094,-0.213699,-0.001539
1360,0.188185,-0.144345,-0.001539
1361,0.15364,0.115734,-0.001539
1362,0.067276,0.306458,-0.001539
1363,-0.226359,-0.005636,-0.0208
1364,-0.070905,-0.19636,-0.001539
1365,0.015458,-0.265715,-0.0208
1366,0.084549,-0.127006,0.017721
1367,-0.139996,0.081057,-0.001539
1368,-0.10545,0.445166,-0.001539
1369,0.015458,0.393151,-0.001539
1370,-0.019087,0.237104,-0.001539
1371,-0.03636,0.081057,-0.001539
1372,-0.001814,-0.109668,-0.001539
1373,-0.001814,-0.022975,-0.0208
1374,-0.053632,0.011702,-0.001539
1375,-0.088178,-0.005636,-0.0208
1376,-0.03636,-0.022975,-0.001539
1377,0.084549,-0.005636,-0.001539
1378,0.050004,0.029041,-0.001539
1379,0.015458,-0.005636,-0.001539
1380,0.067276,0.011702,-0.0208
1381,0.032731,0.011702,-0.001539
1382,0.067276,-0.057652,-0.001539
1383,0.032731,-0.07499,-0.001539
1384,-0.001814,-0.057652,-0.001539
1385,-0.10545,-0.07499,-0.001539
1386,-0.053632,-0.022975,0.017721
1387,-0.019087,0.133072,-0.001539
1388,-0.03636,0.046379,-0.001539
1389,0.015458,-0.005636,-0.0208
1390,-0.001814,-0.022975,-0.0208
1391,0.015458,-0.022975,-0.001539
1392,-0.019087,-0.022975,0.017721
1393,-0.001814,0.029041,-0.0208
1394,-0.001814,-0.040313,-0.001539
1395,-0.001814,-0.022975,-0.001539
1396,-0.019087,-0.040313,-0.001539
1397,-0.03636,-0.022975,-0.0208
1398,-0.001814,-0.005636,-0.001539
1399,-0.001814,0.011702,-0.001539
1400,0.032731,0.046379,-0.0208
1401,0.015458,0.046379,-0.0208
1402,0.015458,0.011702,-0.0208
1403,-0.001814,-0.092329,-0.001539
1404,0.015458,-0.127006,0.017721
1405,-0.019087,-0.109668,-0.001539
1406,-0.019087,-0.07499,-0.001539
1407,-0.03636,0.029041,-0.001539
1408,-0.019087,0.046379,-0.001539
1409,-0.019087,0.011702,-0.001539
1410,-0.001814,-0.005636,0.017721
1411,-0.019087,-0.022975,-0.04006
1412,-0.019087,-0.040313,-0.001539
1413,-0.001814,0.029041,-0.001539
1414,-0.019087,0.046379,-0.001539
1415,-0.03636,0.046379,-0.001539
1416,-0.019087,-0.005636,-0.001539
1417,-0.019087,-0.005636,-0.001539
1418,0.015458,-0.022975,-0.001539
1419,0.015458,0.011702,-0.001539
1420,-0.03636,0.029041,-0.0208
1421,-0.03636,0.011702,-0.001539
1422,-0.001814,-0.005636,-0.001539
1423,-0.001814,0.011702,-0.001539
1424,-0.019087,-0.022975,-0.001539
1425,-0.019087,-0.022975,-0.001539
1426,-0.019087,-0.040313,-0.001539
1427,-0.019087,0.011702,0.017721
1428,-0.001814,-0.057652,0.017721
1429,-0.03636,-0.022975,-0.001539
1430,-0.019087,0.011702,-0.0208
1431,-0.019087,-0.005636,-0.0208
1432,-0.019087,0.011702,-0.0208
1433,-0.019087,0.011702,-0.0208
1434,-0.019087,0.029041,-0.001539
1435,0.015458,0.011702,-0.0208
1436,-0.001814,-0.005636,-0.001539
1437,-0.019087,0.011702,0.017721
1438,0.015458,-0.022975,0.017721
1439,-0.019087,-0.022975,-0.001539
1440,-0.001814,0.011702,-0.001539
1441,-0.019087,0.011702,-0.001539
1442,-0.03636,-0.022975,-0.001539
1443,-0.001814,-0.005636,-0.001539
1444,-0.001814,-0.040313,-0.001539
1445,-0.001814,-0.022975,0.017721
1446,-0.001814,-0.022975,-0.0208
1447,-0.070905,-0.005636,-0.001539
1448,0.015458,-0.005636,-0.001539
1449,-0.001814,0.029041,-0.001539
1450,-0.019087,0.046379,-0.0208
1451,-0.019087,0.046379,0.036981
1452,-0.03636,-0.005636,-0.001539
1453,-0.001814,-0.005636,-0.001539
1454,-0.001814,-0.005636,-0.0208
1455,-0.001814,-0.040313,-0.0208
1456,-0.03636,-0.022975,-0.001539
1457,-0.019087,-0.005636,-0.0208
1458,-0.019087,-0.005636,-0.001539
1459,0.015458,0.011702,-0.001539
1460,-0.001814,0.029041,-0.0208
1461,-0.001814,-0.005636,-0.001539
1462,-0.001814,-0.005636,-0.001539
1463,-0.019087,0.029041,-0.001539
1464,-0.019087,-0.005636,-0.0208
1465,-0.03636,-0.005636,-0.001539
1466,0.015458,0.011702,-0.001539
1467,0.015458,-0.022975,-0.001539
1468,0.015458,-0.022975,-0.001539
1469,-0.001814,-0.005636,-0.001539
1470,-0.019087,0.011702,-0.001539
1471,-0.019087,-0.022975,0.017721
1472,-0.03636,-0.022975,-0.001539
1473,-0.03636,-0.005636,-0.001539
1474,-0.070905,-0.005636,-0.001539
1475,-0.053632,-0.005636,-0.001539
1476,-0.088178,0.011702,-0.0208
1477,0.015458,-0.022975,-0.0208
1478,0.067276,-0.022975,-0.0208
1479,0.050004,-0.005636,-0.0208
1480,-0.001814,-0.005636,-0.001539
1481,-0.001814,-0.022975,-0.0208
1482,-0.019087,-0.022975,-0.001539
1483,-0.019087,0.011702,-0.001539
1484,-0.019087,-0.005636,-0.04006
1485,0.015458,0.011702,-0.001539
1486,0.015458,0.011702,0.017721
1487,-0.019087,0.029041,-0.001539
1488,-0.019087,-0.005636,-0.001539
1489,-0.053632,-0.005636,-0.0208
1490,-0.019087,-0.022975,-0.001539
1491,-0.001814,-0.040313,0.036981
1492,-0.001814,-0.022975,-0.001539
1493,-0.001814,-0.005636,-0.001539
1494,-0.001814,-0.022975,-0.001539
1495,-0.03636,-0.005636,-0.001539
1496,-0.03636,-0.022975,-0.0208
1497,-0.03636,-0.040313,-0.0208
1498,-0.03636,-0.005636,-0.001539
1499,-0.001814,0.029041,-0.04006
1500,-0.001814,0.046379,-0.001539
1501,-0.001814,0.011702,-0.001539
1502,-0.001814,0.011702,-0.001539
1503,-0.001814,0.011702,-0.001539
1504,-0.019087,-0.005636,-0.0208
1505,0.015458,-0.022975,0.017721
1506,-0.001814,-0.005636,0.017721
1507,-0.053632,-0.040313,-0.001539
1508,-0.001814,-0.057652,-0.0208
1509,0.015458,-0.022975,-0.0208
1510,-0.001814,-0.022975,0.036981
1511,-0.019087,-0.022975,-0.001539
1512,-0.001814,0.011702,-0.001539
1513,-0.03636,-0.005636,-0.0208
1514,-0.019087,-0.005636,-0.001539
1515,0.015458,0.029041,0.017721
1516,-0.001814,0.029041,-0.001539
1517,-0.019087,0.029041,-0.001539
1518,-0.019087,-0.022975,-0.001539
1519,-0.001814,-0.005636,-0.001539
1520,-0.001814,-0.005636,-0.0208
1521,-0.001814,-0.040313,-0.001539
1522,0.015458,-0.022975,-0.001539
1523,-0.019087,-0.022975,0.017721
1524,-0.019087,-0.022975,-0.001539
1525,-0.019087,-0.022975,-0.001539
1526,-0.03636,0.011702,-0.001539
1527,-0.019087,-0.022975,-0.0208
1528,-0.03636,-0.022975,-0.001539
1529,-0.001814,0.029041,-0.001539
1530,-0.001814,-0.005636,-0.001539
1531,-0.001814,-0.005636,-0.001539
1532,0.015458,0.011702,-0.001539
1533,0.032731,-0.005636,-0.001539
1534,0.032731,-0.005636,-0.0208
1535,-0.019087,0.029041,-0.001539
1536,-0.001814,0.029041,-0.001539
1537,-0.03636,0.011702,-0.001539
1538,-0.019087,0.029041,-0.001539
1539,-0.019087,0.029041,0.017721
1540,-0.019087,0.011702,0.017721
1541,-0.001814,0.011702,-0.001539
1542,-0.001814,0.011702,-0.001539
1543,-0.001814,-0.005636,-0.0208
1544,-0.001814,-0.005636,-0.001539
1545,-0.019087,-0.005636,-0.0208
1546,-0.001814,-0.005636,-0.0208
1547,-0.001814,-0.022975,-0.001539
1548,-0.019087,0.011702,-0.001539
1549,-0.001814,0.029041,-0.001539
1550,-0.001814,-0.022975,0.017721
1551,-0.001814,-0.005636,-0.001539
1552,0.015458,0.011702,-0.001539
1553,-0.001814,0.011702,-0.001539
1554,-0.001814,0.011702,-0.001539
1555,-0.019087,0.011702,-0.001539
1556,-0.001814,-0.005636,-0.001539
1557,-0.03636,-0.022975,0.017721
1558,-0.019087,-0.040313,0.017721
1559,-0.001814,-0.040313,-0.0208
1560,-0.001814,-0.040313,-0.001539
1561,0.015458,-0.022975,-0.001539
1562,-0.03636,-0.005636,-0.001539
1563,-0.019087,-0.057652,-0.001539
1564,-0.019087,-0.022975,-0.001539
1565,-0.019087,-0.005636,0.017721
1566,-0.019087,0.029041,-0.001539
1567,0.015458,0.011702,-0.001539
1568,0.050004,0.011702,-0.0208
1569,0.015458,-0.005636,-0.0208
1570,-0.019087,0.011702,-0.0208
1571,-0.019087,-0.022975,-0.001539
1572,0.015458,-0.022975,-0.0208
1573,0.015458,-0.022975,-0.001539
1574,-0.001814,-0.022975,-0.001539
1575,0.015458,-0.005636,-0.001539
1576,0.015458,-0.040313,-0.001539
1577,-0.001814,-0.022975,-0.001539
1578,-0.019087,-0.022975,-0.001539
1579,-0.053632,0.011702,-0.0208
1580,-0.001814,0.011702,-0.04006
1581,-0.03636,0.029041,-0.001539
1582,0.015458,0.011702,-0.001539
1583,0.015458,-0.022975,-0.001539
1584,-0.019087,0.011702,-0.001539
1585,-0.019087,0.011702,-0.001539
1586,-0.019087,-0.022975,-0.001539
1587,-0.001814,-0.022975,-0.001539
1588,0.015458,0.011702,-0.001539
1589,0.015458,-0.022975,-0.0208
1590,0.015458,-0.005636,-0.001539
1591,0.015458,-0.005636,-0.001539
1592,-0.03636,-0.005636,-0.001539
1593,-0.019087,-0.005636,-0.0208
1594,-0.019087,0.011702,-0.001539
1595,0.015458,-0.005636,-0.0208
1596,0.015458,-0.022975,-0.001539
1597,-0.03636,-0.022975,-0.0208
1598,-0.001814,0.011702,-0.001539
1599,-0.001814,-0.005636,-0.001539
1600,-0.03636,-0.022975,-0.001539
1601,-0.001814,0.011702,-0.001539
1602,0.015458,0.011702,-0.001539
1603,-0.001814,-0.005636,-0.001539
1604,-0.001814,-0.005636,-0.001539
1605,-0.019087,0.011702,-0.001539
1606,-0.001814,-0.005636,-0.001539
1607,-0.019087,-0.005636,-0.001539
1608,-0.001814,0.011702,-0.001539
1609,-0.019087,-0.005636,-0.001539
1610,-0.001814,-0.022975,-0.0208
1611,-0.053632,-0.005636,-0.001539
1612,-0.019087,-0.022975,-0.001539
1613,-0.019087,-0.040313,-0.001539
1614,0.015458,0.011702,-0.001539
1615,-0.019087,0.011702,-0.001539
1616,0.015458,-0.005636,-0.0208
1617,0.015458,0.011702,-0.001539
1618,0.032731,0.011702,-0.001539
1619,-0.001814,0.029041,-0.001539
1620,-0.019087,0.011702,-0.001539
1621,-0.03636,0.011702,-0.001539
1622,-0.03636,-0.005636,-0.001539
1623,0.015458,-0.057652,-0.001539
1624,-0.001814,-0.057652,-0.001539
1625,-0.019087,-0.040313,-0.001539
1626,-0.03636,-0.057652,0.017721
1627,-0.03636,-0.040313,-0.001539
1628,-0.019087,-0.005636,-0.0208
1629,-0.001814,-0.022975,-0.001539
1630,0.015458,0.029041,-0.001539
1631,0.032731,0.029041,-0.001539
1632,-0.001814,0.029041,-0.001539
1633,-0.001814,0.046379,-0.001539
1634,-0.001814,0.029041,-0.001539
1635,0.015458,0.029041,-0.001539
1636,-0.001814,0.011702,-0.001539
1637,0.015458,-0.022975,0.017721
1638,0.032731,-0.005636,-0.001539
1639,0.015458,-0.022975,-0.001539
1640,-0.019087,-0.005636,-0.001539
1641,-0.001814,0.011702,-0.001539
1642,-0.03636,-0.040313,-0.0208
1643,-0.03636,-0.005636,-0.001539
1644,-0.001814,-0.005636,-0.001539
1645,-0.001814,-0.005636,-0.001539
1646,-0.001814,-0.005636,-0.001539
1647,-0.019087,-0.005636,-0.0208
1648,-0.001814,-0.005636,-0.001539
1649,0.015458,-0.005636,-0.001539
1650,0.015458,-0.040313,0.017721
1651,0.015458,-0.005636,-0.001539
1652,0.084549,-0.022975,-0.001539
1653,-0.001814,0.011702,-0.001539
1654,-0.001814,0.029041,0.017721
1655,-0.019087,-0.005636,-0.001539
1656,-0.03636,-0.005636,-0.001539
1657,-0.019087,0.011702,-0.001539
1658,-0.019087,-0.022975,-0.0208
1659,-0.053632,-0.022975,0.017721
1660,-0.03636,-0.005636,-0.001539
1661,-0.019087,-0.022975,-0.001539
1662,-0.001814,-0.005636,0.036981
1663,-0.019087,-0.040313,-0.001539
1664,-0.001814,-0.022975,-0.0208
1665,0.015458,-0.022975,0.017721
1666,0.015458,0.011702,0.017721
1667,-0.001814,-0.005636,-0.001539
1668,0.032731,-0.040313,-0.001539
1669,0.015458,-0.005636,-0.001539
1670,0.015458,0.029041,0.036981
1671,-0.019087,0.011702,-0.0208
1672,-0.001814,-0.005636,-0.001539
1673,-0.001814,-0.005636,-0.001539
1674,-0.019087,-0.022975,-0.001539
1675,0.015458,-0.040313,-0.0208
1676,-0.001814,-0.040313,0.017721
1677,-0.019087,-0.022975,0.017721
1678,-0.019087,-0.057652,-0.001539
1679,-0.001814,-0.022975,-0.001539
1680,0.015458,-0.005636,-0.001539
1681,-0.001814,0.029041,-0.001539
1682,-0.001814,0.011702,-0.001539
1683,0.015458,-0.005636,-0.001539
1684,-0.001814,0.011702,-0.0208
1685,-0.019087,-0.005636,-0.001539
1686,-0.001814,0.046379,-0.001539
1687,-0.001814,-0.005636,-0.001539
1688,-0.019087,-0.022975,-0.0208
1689,-0.019087,-0.040313,-0.001539
1690,-0.019087,-0.005636,-0.0208
1691,-0.03636,-0.022975,-0.001539
1692,-0.001814,-0.022975,-0.001539
1693,-0.019087,0.011702,-0.001539
1694,-0.019087,-0.005636,-0.001539
1695,-0.019087,-0.022975,-0.0208
1696,0.015458,-0.005636,0.017721
1697,-0.001814,0.011702,-0.04006
1698,-0.001814,-0.005636,-0.001539
1699,0.015458,0.063718,-0.001539
1700,-0.001814,0.011702,-0.001539
1701,0.032731,-0.005636,-0.001539
1702,0.015458,-0.040313,-0.0208
1703,0.015458,0.011702,-0.001539
1704,0.015458,-0.022975,-0.0208
1705,-0.03636,-0.040313,-0.001539
1706,-0.03636,-0.022975,-0.0208
1707,-0.070905,0.011702,0.017721
1708,-0.053632,-0.022975,0.017721
1709,-0.070905,-0.005636,0.017721
1710,-0.019087,-0.022975,-0.001539
1711,-0.03636,-0.022975,-0.001539
1712,-0.019087,0.011702,-0.001539
1713,-0.001814,-0.005636,-0.0208
1714,-0.001814,-0.022975,-0.001539
1715,0.032731,-0.005636,-0.001539
1716,0.015458,0.011702,-0.001539
1717,0.015458,0.011702,-0.001539
1718,0.015458,-0.005636,-0.0208
1719,0.015458,0.011702,-0.001539
1720,0.032731,0.029041,-0.001539
1721,0.015458,-0.005636,-0.001539
1722,-0.001814,0.081057,-0.001539
1723,0.015458,0.029041,-0.001539
1724,-0.001814,-0.005636,-0.001539
1725,-0.001814,-0.022975,-0.0208
1726,-0.019087,-0.005636,-0.001539
1727,-0.03636,-0.022975,-0.001539
1728,-0.001814,-0.022975,0.017721
1729,-0.001814,-0.005636,-0.001539
1730,-0.001814,-0.022975,0.017721
1731,0.015458,-0.005636,-0.001539
1732,-0.019087,-0.005636,-0.001539
1733,-0.001814,0.011702,-0.0208
1734,-0.001814,-0.005636,-0.0208
1735,0.015458,0.011702,-0.001539
1736,-0.001814,0.029041,-0.001539
1737,-0.001814,0.011702,-0.001539
1738,-0.019087,-0.022975,-0.0208
1739,-0.019087,-0.005636,-0.001539
1740,-0.03636,-0.022975,-0.001539
1741,-0.019087,-0.040313,-0.001539
1742,-0.070905,-0.040313,-0.0208
1743,-0.03636,-0.040313,-0.0208
1744,-0.03636,-0.057652,-0.001539
1745,-0.019087,-0.040313,-0.001539
1746,-0.019087,-0.005636,-0.001539
1747,-0.019087,0.029041,-0.001539
1748,0.015458,0.011702,-0.001539
1749,0.032731,0.011702,-0.001539
1750,-0.001814,0.029041,-0.001539
1751,-0.019087,0.011702,-0.001539
1752,-0.001814,0.029041,-0.001539
1753,-0.001814,0.011702,-0.001539
1754,-0.001814,-0.005636,-0.001539
1755,0.015458,-0.022975,-0.001539
1756,0.015458,-0.022975,-0.001539
1757,-0.019087,-0.040313,-0.001539
1758,-0.019087,-0.022975,-0.001539
1759,-0.019087,-0.005636,-0.04006
1760,-0.001814,0.011702,-0.001539
1761,-0.019087,-0.005636,-0.001539
1762,-0.019087,0.011702,-0.001539
1763,-0.001814,0.011702,-0.0208
1764,-0.019087,-0.005636,-0.0208
1765,0.015458,0.011702,-0.001539
1766,-0.001814,0.011702,0.017721
1767,0.032731,-0.005636,-0.001539
1768,-0.001814,-0.022975,-0.001539
1769,0.032731,0.011702,-0.0208
1770,-0.001814,-0.005636,0.017721
1771,-0.03636,-0.005636,-0.001539
1772,-0.001814,-0.005636,-0.001539
1773,-0.001814,0.011702,-0.001539
1774,-0.001814,-0.005636,-0.001539
1775,0.015458,-0.005636,-0.001539
1776,-0.001814,-0.005636,-0.001539
1777,-0.001814,-0.022975,-0.0208
1778,0.032731,0.011702,-0.001539
1779,0.015458,0.011702,-0.001539
1780,-0.001814,-0.022975,-0.001539
1781,0.032731,-0.022975,-0.001539
1782,0.032731,-0.022975,-0.001539
1783,-0.001814,-0.022975,-0.001539
1784,0.032731,-0.005636,0.017721
1785,0.015458,0.011702,-0.001539
1786,0.015458,0.029041,-0.001539
1787,0.015458,-0.022975,-0.001539
1788,0.015458,-0.005636,-0.001539
1789,-0.019087,0.029041,-0.001539
1790,-0.019087,-0.005636,-0.0208
1791,-0.019087,-0.040313,-0.0208
1792,-0.019087,-0.005636,-0.001539
1793,-0.019087,-0.005636,-0.001539
1794,-0.03636,-0.040313,-0.001539
1795,0.015458,-0.005636,-0.001539
1796,0.015458,-0.022975,-0.0208
1797,0.015458,-0.005636,-0.001539
1798,0.032731,0.011702,-0.001539
1799,-0.001814,0.029041,-0.001539
1800,0.015458,-0.022975,-0.001539
1801,-0.001814,0.011702,-0.001539
1802,-0.019087,0.011702,-0.001539
1803,0.032731,-0.005636,-0.0208
1804,-0.001814,-0.005636,-0.001539
1805,-0.019087,0.011702,-0.001539
1806,-0.019087,-0.057652,-0.001539
1807,-0.019087,-0.040313,-0.001539
1808,-0.001814,-0.022975,-0.001539
1809,0.015458,-0.040313,-0.0208
1810,0.015458,-0.022975,-0.001539
1811,-0.001814,-0.005636,-0.001539
1812,-0.019087,-0.022975,-0.001539
1813,0.015458,-0.005636,-0.001539
1814,0.032731,0.011702,-0.001539
1815,-0.019087,0.046379,-0.0208
1816,-0.019087,0.011702,0.056242
1817,-0.019087,-0.005636,-0.001539
1818,-0.019087,0.011702,-0.001539
1819,-0.019087,-0.040313,-0.001539
1820,-0.019087,-0.022975,0.017721
1821,-0.019087,-0.022975,-0.001539
1822,-0.019087,-0.022975,-0.001539
1823,-0.001814,-0.022975,-0.0208
1824,-0.001814,-0.022975,-0.001539
1825,0.032731,-0.005636,-0.001539
1826,0.015458,0.011702,0.017721
1827,-0.001814,-0.005636,-0.001539
1828,-0.053632,-0.040313,-0.001539
1829,-0.03636,-0.005636,-0.001539
1830,-0.001814,-0.005636,-0.001539
1831,-0.001814,0.029041,-0.001539
1832,-0.001814,0.011702,-0.001539
1833,-0.001814,-0.005636,-0.0208
1834,0.015458,-0.057652,-0.001539
1835,-0.019087,0.011702,-0.001539
1836,-0.001814,-0.022975,-0.001539
1837,-0.019087,-0.005636,-0.001539
1838,0.015458,-0.005636,-0.0208
1839,-0.001814,0.011702,-0.0208
1840,-0.019087,-0.005636,-0.001539
1841,-0.019087,0.011702,-0.0208
1842,-0.053632,0.011702,-0.0208
1843,-0.019087,-0.022975,-0.0208
1844,-0.001814,0.011702,-0.001539
1845,-0.001814,-0.005636,-0.001539
1846,0.015458,-0.022975,-0.001539
1847,0.032731,-0.005636,-0.0208
1848,-0.001814,-0.005636,-0.001539
1849,-0.019087,-0.022975,-0.001539
1850,-0.001814,-0.022975,-0.001539
1851,-0.019087,0.011702,-0.001539
1852,-0.001814,0.011702,-0.0208
1853,-0.019087,-0.022975,-0.001539
1854,-0.019087,0.011702,0.017721
1855,-0.001814,0.011702,-0.001539
1856,-0.001814,-0.022975,-0.001539
1857,0.015458,-0.022975,-0.001539
1858,-0.019087,-0.005636,-0.001539
1859,-0.019087,-0.022975,-0.001539
1860,-0.019087,-0.040313,-0.001539
1861,-0.001814,-0.040313,-0.001539
1862,-0.001814,-0.005636,-0.001539
1863,-0.001814,-0.022975,-0.001539
1864,-0.019087,-0.005636,-0.001539
1865,-0.001814,0.011702,-0.0208
1866,-0.001814,-0.005636,-0.0208
1867,0.015458,0.029041,-0.001539
1868,0.015458,0.011702,-0.001539
1869,-0.019087,0.011702,-0.001539
1870,-0.001814,-0.040313,-0.001539
1871,-0.001814,-0.005636,-0.001539
1872,-0.019087,-0.022975,-0.0208
1873,-0.019087,-0.022975,-0.0208
1874,0.015458,-0.022975,0.017721
1875,0.015458,-0.040313,-0.001539
1876,0.015458,-0.057652,-0.001539
1877,-0.001814,-0.022975,-0.0208
1878,-0.001814,0.011702,-0.001539
1879,0.015458,0.029041,-0.001539
1880,-0.019087,0.011702,-0.001539
1881,-0.001814,0.011702,-0.001539
1882,-0.001814,-0.005636,-0.001539
1883,0.015458,-0.005636,-0.001539
1884,-0.001814,0.011702,-0.001539
1885,-0.001814,0.011702,-0.001539
1886,-0.019087,-0.022975,-0.001539
1887,-0.001814,-0.005636,0.017721
1888,-0.03636,-0.040313,-0.001539
1889,-0.03636,-0.040313,-0.001539
1890,-0.053632,-0.022975,-0.0208
1891,-0.019087,-0.005636,-0.001539
1892,-0.001814,0.011702,-0.001539
1893,-0.001814,0.011702,-0.0208
1894,0.015458,0.011702,-0.001539
1895,0.015458,-0.005636,-0.001539
1896,-0.001814,-0.022975,-0.0208
1897,-0.019087,-0.022975,-0.001539
1898,-0.001814,0.011702,-0.001539
1899,0.015458,-0.005636,-0.001539
1900,0.015458,-0.022975,-0.001539
1901,0.015458,-0.005636,-0.001539
1902,0.032731,-0.022975,-0.001539
1903,0.015458,-0.005636,0.017721
1904,-0.019087,0.011702,-0.001539
1905,-0.019087,0.011702,-0.001539
1906,-0.019087,-0.005636,-0.001539
1907,-0.001814,0.011702,-0.0208
1908,-0.03636,-0.022975,-0.001539
1909,-0.001814,-0.005636,-0.0208
1910,-0.019087,0.011702,-0.0208
1911,0.032731,-0.022975,-0.001539
1912,0.015458,-0.022975,0.017721
1913,-0.001814,-0.005636,-0.001539
1914,-0.001814,-0.005636,-0.001539
1915,-0.019087,-0.022975,-0.0208
1916,-0.019087,-0.005636,0.017721
1917,0.015458,0.011702,-0.0208
1918,-0.001814,0.029041,-0.001539
1919,-0.001814,0.011702,0.017721
1920,-0.001814,0.029041,-0.001539
1921,-0.019087,-0.005636,-0.0208
1922,0.015458,-0.005636,-0.001539
1923,0.015458,-0.022975,-0.001539
1924,-0.019087,-0.005636,-0.001539
1925,-0.019087,-0.022975,-0.001539
1926,-0.053632,-0.040313,0.017721
1927,-0.03636,-0.022975,-0.001539
1928,-0.001814,-0.022975,-0.001539
1929,-0.019087,-0.005636,-0.0208
1930,-0.001814,0.029041,-0.001539
1931,0.015458,0.029041,0.017721
1932,-0.001814,0.011702,-0.001539
1933,0.015458,0.029041,-0.001539
1934,0.015458,-0.005636,-0.001539
1935,-0.001814,-0.005636,-0.001539
1936,-0.001814,-0.040313,-0.001539
1937,-0.001814,-0.022975,-0.001539
1938,0.015458,-0.022975,-0.001539
1939,0.015458,-0.022975,-0.001539
1940,-0.001814,-0.022975,-0.001539
1941,-0.019087,-0.07499,-0.001539
1942,-0.03636,-0.005636,-0.001539
1943,0.015458,-0.005636,-0.0208
1944,-0.03636,0.011702,-0.001539
1945,-0.03636,0.011702,-0.0208
1946,-0.03636,-0.005636,-0.001539
1947,-0.03636,0.011702,0.017721
1948,-0.001814,-0.005636,-0.0208
1949,-0.019087,-0.005636,-0.0208
1950,-0.001814,-0.005636,-0.001539
1951,-0.001814,-0.005636,-0.001539
1952,0.032731,-0.005636,-0.001539
1953,-0.001814,0.011702,-0.001539
1954,-0.001814,-0.022975,0.017721
1955,-0.019087,-0.040313,-0.001539
1956,-0.019087,-0.022975,-0.001539
1957,-0.03636,-0.005636,-0.001539
1958,-0.001814,-0.022975,-0.001539
1959,-0.001814,-0.005636,-0.001539
1960,-0.001814,0.011702,-0.001539
1961,-0.019087,-0.005636,0.017721
1962,-0.001814,-0.022975,-0.0208
1963,-0.001814,0.029041,-0.0208
1964,0.015458,0.011702,-0.001539
1965,-0.001814,-0.022975,0.017721
1966,-0.019087,-0.005636,-0.0208
1967,-0.001814,0.011702,-0.0208
1968,-0.001814,-0.022975,-0.001539
1969,0.015458,-0.005636,-0.001539
1970,-0.019087,-0.005636,0.017721
1971,0.015458,0.029041,-0.04006
1972,0.015458,-0.005636,-0.0208
1973,-0.019087,-0.022975,-0.001539
1974,-0.019087,0.011702,-0.0208
1975,-0.053632,-0.022975,-0.0208
1976,-0.03636,0.029041,-0.0208
1977,-0.019087,-0.005636,-0.001539
1978,-0.019087,-0.022975,-0.001539
1979,-0.019087,-0.040313,-0.001539
1980,-0.019087,-0.005636,-0.001539
1981,0.015458,-0.022975,-0.001539
1982,-0.001814,0.011702,0.017721
1983,-0.001814,0.029041,-0.001539
1984,0.067276,0.029041,-0.001539
1985,-0.001814,0.011702,0.017721
1986,0.015458,-0.005636,-0.001539
1987,0.015458,-0.022975,-0.0208
1988,-0.001814,-0.022975,-0.001539
1989,-0.001814,-0.022975,-0.001539
1990,-0.001814,-0.005636,-0.001539
1991,-0.019087,-0.040313,-0.001539
1992,-0.019087,-0.07499,-0.001539
1993,-0.03636,-0.022975,-0.001539
1994,-0.019087,-0.040313,-0.001539
1995,0.032731,-0.005636,-0.001539
1996,-0.019087,0.011702,-0.001539
1997,-0.019087,0.011702,-0.001539
1998,-0.001814,0.011702,-0.001539
1999,0.015458,0.011702,-0.0208
2000,0.032731,0.029041,-0.001539
2001,0.015458,0.029041,-0.001539
2002,0.015458,-0.005636,0.017721
2003,-0.019087,-0.005636,-0.001539
2004,0.032731,-0.040313,-0.0208
2005,-0.001814,-0.040313,-0.001539
2006,-0.019087,-0.022975,0.017721
2007,-0.053632,-0.022975,-0.001539
2008,-0.03636,-0.040313,-0.001539
2009,-0.019087,0.011702,-0.001539
2010,-0.019087,0.011702,-0.001539
2011,-0.001814,-0.005636,-0.001539
2012,-0.001814,0.011702,-0.001539
2013,0.015458,-0.005636,-0.001539
2014,0.015458,0.011702,-0.001539
2015,0.015458,-0.005636,0.017721
2016,0.015458,0.011702,-0.0208
2017,0.015458,-0.005636,-0.001539
2018,0.050004,-0.040313,-0.0208
2019,-0.001814,0.011702,-0.001539
2020,0.015458,-0.022975,0.036981
2021,-0.001814,-0.022975,-0.001539
2022,-0.019087,-0.005636,-0.001539
2023,-0.019087,0.011702,-0.001539
2024,-0.001814,-0.005636,-0.001539
2025,-0.001814,-0.005636,-0.001539
2026,-0.001814,0.011702,-0.001539
2027,-0.019087,-0.022975,0.017721
2028,-0.019087,-0.022975,0.017721
2029,-0.001814,-0.005636,-0.0208
2030,-0.019087,-0.005636,-0.001539
2031,-0.019087,-0.005636,-0.0208
2032,-0.001814,-0.005636,-0.001539
2033,-0.03636,-0.022975,-0.001539
2034,-0.001814,-0.022975,-0.001539
2035,-0.019087,-0.005636,-0.001539
2036,0.015458,0.011702,-0.0208
2037,0.032731,-0.005636,-0.001539
2038,-0.001814,-0.005636,0.017721
2039,-0.019087,0.011702,-0.001539
2040,-0.001814,-0.022975,-0.001539
2041,-0.001814,-0.040313,-0.001539
2042,-0.019087,-0.022975,-0.001539
2043,-0.03636,-0.040313,-0.001539
2044,-0.001814,-0.040313,-0.001539
2045,-0.001814,-0.022975,-0.001539
2046,-0.001814,-0.005636,-0.001539
2047,-0.019087,-0.022975,-0.001539
2048,-0.001814,-0.005636,-0.0208
2049,-0.053632,0.011702,-0.0208
2050,0.015458,0.029041,0.017721
2051,0.015458,0.011702,-0.0208
2052,0.032731,0.029041,-0.001539
2053,-0.001814,0.011702,-0.0208
2054,0.015458,0.011702,-0.0208
2055,0.015458,0.029041,-0.001539
2056,-0.001814,-0.022975,-0.001539
2057,-0.03636,-0.022975,-0.001539
2058,-0.001814,-0.040313,-0.001539
2059,0.032731,-0.022975,-0.0208
2060,-0.019087,-0.022975,-0.001539
2061,-0.019087,-0.022975,-0.04006
2062,-0.001814,0.011702,-0.001539
2063,0.015458,-0.005636,-0.001539
2064,0.032731,-0.005636,-0.0208
2065,-0.001814,0.011702,-0.001539
2066,-0.001814,0.011702,-0.001539
2067,-0.03636,0.011702,-0.001539
2068,-0.03636,-0.022975,-0.0208
2069,-0.019087,0.011702,-0.0208
2070,-0.001814,-0.005636,-0.0208
2071,0.015458,-0.057652,-0.001539
2072,-0.001814,-0.022975,-0.001539
2073,0.015458,-0.022975,-0.001539
2074,0.015458,-0.040313,-0.001539
2075,-0.001814,-0.040313,-0.001539
2076,-0.03636,-0.005636,0.017721
2077,-0.03636,-0.022975,-0.0208
2078,-0.001814,0.011702,-0.001539
2079,-0.001814,0.063718,0.056242
2080,-0.001814,0.029041,-0.001539
2081,-0.001814,0.011702,-0.001539
2082,-0.001814,0.029041,-0.001539
2083,-0.001814,-0.005636,0.017721
2084,0.032731,-0.022975,-0.0208
2085,0.050004,-0.005636,-0.001539
2086,-0.001814,-0.005636,-0.0208
2087,0.067276,-0.022975,-0.001539
2088,-0.001814,-0.005636,-0.0208
2089,0.015458,-0.005636,-0.001539
2090,-0.001814,-0.005636,-0.0208
2091,-0.001814,-0.022975,-0.001539
2092,-0.019087,-0.005636,-0.0208
2093,-0.019087,-0.022975,-0.001539
2094,-0.03636,-0.022975,-0.001539
2095,-0.03636,-0.005636,-0.0208
2096,-0.053632,-0.022975,-0.04006
2097,-0.001814,-0.022975,-0.0208
2098,-0.001814,-0.022975,-0.001539
2099,0.015458,-0.005636,-0.001539
2100,0.015458,-0.022975,-0.001539
2101,0.032731,-0.005636,-0.001539
2102,0.015458,0.011702,-0.001539
2103,-0.001814,0.011702,-0.001539
2104,-0.019087,0.011702,-0.001539
2105,-0.03636,0.011702,-0.0208
2106,-0.001814,-0.005636,-0.001539
2107,-0.03636,-0.005636,-0.001539
2108,-0.019087,-0.005636,-0.001539
2109,-0.019087,-0.022975,-0.001539
2110,-0.019087,-0.040313,0.017721
2111,-0.019087,-0.022975,-0.001539
2112,-0.019087,-0.005636,-0.001539
2113,0.032731,-0.005636,-0.001539
2114,-0.019087,-0.005636,-0.001539
2115,-0.001814,-0.005636,-0.0208
2116,-0.001814,0.029041,-0.001539
2117,-0.001814,0.011702,0.017721
2118,-0.001814,0.011702,-0.001539
2119,0.032731,-0.022975,-0.001539
2120,-0.001814,-0.005636,-0.001539
2121,-0.019087,0.011702,-0.001539
2122,-0.019087,-0.022975,-0.001539
2123,0.032731,-0.022975,-0.0208
2124,0.015458,-0.040313,-0.001539
2125,-0.001814,-0.005636,-0.0208
2126,-0.001814,-0.022975,-0.001539
2127,-0.03636,-0.005636,-0.001539
2128,-0.019087,-0.022975,-0.001539
2129,-0.001814,0.011702,-0.001539
2130,0.015458,-0.005636,-0.001539
2131,0.015458,0.029041,-0.001539
2132,0.015458,0.011702,-0.001539
2133,0.015458,0.011702,-0.001539
2134,-0.001814,-0.022975,-0.001539
2135,-0.001814,-0.005636,-0.0208
2136,0.015458,-0.022975,-0.001539
2137,-0.001814,-0.040313,-0.001539
2138,-0.019087,-0.022975,-0.0208
2139,-0.019087,-0.022975,-0.0208
2140,-0.019087,-0.022975,-0.001539
2141,-0.03636,-0.005636,-0.0208
2142,-0.03636,-0.005636,-0.001539
2143,-0.019087,-0.022975,-0.001539
2144,-0.03636,-0.005636,-0.001539
2145,-0.001814,0.029041,-0.0208
2146,-0.001814,-0.005636,-0.001539
2147,-0.001814,-0.005636,-0.0208
2148,0.015458,-0.005636,-0.0208
2149,0.015458,-0.005636,-0.001539
2150,-0.001814,-0.022975,-0.001539
2151,0.015458,-0.005636,-0.001539
2152,-0.001814,-0.022975,-0.001539
2153,-0.001814,-0.022975,-0.001539
2154,0.015458,-0.005636,-0.001539
2155,-0.001814,0.011702,-0.001539
2156,-0.019087,-0.005636,-0.001539
2157,-0.03636,-0.005636,-0.001539
2158,-0.019087,-0.005636,-0.001539
2159,0.015458,-0.005636,-0.001539
2160,0.015458,-0.022975,-0.001539
2161,-0.001814,0.011702,-0.001539
2162,-0.001814,-0.005636,-0.001539
2163,-0.001814,-0.022975,-0.0208
2164,0.015458,-0.005636,-0.0208
2165,-0.019087,-0.005636,-0.0208
2166,-0.001814,-0.022975,-0.001539
2167,-0.001814,-0.005636,-0.001539
2168,-0.001814,-0.005636,0.017721
2169,0.032731,0.029041,-0.001539
2170,-0.001814,0.011702,-0.001539
2171,-0.001814,0.011702,0.017721
2172,-0.019087,-0.022975,0.017721
2173,-0.001814,-0.005636,-0.001539
2174,0.015458,-0.005636,-0.001539
2175,0.015458,-0.022975,0.017721
2176,-0.03636,-0.005636,0.017721
2177,-0.053632,-0.057652,-0.001539
2178,-0.03636,-0.022975,-0.001539
2179,0.015458,-0.022975,-0.0208
2180,-0.001814,0.011702,-0.001539
2181,-0.001814,0.011702,0.056242
2182,0.032731,0.011702,0.017721
2183,-0.019087,0.011702,-0.0208
2184,-0.001814,0.029041,-0.001539
2185,-0.019087,0.011702,-0.001539
2186,-0.019087,-0.005636,-0.001539
2187,-0.019087,0.011702,-0.001539
2188,-0.019087,-0.022975,-0.001539
2189,-0.019087,-0.022975,-0.001539
2190,-0.001814,-0.040313,-0.001539
2191,0.015458,-0.005636,-0.001539
2192,-0.053632,-0.022975,-0.0208
2193,-0.03636,-0.005636,-0.001539
2194,-0.03636,-0.005636,-0.001539
2195,-0.001814,0.029041,-0.001539
2196,-0.019087,0.029041,0.017721
2197,0.015458,0.029041,-0.001539
2198,0.032731,0.011702,-0.001539
2199,-0.019087,-0.005636,-0.001539
2200,-0.019087,-0.005636,-0.001539
2201,-0.001814,-0.005636,-0.001539
2202,-0.001814,-0.005636,-0.001539
2203,-0.001814,-0.022975,-0.001539
2204,0.015458,-0.022975,-0.001539
2205,0.015458,-0.005636,-0.001539
2206,-0.001814,-0.040313,-0.001539
2207,-0.001814,-0.022975,-0.001539
2208,-0.019087,0.011702,0.017721
2209,-0.019087,0.011702,-0.0208
2210,0.015458,-0.022975,-0.0208
2211,-0.001814,0.011702,-0.0208
2212,-0.019087,-0.022975,-0.001539
2213,-0.001814,-0.005636,-0.001539
2214,-0.019087,0.011702,-0.001539
2215,0.015458,-0.005636,-0.001539
2216,-0.001814,-0.005636,-0.001539
2217,0.015458,-0.022975,-0.001539
2218,0.015458,-0.022975,-0.001539
2219,-0.019087,-0.022975,-0.0208
2220,-0.088178,-0.022975,-0.001539
2221,-0.001814,0.011702,-0.0208
2222,-0.019087,0.011702,-0.001539
2223,-0.03636,-0.022975,-0.001539
2224,0.050004,0.011702,-0.001539
2225,-0.03636,0.011702,-0.001539
2226,0.032731,-0.005636,-0.001539
2227,-0.001814,0.011702,-0.001539
2228,-0.019087,-0.005636,-0.001539
2229,-0.001814,-0.022975,-0.001539
2230,0.015458,-0.022975,-0.001539
2231,-0.019087,-0.005636,-0.001539
2232,-0.03636,-0.022975,-0.001539
2233,-0.019087,0.011702,-0.001539
2234,-0.019087,-0.005636,-0.001539
2235,-0.019087,0.029041,-0.001539
2236,-0.03636,-0.022975,-0.001539
2237,-0.019087,-0.005636,-0.001539
2238,-0.03636,0.029041,-0.001539
2239,0.015458,-0.022975,-0.0208
2240,0.015458,-0.005636,-0.001539
2241,-0.001814,0.011702,-0.001539
2242,0.015458,-0.022975,-0.001539
2243,-0.019087,-0.022975,-0.001539
2244,-0.019087,-0.022975,-0.0208
2245,-0.019087,-0.022975,-0.001539
2246,-0.001814,-0.005636,-0.04006
2247,-0.001814,-0.005636,-0.001539
2248,-0.001814,0.011702,-0.001539
2249,-0.001814,-0.022975,-0.001539
2250,0.015458,0.011702,-0.001539
2251,0.015458,0.029041,-0.001539
2252,0.015458,0.011702,-0.001539
2253,-0.001814,0.011702,-0.0208
2254,-0.019087,0.011702,-0.0208
2255,-0.019087,-0.005636,-0.001539
2256,-0.019087,-0.022975,-0.001539
2257,-0.019087,-0.040313,-0.0208
2258,-0.03636,-0.022975,-0.001539
2259,0.050004,-0.022975,-0.001539
2260,-0.019087,-0.005636,0.017721
2261,0.015458,0.011702,-0.001539
2262,0.050004,-0.005636,-0.001539
2263,0.015458,0.011702,-0.001539
2264,0.015458,0.029041,-0.001539
2265,0.015458,0.011702,-0.0208
2266,-0.001814,0.011702,-0.001539
2267,-0.019087,0.011702,-0.001539
2268,-0.019087,-0.005636,-0.001539
2269,-0.001814,-0.022975,-0.001539
2270,-0.001814,-0.040313,-0.001539
2271,-0.03636,-0.040313,-0.001539
2272,0.015458,-0.057652,-0.001539
2273,-0.019087,-0.022975,-0.001539
2274,-0.053632,-0.005636,-0.001539
2275,-0.03636,-0.022975,-0.001539
2276,-0.03636,0.011702,-0.001539
2277,-0.053632,0.046379,-0.001539
2278,-0.001814,0.011702,-0.001539
2279,0.050004,-0.005636,-0.0208
2280,0.050004,0.046379,-0.0208
2281,0.015458,0.029041,-0.001539
2282,0.015458,-0.005636,-0.001539
2283,-0.019087,-0.022975,-0.001539
2284,-0.03636,-0.040313,-0.0208
2285,-0.019087,-0.022975,0.017721
2286,-0.019087,-0.022975,-0.001539
2287,-0.03636,-0.005636,-0.001539
2288,-0.070905,-0.057652,-0.0208
2289,-0.03636,-0.022975,-0.001539
2290,-0.03636,-0.022975,-0.001539
2291,-0.019087,-0.005636,-0.001539
2292,-0.03636,-0.022975,-0.001539
2293,-0.053632,-0.005636,-0.001539
2294,-0.070905,-0.022975,-0.001539
2295,-0.053632,-0.040313,-0.0208
2296,-0.001814,-0.040313,-0.001539
2297,-0.019087,-0.005636,-0.001539
2298,0.015458,-0.005636,-0.001539
2299,0.032731,0.029041,-0.001539
2300,0.032731,0.046379,-0.001539
2301,0.050004,0.011702,-0.0208
2302,0.050004,0.011702,-0.0208
2303,0.050004,0.046379,0.017721
2304,0.032731,0.063718,-0.001539
2305,0.015458,0.011702,-0.001539
2306,-0.019087,0.011702,-0.001539
2307,-0.019087,-0.005636,-0.001539
2308,-0.001814,-0.022975,-0.0208
2309,0.015458,-0.005636,-0.001539
2310,-0.001814,0.029041,-0.001539
2311,-0.001814,0.011702,0.017721
2312,-0.001814,-0.022975,-0.0208
2313,0.015458,-0.022975,-0.001539
2314,0.032731,-0.005636,-0.001539
2315,0.032731,-0.005636,-0.001539
2316,-0.001814,0.011702,-0.0208
2317,-0.019087,0.029041,-0.001539
2318,-0.001814,0.011702,-0.001539
2319,-0.001814,0.011702,-0.001539
2320,0.032731,0.011702,-0.0208
2321,-0.001814,-0.022975,-0.001539
2322,-0.019087,-0.040313,-0.001539
2323,-0.019087,-0.040313,-0.001539
2324,-0.019087,-0.022975,-0.001539
2325,-0.019087,-0.022975,-0.001539
2326,-0.001814,-0.022975,-0.001539
2327,-0.019087,-0.022975,-0.0208
2328,-0.001814,-0.022975,-0.001539
2329,-0.001814,-0.005636,-0.001539
2330,-0.001814,0.029041,-0.001539
2331,-0.019087,0.029041,-0.001539
2332,-0.019087,0.011702,-0.001539
2333,-0.001814,0.029041,-0.001539
2334,-0.001814,0.011702,-0.001539
2335,-0.001814,-0.005636,-0.001539
2336,-0.03636,-0.005636,-0.001539
2337,0.015458,-0.040313,-0.001539
2338,-0.001814,-0.022975,-0.0208
2339,-0.001814,-0.022975,-0.001539
2340,0.015458,-0.005636,-0.001539
2341,-0.019087,-0.040313,-0.0208
2342,-0.019087,-0.005636,-0.001539
2343,0.015458,-0.005636,-0.0208
2344,-0.019087,0.011702,-0.001539
2345,-0.001814,0.011702,-0.001539
2346,0.015458,-0.005636,-0.001539
2347,-0.001814,0.046379,-0.0208
2348,-0.001814,0.011702,-0.001539
2349,-0.001814,-0.022975,-0.001539
2350,-0.03636,-0.005636,-0.001539
2351,-0.03636,-0.022975,-0.001539
2352,0.015458,-0.040313,-0.001539
2353,-0.001814,-0.005636,-0.0208
2354,-0.001814,-0.040313,0.017721
2355,-0.001814,-0.022975,-0.001539
2356,-0.10545,-0.005636,-0.001539
2357,-0.03636,0.011702,-0.001539
2358,-0.001814,0.011702,-0.0208
2359,0.015458,-0.005636,-0.001539
2360,-0.019087,0.011702,-0.001539
2361,-0.019087,-0.005636,-0.001539
2362,-0.019087,-0.022975,-0.001539
2363,-0.001814,-0.005636,-0.001539
2364,-0.001814,-0.022975,-0.001539
2365,0.015458,-0.040313,-0.001539
2366,-0.001814,-0.022975,-0.001539
2367,-0.001814,-0.005636,-0.001539
2368,-0.001814,-0.040313,-0.001539
2369,-0.001814,-0.022975,-0.0208
2370,0.015458,-0.022975,-0.001539
2371,0.032731,-0.005636,-0.0208
2372,-0.03636,-0.022975,-0.001539
2373,-0.001814,0.011702,-0.001539
2374,-0.03636,-0.022975,-0.001539
2375,-0.03636,-0.022975,-0.001539
2376,-0.03636,-0.005636,-0.001539
2377,-0.03636,-0.040313,-0.001539
2378,-0.019087,-0.022975,-0.001539
2379,-0.019087,-0.022975,-0.0208
2380,-0.001814,-0.005636,-0.0208
2381,0.015458,0.011702,-0.001539
2382,0.015458,-0.005636,-0.001539
2383,0.015458,0.029041,-0.001539
2384,-0.001814,0.029041,-0.0208
2385,-0.001814,-0.022975,-0.001539
2386,-0.019087,0.011702,-0.001539
2387,-0.019087,0.011702,-0.001539
2388,-0.03636,-0.022975,-0.001539
2389,-0.019087,-0.022975,-0.001539
2390,-0.001814,-0.022975,-0.001539
2391,-0.001814,-0.022975,-0.001539
2392,-0.001814,-0.040313,0.017721
2393,-0.001814,-0.022975,0.017721
2394,0.015458,-0.022975,-0.0208
2395,0.015458,-0.022975,-0.001539
2396,-0.001814,-0.005636,-0.001539
2397,-0.001814,-0.022975,-0.0208
2398,0.032731,0.029041,-0.001539
2399,0.015458,0.029041,-0.001539
2400,0.015458,0.029041,-0.001539
2401,-0.001814,0.011702,-0.001539
2402,-0.019087,-0.022975,-0.001539
2403,-0.03636,-0.022975,0.017721
2404,-0.001814,-0.022975,-0.001539
2405,-0.019087,-0.040313,0.017721
2406,-0.03636,-0.022975,-0.001539
2407,-0.019087,-0.022975,-0.001539
2408,-0.053632,-0.057652,-0.001539
2409,-0.070905,-0.022975,-0.0208
2410,-0.053632,-0.005636,-0.001539
2411,-0.019087,0.011702,-0.0208
2412,0.015458,-0.005636,-0.001539
2413,0.015458,0.011702,0.017721
2414,0.015458,0.011702,-0.001539
2415,0.050004,0.011702,-0.0208
2416,0.015458,0.029041,0.017721
2417,0.015458,0.011702,0.017721
2418,-0.019087,-0.005636,-0.0208
2419,-0.001814,-0.040313,-0.001539
2420,-0.019087,-0.005636,-0.001539
2421,-0.019087,-0.040313,-0.001539
2422,-0.019087,-0.040313,-0.0208
2423,-0.053632,-0.022975,-0.001539
2424,-0.019087,0.011702,-0.001539
2425,-0.03636,-0.022975,-0.001539
2426,-0.03636,0.011702,-0.001539
2427,-0.019087,0.011702,-0.001539
2428,0.015458,-0.005636,-0.0208
2429,0.015458,0.046379,-0.001539
2430,0.032731,-0.005636,-0.001539
2431,-0.001814,0.011702,-0.04006
2432,-0.001814,-0.005636,-0.001539
2433,0.015458,-0.022975,-0.001539
2434,-0.001814,-0.022975,-0.0208
2435,-0.001814,-0.040313,0.017721
2436,-0.03636,-0.005636,-0.001539
2437,-0.03636,0.011702,-0.001539
2438,-0.03636,-0.022975,-0.001539
2439,-0.03636,-0.005636,-0.001539
2440,-0.019087,0.029041,-0.001539
2441,0.015458,-0.005636,-0.0208
2442,0.050004,0.011702,-0.001539
2443,0.050004,-0.005636,-0.0208
2444,0.050004,-0.005636,-0.001539
2445,0.032731,-0.022975,-0.001539
2446,-0.001814,0.011702,-0.001539
2447,-0.019087,-0.022975,-0.001539
2448,0.015458,-0.005636,-0.001539
2449,0.032731,0.011702,-0.001539
2450,0.015458,0.011702,-0.001539
2451,0.015458,-0.022975,-0.001539
2452,-0.001814,-0.005636,-0.001539
2453,-0.001814,0.029041,-0.001539
2454,-0.019087,-0.022975,-0.0208
2455,-0.019087,-0.022975,-0.001539
2456,-0.019087,-0.005636,-0.0208
2457,-0.03636,-0.022975,-0.001539
2458,-0.053632,-0.040313,-0.001539
2459,-0.001814,-0.022975,-0.001539
2460,-0.03636,-0.022975,-0.001539
2461,-0.019087,-0.040313,-0.001539
2462,-0.019087,-0.005636,-0.001539
2463,-0.019087,0.029041,-0.0208
2464,-0.019087,-0.022975,-0.0208
2465,0.015458,0.011702,-0.0208
2466,-0.001814,0.011702,-0.001539
2467,-0.019087,-0.005636,-0.001539
2468,0.032731,-0.022975,0.017721
2469,0.032731,-0.005636,-0.001539
2470,0.015458,-0.005636,-0.0208
2471,0.015458,-0.005636,-0.0208
2472,-0.001814,-0.040313,-0.001539
2473,0.032731,-0.022975,-0.001539
2474,0.015458,-0.022975,-0.0208
2475,-0.001814,0.011702,-0.0208
2476,-0.053632,-0.005636,-0.001539
2477,-0.019087,0.011702,-0.001539
2478,0.015458,0.011702,-0.001539
2479,0.015458,0.029041,-0.001539
2480,0.032731,-0.005636,-0.001539
2481,0.050004,0.011702,-0.0208
2482,-0.001814,0.029041,-0.001539
2483,-0.001814,-0.005636,-0.001539
2484,-0.001814,-0.005636,-0.04006
2485,0.015458,-0.022975,-0.001539
2486,-0.001814,-0.005636,-0.0208
2487,0.015458,-0.022975,0.017721
2488,0.015458,-0.022975,-0.001539
2489,-0.019087,-0.005636,-0.0208
2490,-0.053632,-0.005636,-0.001539
2491,-0.019087,-0.040313,-0.0208
2492,0.015458,-0.022975,-0.0208
2493,0.032731,-0.005636,-0.001539
2494,0.032731,-0.005636,-0.001539
2495,0.015458,0.029041,-0.001539
2496,-0.001814,0.011702,0.017721
2497,-0.001814,-0.005636,-0.001539
2498,-0.001814,-0.022975,-0.0208
2499,-0.001814,0.011702,-0.001539
2500,-0.019087,-0.022975,-0.001539
2501,-0.001814,-0.022975,-0.001539
2502,0.032731,-0.005636,-0.001539
2503,0.015458,-0.005636,-0.0208
2504,0.015458,-0.005636,-0.0208
2505,0.015458,-0.005636,-0.001539
2506,-0.001814,-0.005636,-0.001539
2507,0.015458,-0.005636,-0.001539
2508,0.015458,0.011702,-0.0208
2509,-0.019087,0.011702,-0.001539
2510,-0.053632,-0.022975,-0.001539
2511,-0.019087,-0.040313,-0.001539
2512,-0.053632,-0.022975,-0.0208
2513,0.032731,-0.022975,-0.001539
2514,0.015458,-0.005636,-0.0208
2515,0.015458,0.011702,-0.0208
2516,-0.019087,0.011702,-0.001539
2517,0.015458,-0.005636,-0.001539
2518,-0.019087,-0.005636,-0.0208
2519,-0.001814,0.011702,-0.001539
2520,-0.001814,-0.005636,-0.001539
2521,0.050004,-0.022975,-0.001539
2522,-0.019087,0.011702,-0.001539
2523,0.032731,-0.005636,-0.001539
2524,-0.001814,-0.022975,-0.0208
2525,-0.001814,-0.040313,-0.001539
2526,0.015458,-0.005636,-0.001539
2527,-0.001814,-0.022975,-0.001539
2528,-0.03636,-0.005636,-0.001539
2529,-0.001814,0.011702,-0.001539
2530,-0.001814,-0.005636,0.017721
2531,-0.001814,-0.005636,-0.001539
2532,-0.001814,0.011702,0.017721
2533,-0.03636,-0.005636,-0.001539
2534,-0.019087,0.011702,-0.0208
2535,0.015458,0.011702,-0.001539
2536,-0.001814,-0.005636,-0.001539
2537,-0.019087,-0.022975,-0.0208
2538,-0.019087,-0.040313,-0.001539
2539,-0.03636,-0.040313,-0.0208
2540,-0.001814,-0.022975,0.017721
2541,0.032731,-0.022975,-0.001539
2542,0.015458,0.011702,-0.0208
2543,-0.019087,0.011702,-0.001539
2544,-0.019087,-0.022975,-0.001539
2545,-0.070905,-0.005636,-0.0208
2546,-0.019087,0.011702,-0.001539
2547,-0.019087,-0.005636,-0.0208
2548,-0.001814,0.011702,-0.001539
2549,0.015458,0.011702,-0.001539
2550,0.015458,-0.022975,0.017721
2551,0.015458,-0.022975,-0.001539
2552,-0.019087,-0.005636,-0.001539
2553,-0.001814,-0.022975,-0.0208
2554,-0.019087,-0.057652,-0.0208
2555,-0.001814,-0.005636,-0.001539
2556,-0.001814,-0.005636,-0.001539
2557,0.015458,0.011702,-0.0208
2558,-0.001814,-0.005636,-0.0208
2559,-0.001814,0.011702,-0.001539
2560,0.015458,-0.022975,-0.001539
2561,0.015458,-0.005636,-0.0208
2562,-0.019087,0.011702,-0.001539
2563,-0.001814,-0.005636,-0.001539
2564,0.015458,-0.022975,-0.001539
2565,-0.019087,-0.005636,-0.001539
2566,0.015458,0.029041,-0.001539
2567,0.015458,-0.005636,-0.001539
2568,-0.03636,-0.005636,-0.001539
2569,-0.001814,-0.005636,-0.001539
2570,-0.019087,-0.040313,-0.001539
2571,-0.001814,-0.005636,-0.001539
2572,0.015458,-0.005636,-0.001539
2573,-0.001814,-0.005636,-0.0208
2574,-0.001814,-0.005636,-0.0208
2575,0.015458,0.011702,-0.001539
2576,-0.001814,-0.022975,-0.001539
2577,-0.019087,-0.022975,-0.001539
2578,0.015458,-0.022975,-0.001539
2579,-0.03636,-0.005636,-0.001539
2580,-0.001814,-0.005636,0.017721
2581,0.015458,-0.022975,-0.001539
2582,-0.001814,0.011702,-0.001539
2583,-0.019087,-0.022975,-0.001539
2584,0.015458,0.011702,-0.0208
2585,0.032731,0.011702,-0.001539
2586,-0.001814,0.011702,0.017721
2587,-0.001814,-0.022975,-0.001539
2588,-0.001814,0.011702,-0.001539
2589,-0.001814,-0.005636,-0.0208
2590,-0.001814,0.011702,-0.0208
2591,-0.001814,-0.022975,-0.001539
2592,-0.019087,-0.022975,-0.001539
2593,-0.019087,-0.005636,0.017721
2594,-0.019087,-0.022975,-0.0208
2595,0.015458,-0.005636,-0.0208
2596,0.015458,-0.022975,-0.001539
2597,-0.001814,-0.005636,-0.001539
2598,0.015458,-0.005636,-0.001539
2599,-0.001814,0.029041,-0.001539
2600,-0.001814,0.029041,-0.04006
2601,-0.019087,0.029041,-0.001539
2602,-0.03636,0.011702,-0.001539
2603,-0.053632,-0.022975,-0.0208
2604,-0.03636,-0.022975,-0.001539
2605,-0.03636,0.011702,-0.0208
2606,-0.019087,-0.022975,-0.0208
2607,-0.053632,-0.040313,0.017721
2608,-0.03636,-0.07499,-0.001539
2609,-0.019087,-0.040313,-0.001539
2610,-0.03636,-0.022975,-0.001539
2611,-0.03636,-0.022975,-0.001539
2612,-0.001814,0.011702,-0.0208
2613,0.015458,0.011702,-0.001539
2614,-0.001814,-0.005636,-0.0208
2615,0.015458,0.011702,0.017721
2616,-0.019087,0.011702,-0.0208
2617,-0.03636,-0.005636,0.017721
2618,-0.019087,0.029041,-0.001539
2619,-0.019087,-0.005636,-0.0208
2620,0.015458,-0.005636,-0.001539
2621,-0.001814,-0.022975,-0.001539
2622,0.015458,-0.005636,-0.0208
2623,-0.001814,-0.005636,-0.001539
2624,-0.019087,-0.022975,-0.001539
2625,-0.001814,-0.005636,-0.0208
2626,-0.03636,0.011702,-0.0208
2627,-0.019087,-0.005636,-0.001539
2628,0.015458,0.011702,-0.0208
2629,0.015458,0.029041,-0.001539
2630,0.015458,0.011702,-0.001539
2631,0.015458,-0.005636,-0.0208
2632,-0.03636,0.011702,0.017721
2633,-0.019087,-0.005636,-0.001539
2634,-0.019087,-0.022975,-0.001539
2635,-0.019087,0.011702,-0.001539
2636,-0.03636,0.011702,-0.001539
2637,-0.019087,-0.040313,0.017721
2638,-0.03636,-0.022975,0.017721
2639,0.032731,0.011702,-0.001539
2640,-0.001814,-0.022975,-0.0208
2641,-0.019087,-0.005636,-0.0208
2642,-0.019087,0.011702,-0.001539
2643,-0.03636,-0.005636,-0.001539
2644,-0.019087,-0.005636,-0.001539
2645,-0.001814,0.029041,-0.0208
2646,-0.019087,0.011702,-0.001539
2647,0.015458,-0.005636,-0.001539
2648,-0.019087,-0.022975,-0.001539
2649,-0.03636,-0.005636,-0.0208
2650,0.015458,-0.022975,-0.0208
2651,0.015458,-0.005636,-0.001539
2652,-0.001814,0.011702,-0.001539
2653,-0.001814,0.011702,-0.001539
2654,-0.001814,-0.005636,-0.001539
2655,0.015458,-0.005636,-0.001539
2656,0.015458,0.011702,-0.0208
2657,-0.019087,-0.022975,0.017721
2658,0.015458,0.011702,-0.001539
2659,-0.019087,0.011702,-0.001539
2660,-0.019087,-0.022975,-0.001539
2661,-0.001814,-0.005636,-0.0208
2662,0.015458,-0.005636,-0.001539
2663,0.015458,0.011702,-0.001539
2664,-0.001814,-0.005636,-0.001539
2665,-0.03636,0.011702,-0.001539
2666,0.015458,0.011702,0.017721
2667,-0.019087,-0.005636,-0.001539
2668,-0.03636,0.011702,-0.0208
2669,-0.019087,0.029041,-0.001539
2670,-0.001814,-0.005636,-0.0208
2671,-0.019087,-0.005636,-0.001539
2672,-0.03636,-0.005636,-0.001539
2673,-0.019087,-0.022975,0.017721
2674,0.032731,-0.022975,-0.0208
2675,0.015458,-0.005636,-0.001539
2676,-0.019087,-0.022975,-0.0208
2677,0.015458,-0.022975,-0.001539
2678,-0.03636,-0.005636,-0.001539
2679,-0.001814,0.011702,0.017721
2680,0.032731,-0.005636,-0.0208
2681,0.050004,0.011702,-0.001539
2682,0.015458,0.029041,-0.001539
2683,-0.001814,0.029041,-0.001539
2684,-0.03636,0.011702,-0.0208
2685,-0.053632,0.029041,-0.001539
2686,-0.019087,0.011702,0.017721
2687,-0.001814,-0.022975,-0.001539
2688,-0.019087,-0.057652,-0.0208
2689,-0.001814,-0.022975,-0.001539
2690,-0.019087,-0.022975,-0.0208
2691,-0.019087,-0.040313,-0.001539
2692,0.015458,-0.005636,-0.0208
2693,-0.03636,-0.040313,-0.001539
2694,-0.03636,-0.022975,-0.0208
2695,-0.019087,0.011702,-0.001539
2696,-0.019087,0.029041,-0.001539
2697,-0.001814,0.011702,-0.0208
2698,0.015458,0.046379,-0.001539
2699,0.015458,0.046379,-0.001539
2700,-0.019087,-0.005636,-0.001539
2701,0.015458,-0.022975,-0.001539
2702,0.015458,0.011702,-0.001539
2703,-0.001814,-0.005636,-0.001539
2704,-0.019087,-0.022975,-0.001539
2705,0.015458,-0.005636,-0.001539
2706,-0.019087,-0.040313,-0.0208
2707,-0.001814,-0.022975,-0.001539
2708,-0.03636,-0.022975,-0.001539
2709,-0.001814,-0.005636,-0.001539
2710,0.032731,0.011702,-0.001539
2711,-0.001814,-0.005636,-0.001539
2712,0.015458,0.011702,-0.001539
2713,0.015458,0.011702,-0.0208
2714,-0.019087,-0.005636,-0.001539
2715,-0.019087,0.011702,-0.001539
2716,-0.001814,-0.005636,-0.001539
2717,-0.03636,-0.022975,-0.001539
2718,-0.001814,-0.022975,-0.001539
2719,-0.03636,-0.022975,-0.0208
2720,-0.019087,-0.022975,-0.001539
2721,-0.070905,-0.005636,-0.001539
2722,-0.019087,-0.005636,0.017721
2723,-0.001814,-0.005636,-0.001539
2724,-0.001814,-0.005636,-0.001539
2725,0.032731,0.011702,-0.001539
2726,0.015458,0.029041,-0.0208
2727,0.015458,0.011702,0.017721
2728,0.032731,0.029041,-0.001539
2729,0.015458,0.011702,-0.001539
2730,-0.019087,-0.005636,-0.001539
2731,-0.019087,-0.022975,-0.001539
2732,-0.03636,-0.022975,-0.001539
2733,-0.001814,-0.005636,0.017721
2734,0.032731,-0.022975,-0.001539
2735,-0.001814,-0.005636,-0.001539
2736,-0.019087,0.011702,-0.001539
2737,-0.019087,-0.040313,-0.001539
2738,-0.019087,-0.005636,-0.001539
2739,-0.019087,-0.005636,-0.001539
2740,-0.001814,0.011702,-0.0208
2741,-0.019087,-0.022975,-0.001539
2742,-0.001814,0.011702,-0.0208
2743,-0.001814,-0.005636,-0.001539
2744,0.015458,-0.022975,-0.001539
2745,-0.019087,-0.022975,-0.0208
2746,-0.001814,0.011702,-0.001539
2747,0.015458,-0.022975,-0.001539
2748,0.015458,-0.022975,0.017721
2749,0.015458,0.011702,-0.001539
2750,0.032731,-0.005636,-0.001539
2751,0.015458,0.011702,-0.001539
2752,-0.001814,-0.005636,0.017721
2753,-0.019087,0.029041,-0.001539
2754,-0.019087,-0.022975,-0.001539
2755,-0.019087,-0.005636,-0.0208
2756,-0.019087,-0.005636,-0.0208
2757,-0.001814,-0.022975,-0.001539
2758,-0.03636,-0.005636,-0.001539
2759,-0.03636,-0.005636,-0.001539
2760,-0.019087,-0.005636,-0.0208
2761,0.015458,-0.040313,-0.001539
2762,0.032731,-0.005636,-0.001539
2763,0.015458,0.011702,-0.001539
2764,-0.019087,-0.022975,-0.0208
2765,-0.03636,0.011702,-0.001539
2766,-0.001814,0.011702,-0.0208
2767,-0.019087,0.011702,-0.001539
2768,-0.019087,0.011702,-0.001539
2769,-0.001814,0.029041,-0.001539
2770,-0.001814,-0.022975,-0.001539
2771,-0.019087,-0.022975,-0.001539
2772,-0.053632,-0.022975,0.036981
2773,0.015458,-0.005636,-0.0208
2774,0.032731,-0.022975,-0.001539
2775,-0.019087,-0.040313,-0.001539
2776,-0.001814,-0.005636,-0.001539
2777,-0.019087,-0.040313,-0.001539
2778,-0.03636,0.011702,-0.001539
2779,-0.019087,0.011702,-0.001539
2780,-0.001814,0.011702,-0.001539
2781,-0.019087,-0.022975,0.017721
2782,0.015458,0.081057,-0.0208
2783,0.015458,0.011702,-0.001539
2784,-0.001814,-0.005636,0.017721
2785,-0.019087,-0.022975,-0.001539
2786,0.015458,0.011702,0.017721
2787,0.015458,-0.022975,-0.001539
2788,-0.019087,-0.022975,-0.001539
2789,-0.001814,-0.022975,-0.001539
2790,-0.001814,-0.022975,-0.001539
2791,-0.019087,-0.040313,-0.001539
2792,-0.019087,-0.005636,-0.001539
2793,-0.03636,0.011702,-0.001539
2794,-0.019087,-0.005636,-0.001539
2795,-0.019087,-0.005636,0.017721
2796,-0.001814,0.011702,-0.001539
2797,0.015458,-0.005636,-0.0208
2798,0.032731,-0.005636,-0.001539
2799,-0.001814,0.011702,-0.001539
2800,-0.019087,-0.005636,-0.001539
2801,-0.019087,-0.005636,-0.0208
2802,-0.001814,-0.005636,-0.001539
2803,0.015458,-0.005636,0.017721
2804,0.015458,-0.022975,-0.001539
2805,-0.001814,-0.022975,-0.0208
2806,-0.001814,0.011702,-0.001539
2807,-0.001814,0.011702,-0.001539
2808,-0.019087,-0.005636,-0.001539
2809,-0.019087,-0.005636,-0.001539
2810,-0.001814,-0.005636,-0.001539
2811,-0.001814,-0.005636,-0.001539
2812,0.015458,0.011702,-0.001539
2813,0.050004,0.011702,-0.001539
2814,0.032731,0.011702,-0.001539
2815,0.032731,-0.005636,-0.001539
2816,0.015458,0.046379,-0.001539
2817,-0.001814,-0.005636,-0.0208
2818,-0.03636,-0.040313,-0.001539
2819,-0.03636,-0.040313,-0.001539
2820,-0.019087,-0.005636,-0.001539
2821,-0.001814,-0.005636,-0.001539
2822,-0.001814,-0.005636,-0.04006
2823,-0.019087,0.011702,-0.0208
2824,-0.019087,-0.005636,-0.001539
2825,-0.019087,0.011702,0.017721
2826,-0.019087,-0.005636,-0.001539
2827,-0.019087,-0.005636,-0.0208
2828,-0.019087,-0.022975,-0.0208
2829,-0.001814,-0.005636,-0.001539
2830,-0.03636,-0.005636,0.017721
2831,0.015458,-0.022975,0.017721
2832,-0.001814,-0.005636,-0.001539
2833,-0.019087,-0.005636,0.017721
2834,0.032731,-0.005636,0.017721
2835,-0.001814,-0.005636,-0.001539
2836,-0.001814,0.011702,-0.04006
2837,0.015458,-0.005636,-0.0208
2838,-0.001814,0.011702,-0.001539
2839,0.015458,-0.005636,-0.001539
2840,-0.001814,-0.005636,0.017721
2841,-0.001814,-0.022975,-0.001539
2842,-0.019087,-0.040313,-0.001539
2843,-0.019087,-0.022975,0.017721
2844,-0.001814,-0.057652,-0.001539
2845,-0.001814,-0.005636,0.017721
2846,-0.001814,0.011702,-0.001539
2847,-0.001814,-0.022975,-0.0208
2848,-0.019087,-0.005636,-0.001539
2849,-0.019087,0.011702,-0.001539
2850,-0.001814,0.029041,-0.001539
2851,-0.001814,-0.005636,0.017721
2852,0.015458,0.029041,-0.001539
2853,0.015458,0.011702,-0.001539
2854,-0.001814,-0.022975,-0.0208
2855,-0.001814,-0.040313,-0.001539
2856,-0.001814,-0.005636,-0.001539
2857,-0.019087,-0.022975,-0.001539
2858,-0.019087,-0.022975,-0.001539
2859,-0.001814,-0.022975,-0.001539
2860,-0.019087,-0.005636,-0.001539
2861,-0.053632,-0.022975,-0.001539
2862,-0.019087,0.011702,-0.001539
2863,-0.019087,0.011702,-0.001539
2864,-0.019087,0.011702,-0.001539
2865,0.015458,0.029041,-0.001539
2866,0.015458,0.011702,-0.001539
2867,0.032731,-0.005636,-0.001539
2868,0.015458,-0.005636,-0.0208
2869,0.015458,-0.005636,-0.001539
2870,-0.001814,-0.005636,-0.0208
2871,0.015458,-0.040313,-0.001539
2872,0.032731,-0.022975,-0.001539
2873,-0.001814,-0.022975,-0.001539
2874,-0.001814,-0.005636,-0.001539
2875,-0.001814,-0.005636,-0.0208
2876,-0.001814,-0.005636,-0.001539
2877,-0.019087,0.011702,-0.001539
2878,-0.03636,-0.005636,-0.0208
2879,-0.03636,0.011702,-0.001539
2880,-0.001814,-0.005636,-0.001539
2881,-0.019087,-0.005636,-0.0208
2882,-0.001814,0.029041,-0.001539
2883,0.015458,0.046379,-0.0208
2884,0.015458,-0.005636,0.056242
2885,-0.001814,-0.022975,-0.0208
2886,0.015458,0.011702,0.017721
2887,0.032731,-0.040313,-0.0208
2888,0.015458,-0.040313,-0.001539
2889,-0.001814,-0.005636,-0.001539
2890,-0.019087,0.011702,-0.0208
2891,-0.001814,-0.005636,0.017721
2892,-0.001814,-0.005636,-0.001539
2893,-0.03636,0.011702,-0.0208
2894,-0.001814,-0.022975,-0.001539
2895,-0.019087,-0.022975,-0.001539
2896,-0.001814,0.011702,-0.001539
2897,-0.001814,-0.005636,0.017721
2898,0.015458,-0.005636,-0.0208
2899,-0.019087,-0.022975,-0.0208
2900,-0.001814,-0.005636,-0.001539
2901,-0.001814,-0.005636,-0.0208
2902,-0.001814,-0.005636,-0.001539
2903,-0.019087,-0.005636,-0.001539
2904,0.032731,0.011702,-0.001539
2905,0.032731,0.011702,0.017721
2906,-0.001814,0.011702,0.017721
2907,-0.001814,-0.022975,-0.001539
2908,-0.019087,-0.022975,-0.001539
2909,-0.03636,-0.022975,-0.001539
2910,-0.03636,-0.005636,-0.0208
2911,-0.001814,-0.040313,-0.001539
2912,-0.001814,0.011702,-0.001539
2913,-0.001814,-0.005636,-0.001539
2914,-0.001814,0.011702,-0.001539
2915,0.032731,-0.005636,-0.001539
2916,-0.001814,0.011702,-0.001539
2917,-0.019087,0.011702,-0.001539
2918,-0.019087,0.011702,-0.001539
2919,0.015458,-0.005636,-0.0208
2920,0.015458,-0.005636,-0.001539
2921,0.032731,-0.040313,-0.001539
2922,-0.001814,-0.005636,-0.0208
2923,-0.019087,-0.022975,-0.001539
2924,-0.001814,-0.022975,-0.001539
2925,-0.03636,-0.040313,-0.001539
2926,-0.03636,-0.040313,-0.001539
2927,-0.001814,-0.022975,-0.001539
2928,-0.03636,-0.005636,-0.001539
2929,0.050004,-0.005636,-0.0208
2930,0.015458,0.029041,-0.0208
2931,0.015458,0.011702,-0.001539
2932,0.032731,0.011702,-0.001539
2933,-0.001814,-0.005636,-0.001539
2934,-0.019087,-0.022975,-0.001539
2935,0.015458,-0.022975,-0.001539
2936,-0.001814,-0.005636,-0.0208
2937,0.015458,-0.022975,-0.0208
2938,-0.001814,-0.040313,-0.001539
2939,-0.019087,-0.022975,-0.001539
2940,-0.019087,-0.022975,-0.001539
2941,-0.019087,-0.005636,-0.0208
2942,-0.019087,-0.005636,-0.001539
2943,-0.03636,0.011702,-0.001539
2944,-0.001814,-0.022975,-0.001539
2945,0.032731,-0.005636,-0.001539
2946,0.032731,0.011702,-0.001539
2947,0.015458,0.011702,-0.0208
2948,-0.001814,0.029041,-0.001539
2949,0.015458,0.011702,-0.001539
2950,0.015458,-0.005636,0.017721
2951,-0.001814,-0.022975,-0.001539
2952,-0.03636,-0.005636,-0.001539
2953,-0.019087,-0.022975,-0.001539
2954,0.015458,-0.040313,-0.001539
2955,-0.001814,-0.005636,-0.001539
2956,-0.001814,0.011702,-0.0208
2957,-0.019087,-0.022975,-0.001539
2958,-0.019087,0.011702,0.017721
2959,-0.03636,0.011702,-0.0208
2960,-0.001814,-0.022975,-0.001539
2961,-0.001814,-0.022975,-0.0208
2962,0.015458,0.011702,0.017721
2963,0.015458,-0.005636,-0.001539
2964,0.032731,-0.005636,-0.0208
2965,0.015458,-0.005636,-0.0208
2966,-0.001814,-0.022975,-0.001539
2967,-0.019087,-0.040313,-0.001539
2968,0.015458,-0.005636,-0.001539
2969,0.032731,0.011702,-0.001539
2970,0.015458,-0.022975,-0.0208
2971,0.032731,-0.005636,-0.001539
2972,-0.019087,0.011702,-0.001539
2973,-0.001814,0.011702,-0.0208
2974,0.015458,-0.005636,-0.001539
2975,0.015458,0.011702,-0.001539
2976,0.032731,-0.040313,-0.001539
2977,-0.001814,-0.022975,-0.001539
2978,0.015458,-0.040313,0.017721
2979,-0.001814,-0.022975,-0.04006
2980,-0.03636,-0.022975,-0.0208
2981,-0.019087,-0.005636,-0.0208
2982,0.015458,-0.022975,-0.001539
2983,-0.03636,0.011702,-0.001539
2984,-0.001814,-0.022975,-0.001539
2985,0.015458,-0.005636,0.017721
2986,-0.019087,0.011702,-0.001539
2987,-0.019087,-0.005636,-0.0208
2988,-0.001814,0.011702,-0.001539
2989,-0.019087,-0.005636,-0.001539
2990,-0.001814,-0.022975,-0.001539
2991,0.032731,-0.022975,-0.001539
2992,-0.03636,-0.005636,-0.0208
2993,-0.001814,-0.005636,-0.001539
2994,-0.019087,-0.022975,-0.0208
2995,-0.001814,-0.005636,-0.001539
2996,-0.001814,-0.005636,-0.001539
2997,-0.001814,-0.022975,-0.001539
2998,0.015458,0.011702,-0.001539
2999,-0.001814,0.029041,-0.001539
3000,-0.019087,-0.005636,0.017721
3001,-0.001814,-0.005636,-0.001539
3002,0.015458,0.081057,-0.0208
3003,0.015458,-0.022975,-0.001539
3004,0.015458,-0.022975,0.017721
3005,-0.001814,-0.040313,-0.001539
3006,-0.019087,-0.040313,-0.001539
3007,-0.03636,-0.022975,-0.0208
3008,-0.001814,-0.022975,-0.001539
3009,-0.03636,-0.005636,-0.04006
3010,-0.03636,-0.022975,0.017721
3011,-0.03636,-0.005636,-0.001539
3012,-0.019087,0.011702,-0.001539
3013,-0.019087,0.011702,-0.0208
3014,-0.019087,0.011702,-0.001539
3015,-0.019087,0.029041,-0.001539
3016,-0.001814,-0.005636,-0.0208
3017,-0.019087,-0.005636,-0.001539
3018,-0.001814,-0.022975,-0.0208
3019,-0.001814,-0.022975,-0.001539
3020,-0.001814,-0.040313,-0.001539
3021,-0.001814,-0.022975,-0.001539
3022,-0.019087,-0.005636,-0.0208
3023,-0.053632,-0.040313,-0.001539
3024,-0.001814,-0.005636,-0.001539
3025,-0.03636,-0.005636,-0.0208
3026,-0.001814,0.011702,-0.001539
3027,0.015458,0.011702,-0.0208
3028,-0.001814,0.029041,-0.001539
3029,0.015458,0.011702,-0.001539
3030,0.032731,0.011702,-0.0208
3031,-0.001814,-0.005636,-0.001539
3032,0.050004,-0.005636,-0.0208
3033,0.015458,-0.022975,-0.0208
3034,0.015458,-0.022975,-0.04006
3035,0.015458,-0.005636,-0.001539
3036,-0.001814,-0.040313,-0.0208
3037,-0.03636,-0.022975,-0.0208
3038,-0.019087,0.011702,-0.001539
3039,-0.03636,0.011702,-0.001539
3040,-0.019087,0.011702,-0.001539
3041,-0.019087,0.011702,-0.001539
3042,-0.001814,-0.005636,-0.001539
3043,-0.019087,0.011702,-0.0208
3044,-0.001814,-0.040313,-0.001539
3045,-0.019087,-0.005636,-0.001539
3046,-0.019087,-0.022975,-0.001539
3047,-0.001814,-0.022975,-0.001539
3048,-0.001814,0.011702,-0.001539
3049,-0.001814,0.011702,-0.001539
3050,0.015458,-0.005636,-0.001539
3051,0.032731,-0.005636,0.017721
3052,0.015458,0.011702,-0.001539
3053,-0.001814,-0.005636,-0.001539
3054,-0.001814,-0.005636,-0.001539
3055,-0.001814,0.011702,-0.001539
3056,-0.03636,-0.040313,-0.001539
3057,-0.03636,-0.040313,-0.001539
3058,-0.019087,-0.005636,-0.001539
3059,-0.001814,-0.005636,0.017721
3060,-0.001814,-0.022975,-0.001539
3061,-0.001814,-0.022975,-0.0208
3062,-0.001814,0.011702,-0.001539
3063,0.015458,-0.022975,-0.001539
3064,-0.019087,-0.005636,-0.0208
3065,0.050004,0.046379,-0.001539
3066,-0.001814,0.029041,-0.0208
3067,-0.019087,-0.005636,-0.001539
3068,-0.019087,0.011702,-0.001539
3069,-0.019087,-0.040313,-0.001539
3070,0.015458,-0.022975,-0.001539
3071,-0.019087,-0.040313,-0.001539
3072,-0.03636,-0.005636,-0.001539
3073,-0.001814,-0.022975,-0.0208
3074,-0.019087,-0.040313,-0.001539
3075,-0.03636,-0.040313,0.017721
3076,-0.019087,-0.040313,-0.0208
3077,-0.019087,-0.005636,-0.001539
3078,-0.03636,-0.005636,-0.0208
3079,-0.001814,0.029041,-0.0208
3080,0.015458,0.011702,0.017721
3081,0.032731,0.029041,-0.0208
3082,-0.001814,0.029041,-0.001539
3083,0.015458,0.011702,-0.001539
3084,-0.001814,-0.022975,-0.001539
3085,-0.019087,-0.005636,-0.001539
3086,0.015458,-0.022975,-0.001539
3087,0.015458,-0.040313,-0.0208
3088,-0.001814,-0.022975,-0.001539
3089,-0.001814,-0.022975,-0.001539
3090,-0.03636,-0.022975,-0.001539
3091,-0.019087,-0.005636,-0.0208
3092,-0.03636,-0.005636,-0.001539
3093,-0.019087,-0.022975,-0.001539
3094,-0.001814,-0.005636,-0.001539
3095,0.015458,0.029041,-0.0208
3096,0.015458,0.011702,-0.001539
3097,0.032731,-0.005636,-0.0208
3098,0.032731,-0.005636,-0.001539
3099,0.050004,-0.005636,-0.0208
3100,0.032731,-0.022975,-0.001539
3101,0.032731,-0.022975,-0.0208
3102,-0.001814,-0.022975,-0.0208
3103,-0.019087,-0.040313,-0.001539
3104,-0.019087,-0.005636,-0.001539
3105,-0.001814,0.011702,-0.001539
3106,-0.019087,-0.005636,-0.04006
3107,-0.019087,-0.022975,-0.001539
3108,-0.001814,-0.005636,-0.001539
3109,-0.019087,0.011702,0.017721
3110,-0.001814,-0.005636,-0.001539
3111,-0.019087,0.011702,-0.001539
3112,-0.001814,0.011702,-0.0208
3113,-0.019087,-0.022975,-0.001539
3114,0.015458,-0.022975,-0.0208
3115,0.015458,-0.005636,-0.001539
3116,-0.001814,-0.005636,0.017721
3117,-0.001814,-0.005636,-0.001539
3118,-0.001814,0.011702,-0.001539
3119,-0.019087,0.011702,-0.04006
3120,-0.001814,-0.040313,-0.0208
3121,-0.03636,0.011702,-0.001539
3122,0.032731,0.011702,-0.001539
3123,-0.019087,-0.022975,-0.001539
3124,-0.019087,0.011702,-0.001539
3125,0.015458,-0.022975,-0.001539
3126,-0.001814,-0.022975,-0.0208
3127,0.032731,-0.040313,-0.001539
3128,0.015458,-0.022975,-0.0208
3129,-0.03636,-0.005636,-0.0208
3130,-0.001814,-0.022975,-0.0208
3131,-0.019087,0.011702,-0.001539
3132,0.015458,0.029041,-0.001539
3133,-0.001814,-0.005636,0.036981
3134,-0.001814,-0.005636,-0.001539
3135,-0.019087,-0.005636,-0.0208
3136,-0.053632,0.011702,-0.0208
3137,-0.001814,-0.005636,-0.001539
3138,-0.019087,0.011702,0.017721
3139,-0.019087,-0.040313,-0.0208
3140,-0.019087,-0.022975,-0.001539
3141,0.015458,-0.040313,-0.0208
3142,-0.019087,-0.040313,-0.001539
3143,-0.001814,-0.022975,-0.001539
3144,0.050004,-0.005636,0.017721
3145,0.015458,0.011702,-0.0208
3146,0.032731,-0.022975,-0.001539
3147,-0.019087,0.011702,-0.0208
3148,-0.001814,0.011702,-0.001539
3149,-0.001814,0.011702,-0.001539
3150,-0.019087,0.011702,-0.001539
3151,0.032731,0.011702,-0.001539
3152,-0.019087,-0.005636,-0.0208
3153,-0.001814,-0.005636,-0.001539
3154,-0.019087,-0.022975,-0.001539
3155,-0.019087,-0.005636,0.017721
3156,-0.03636,-0.040313,-0.001539
3157,-0.019087,-0.040313,-0.001539
3158,-0.03636,-0.005636,-0.001539
3159,0.032731,-0.022975,-0.001539
3160,-0.001814,-0.005636,-0.0208
3161,-0.001814,0.011702,-0.001539
3162,0.015458,0.029041,-0.001539
3163,0.032731,0.011702,-0.001539
3164,0.015458,0.011702,-0.001539
3165,-0.001814,0.029041,-0.0208
3166,0.015458,-0.005636,-0.001539
3167,-0.001814,-0.005636,-0.0208
3168,0.015458,-0.005636,-0.001539
3169,0.032731,-0.022975,-0.001539
3170,-0.001814,-0.022975,-0.001539
3171,-0.001814,-0.005636,-0.001539
3172,0.015458,0.011702,-0.001539
3173,-0.019087,-0.005636,-0.001539
3174,-0.019087,0.011702,-0.001539
3175,-0.019087,0.011702,-0.001539
3176,-0.019087,-0.005636,-0.001539
3177,-0.019087,0.011702,-0.001539
3178,-0.019087,0.011702,-0.001539
3179,-0.053632,0.011702,-0.001539
3180,-0.001814,-0.005636,-0.001539
3181,-0.001814,0.011702,-0.001539
3182,0.015458,-0.005636,-0.001539
3183,0.032731,-0.022975,-0.001539
3184,-0.001814,-0.005636,-0.001539
3185,0.015458,0.011702,-0.001539
3186,-0.001814,-0.022975,-0.001539
3187,-0.03636,-0.022975,-0.001539
3188,-0.019087,0.011702,-0.001539
3189,-0.03636,0.011702,-0.001539
3190,-0.001814,0.011702,-0.001539
3191,0.015458,-0.005636,-0.001539
3192,-0.001814,0.011702,-0.001539
3193,-0.001814,-0.005636,-0.001539
3194,-0.019087,-0.022975,-0.0208
3195,-0.001814,-0.005636,-0.001539
3196,-0.001814,-0.005636,0.017721
3197,0.015458,-0.005636,-0.001539
3198,-0.001814,-0.005636,-0.001539
3199,0.050004,-0.022975,0.017721
3200,0.015458,-0.005636,-0.001539
3201,-0.001814,0.011702,-0.001539
3202,0.015458,0.029041,-0.001539
3203,-0.001814,-0.005636,-0.001539
3204,-0.019087,0.011702,-0.001539
3205,-0.019087,0.029041,-0.001539
3206,-0.019087,-0.005636,-0.0208
3207,-0.03636,-0.005636,-0.001539
3208,-0.001814,0.046379,-0.001539
3209,0.015458,0.011702,-0.001539
3210,-0.001814,0.011702,-0.001539
3211,0.015458,0.011702,-0.001539
3212,-0.001814,-0.005636,-0.001539
3213,-0.001814,-0.022975,-0.0208
3214,-0.001814,-0.057652,-0.001539
3215,-0.001814,-0.040313,-0.001539
3216,-0.001814,-0.005636,-0.001539
3217,-0.019087,-0.005636,-0.0208
3218,-0.03636,-0.005636,-0.001539
3219,-0.019087,-0.005636,-0.001539
3220,-0.03636,-0.022975,-0.001539
3221,-0.019087,-0.005636,-0.001539
3222,0.015458,-0.005636,-0.001539
3223,-0.019087,-0.040313,-0.0208
3224,0.032731,-0.07499,-0.001539
3225,0.015458,-0.057652,-0.001539
3226,-0.001814,-0.040313,-0.001539
3227,0.015458,-0.005636,-0.001539
3228,0.015458,0.046379,-0.001539
3229,-0.001814,0.081057,-0.0208
3230,0.015458,0.063718,0.017721
3231,0.032731,0.046379,-0.001539
3232,0.015458,0.046379,-0.001539
3233,-0.019087,0.011702,-0.001539
3234,-0.03636,0.011702,-0.0208
3235,-0.019087,-0.005636,-0.001539
3236,-0.019087,-0.022975,-0.001539
3237,-0.03636,-0.040313,-0.0208
3238,-0.001814,-0.022975,-0.0208
3239,-0.001814,-0.022975,0.036981
3240,-0.001814,-0.040313,-0.001539
3241,-0.001814,-0.022975,-0.0208
3242,0.015458,-0.005636,-0.0208
3243,-0.019087,-0.005636,-0.001539
3244,-0.001814,0.011702,-0.001539
3245,0.015458,0.029041,-0.0208
3246,-0.019087,0.029041,-0.001539
3247,-0.019087,0.063718,-0.0208
3248,-0.001814,0.046379,-0.001539
3249,-0.001814,0.029041,-0.001539
3250,-0.001814,-0.005636,-0.001539
3251,-0.001814,-0.022975,-0.001539
3252,0.015458,-0.022975,-0.0208
3253,-0.001814,-0.022975,-0.001539
3254,-0.001814,-0.022975,-0.001539
3255,-0.019087,-0.005636,-0.001539
3256,0.015458,-0.057652,0.017721
3257,-0.001814,-0.005636,-0.001539
3258,-0.001814,0.011702,-0.001539
3259,-0.019087,0.063718,-0.001539
3260,-0.019087,0.029041,-0.001539
3261,0.015458,0.046379,-0.001539
3262,0.015458,0.029041,-0.0208
3263,0.015458,-0.005636,-0.0208
3264,0.015458,-0.040313,-0.001539
3265,-0.019087,-0.07499,-0.0208
3266,-0.019087,-0.057652,-0.001539
3267,-0.001814,-0.057652,-0.001539
3268,-0.001814,-0.022975,-0.001539
3269,-0.001814,-0.040313,-0.001539
3270,-0.001814,-0.022975,-0.001539
3271,0.015458,-0.005636,-0.001539
3272,-0.001814,-0.022975,-0.001539
3273,-0.019087,-0.005636,-0.001539
3274,-0.001814,0.011702,-0.001539
3275,-0.019087,-0.022975,-0.001539
3276,-0.053632,0.011702,-0.001539
3277,-0.03636,-0.040313,-0.001539
3278,-0.001814,-0.005636,-0.001539
3279,0.015458,-0.022975,-0.0208
3280,0.015458,-0.022975,-0.0208
3281,0.015458,0.011702,-0.001539
3282,0.050004,0.029041,-0.001539
3283,-0.019087,0.011702,0.017721
3284,-0.019087,-0.005636,0.017721
3285,0.015458,0.011702,-0.001539
3286,0.015458,0.011702,-0.0208
3287,-0.019087,-0.022975,0.017721
3288,-0.001814,-0.005636,-0.001539
3289,-0.019087,-0.022975,-0.001539
3290,-0.001814,-0.040313,-0.0208
3291,-0.03636,-0.005636,-0.001539
3292,-0.03636,-0.005636,-0.001539
3293,-0.001814,-0.022975,-0.001539
3294,0.015458,-0.022975,-0.001539
3295,0.015458,0.011702,-0.001539
3296,0.032731,-0.022975,-0.04006
3297,0.015458,-0.005636,-0.001539
3298,0.032731,-0.005636,-0.001539
3299,0.015458,0.046379,-0.001539
3300,-0.001814,-0.005636,-0.001539
3301,-0.019087,0.011702,-0.001539
3302,-0.001814,0.011702,-0.0208
3303,0.015458,-0.005636,-0.001539
3304,-0.019087,-0.040313,-0.001539
3305,-0.019087,-0.005636,-0.0208
3306,-0.03636,-0.005636,-0.0208
3307,-0.019087,-0.022975,-0.001539
3308,-0.019087,-0.022975,-0.001539
3309,-0.001814,-0.005636,-0.0208
3310,-0.03636,-0.022975,-0.001539
3311,0.015458,0.011702,-0.0208
3312,-0.019087,-0.005636,-0.001539
3313,-0.019087,-0.040313,-0.001539
3314,0.015458,-0.005636,-0.001539
3315,0.015458,0.029041,-0.001539
3316,0.015458,-0.005636,-0.0208
3317,-0.03636,-0.005636,-0.001539
3318,-0.03636,0.029041,-0.0208
3319,-0.019087,-0.022975,-0.001539
3320,-0.019087,-0.040313,-0.001539
3321,-0.019087,-0.040313,-0.0208
3322,-0.001814,-0.022975,-0.001539
3323,0.032731,-0.040313,0.017721
3324,-0.001814,-0.022975,0.017721
3325,-0.019087,0.011702,-0.0208
3326,-0.019087,0.029041,-0.001539
3327,0.015458,-0.022975,-0.0208
3328,0.015458,0.011702,-0.001539
3329,0.015458,0.011702,-0.001539
3330,0.015458,-0.022975,-0.001539
3331,0.015458,0.011702,-0.001539
3332,-0.001814,0.011702,-0.001539
3333,-0.001814,0.011702,-0.001539
3334,-0.019087,-0.022975,-0.001539
3335,-0.019087,-0.005636,0.017721
3336,-0.001814,-0.022975,0.017721
3337,-0.019087,-0.040313,-0.001539
3338,-0.019087,-0.022975,-0.001539
3339,0.015458,0.011702,-0.001539
3340,-0.001814,-0.022975,-0.001539
3341,-0.03636,-0.005636,-0.04006
3342,-0.03636,0.011702,-0.001539
3343,-0.019087,-0.005636,-0.001539
3344,-0.070905,0.011702,-0.0208
3345,-0.03636,0.011702,-0.001539
3346,-0.019087,0.011702,-0.001539
3347,0.050004,-0.005636,-0.001539
3348,0.015458,-0.022975,-0.001539
3349,0.015458,-0.005636,-0.001539
3350,-0.001814,-0.005636,-0.001539
3351,0.015458,-0.005636,-0.04006
3352,-0.001814,0.011702,-0.001539
3353,-0.001814,-0.022975,-0.001539
3354,0.015458,-0.005636,-0.0208
3355,0.015458,0.011702,-0.001539
3356,-0.001814,0.011702,-0.0208
3357,0.032731,-0.005636,-0.0208
3358,-0.001814,0.011702,-0.001539
3359,-0.019087,-0.005636,-0.0208
3360,-0.001814,-0.005636,-0.001539
3361,-0.001814,-0.005636,-0.001539
3362,-0.001814,-0.005636,-0.0208
3363,-0.001814,-0.022975,-0.001539
3364,-0.001814,-0.022975,-0.0208
3365,0.015458,0.011702,-0.001539
3366,0.015458,-0.022975,-0.001539
3367,-0.001814,-0.022975,-0.001539
3368,0.032731,-0.005636,-0.001539
3369,-0.019087,0.011702,-0.001539
3370,-0.001814,-0.005636,-0.0208
3371,-0.019087,-0.022975,-0.0208
3372,-0.019087,-0.005636,-0.001539
3373,0.015458,-0.005636,0.017721
3374,0.015458,-0.040313,-0.0208
3375,-0.001814,-0.022975,-0.0208
3376,0.015458,-0.057652,-0.001539
3377,-0.001814,-0.022975,-0.001539
3378,-0.001814,-0.022975,-0.001539
3379,0.032731,-0.040313,-0.001539
3380,0.015458,-0.040313,-0.001539
3381,0.015458,0.011702,-0.0208
3382,-0.001814,0.046379,0.017721
3383,-0.001814,0.046379,-0.001539
3384,0.015458,0.029041,-0.001539
3385,0.015458,0.046379,-0.001539
3386,-0.001814,-0.040313,-0.001539
3387,-0.019087,-0.057652,-0.001539
3388,-0.03636,-0.005636,-0.001539
3389,-0.03636,-0.005636,-0.001539
3390,-0.019087,-0.022975,-0.001539
3391,-0.03636,-0.022975,-0.001539
3392,-0.019087,-0.005636,-0.001539
3393,-0.019087,-0.022975,-0.001539
3394,-0.019087,-0.022975,-0.0208
3395,-0.03636,-0.005636,-0.001539
3396,0.032731,0.029041,-0.001539
3397,-0.001814,0.011702,-0.001539
3398,-0.019087,0.011702,-0.001539
3399,0.015458,0.029041,0.017721
3400,-0.019087,-0.005636,-0.001539
3401,-0.03636,0.011702,-0.001539
3402,-0.001814,0.011702,0.017721
3403,-0.03636,-0.022975,0.017721
3404,-0.001814,-0.040313,-0.001539
3405,0.032731,-0.022975,-0.001539
3406,-0.019087,-0.022975,-0.001539
3407,-0.019087,-0.040313,-0.001539
3408,-0.001814,-0.005636,-0.001539
3409,-0.001814,0.011702,-0.0208
3410,-0.001814,-0.005636,-0.001539
3411,0.015458,-0.005636,-0.001539
3412,0.015458,0.011702,-0.001539
3413,0.015458,0.011702,0.017721
3414,0.015458,-0.040313,-0.001539
3415,0.015458,0.029041,-0.0208
3416,-0.001814,0.011702,-0.001539
3417,-0.001814,-0.022975,-0.001539
3418,0.032731,-0.022975,-0.0208
3419,0.050004,-0.022975,-0.001539
3420,-0.001814,-0.022975,-0.001539
3421,0.032731,-0.022975,-0.0208
3422,0.015458,-0.005636,-0.001539
3423,-0.001814,-0.040313,-0.001539
3424,0.015458,-0.005636,-0.0208
3425,-0.001814,-0.005636,-0.0208
3426,-0.03636,0.029041,-0.001539
3427,-0.019087,0.011702,-0.001539
3428,-0.019087,0.011702,-0.0208
3429,-0.001814,0.011702,-0.0208
3430,-0.001814,0.029041,-0.001539
3431,-0.001814,0.011702,-0.001539
3432,-0.019087,0.011702,-0.001539
3433,-0.001814,0.011702,-0.0208
3434,0.015458,-0.040313,-0.0208
3435,-0.001814,0.011702,-0.001539
3436,-0.001814,0.011702,-0.001539
3437,-0.019087,-0.005636,-0.0208
3438,-0.019087,0.011702,-0.001539
3439,-0.019087,0.029041,-0.001539
3440,-0.001814,-0.005636,-0.0208
3441,-0.001814,-0.022975,-0.001539
3442,-0.019087,0.011702,-0.0208
3443,-0.053632,-0.022975,-0.0208
3444,0.015458,-0.040313,-0.001539
3445,0.015458,-0.005636,-0.0208
3446,0.015458,0.011702,-0.001539
3447,-0.001814,-0.022975,-0.001539
3448,0.015458,-0.005636,0.017721
3449,0.050004,-0.005636,-0.0208
3450,0.032731,-0.040313,-0.001539
3451,0.015458,-0.022975,-0.001539
3452,-0.001814,-0.005636,-0.001539
3453,0.015458,-0.005636,0.017721
3454,0.015458,-0.005636,-0.001539
3455,-0.001814,0.081057,-0.001539
3456,-0.001814,-0.005636,-0.001539
3457,-0.019087,-0.005636,-0.04006
3458,0.015458,-0.040313,-0.001539
3459,-0.03636,-0.005636,-0.001539
3460,0.015458,0.011702,-0.001539
3461,-0.001814,-0.022975,-0.001539
3462,-0.019087,-0.005636,0.017721
3463,-0.001814,-0.005636,-0.001539
3464,0.015458,0.029041,-0.001539
3465,0.015458,0.011702,-0.0208
3466,0.032731,0.029041,-0.001539
3467,0.032731,-0.022975,-0.001539
3468,0.015458,0.011702,-0.0208
3469,0.015458,0.011702,-0.001539
3470,-0.001814,-0.005636,0.017721
3471,-0.019087,-0.040313,-0.001539
3472,-0.019087,-0.005636,-0.001539
3473,-0.001814,-0.022975,-0.0208
3474,-0.019087,-0.022975,-0.001539
3475,-0.019087,-0.005636,-0.001539
3476,-0.019087,-0.022975,-0.001539
3477,-0.001814,-0.022975,-0.001539
3478,0.050004,0.011702,-0.0208
3479,0.015458,0.029041,-0.001539
3480,0.032731,0.011702,-0.001539
3481,0.032731,0.011702,-0.001539
3482,0.015458,0.029041,-0.001539
3483,0.050004,0.029041,-0.001539
3484,0.032731,-0.005636,-0.001539
3485,0.015458,-0.005636,-0.001539
3486,-0.001814,-0.005636,-0.0208
3487,-0.001814,-0.022975,-0.0208
3488,-0.019087,-0.040313,-0.001539
3489,-0.019087,-0.022975,-0.001539
3490,-0.019087,-0.022975,-0.001539
3491,0.015458,-0.022975,-0.001539
3492,0.015458,-0.022975,-0.001539
3493,0.015458,0.011702,-0.001539
3494,-0.019087,-0.005636,-0.001539
3495,0.032731,0.011702,0.017721
3496,-0.001814,0.029041,-0.001539
3497,-0.001814,-0.005636,-0.001539
3498,0.015458,0.029041,-0.001539
3499,0.015458,-0.005636,-0.001539
3500,-0.001814,-0.022975,-0.0208
3501,-0.001814,-0.022975,-0.001539
3502,-0.001814,-0.022975,-0.0208
3503,-0.001814,-0.040313,-0.001539
3504,-0.019087,-0.057652,0.017721
3505,-0.019087,-0.005636,-0.001539
3506,-0.019087,0.011702,0.017721
3507,-0.019087,-0.022975,-0.001539
3508,-0.053632,-0.005636,-0.001539
3509,-0.001814,0.011702,-0.001539
3510,-0.001814,-0.005636,-0.0208
3511,-0.019087,-0.005636,-0.001539
3512,-0.001814,0.046379,-0.001539
3513,-0.019087,0.011702,-0.001539
3514,0.015458,-0.022975,-0.0208
3515,0.050004,-0.040313,0.017721
3516,0.032731,-0.005636,-0.001539
3517,-0.03636,-0.022975,-0.001539
3518,0.015458,-0.022975,-0.001539
3519,-0.001814,-0.005636,-0.0208
3520,-0.001814,-0.040313,-0.001539
3521,-0.019087,-0.022975,-0.0208
3522,-0.019087,-0.005636,-0.0208
3523,-0.019087,0.011702,-0.001539
3524,-0.001814,-0.005636,-0.001539
3525,0.015458,-0.005636,-0.001539
3526,0.015458,-0.022975,-0.001539
3527,0.032731,-0.005636,-0.0208
3528,-0.001814,-0.005636,-0.001539
3529,-0.001814,-0.005636,-0.001539
3530,-0.019087,-0.005636,-0.001539
3531,-0.03636,-0.022975,-0.001539
3532,-0.001814,0.011702,-0.001539
3533,-0.001814,-0.005636,0.017721
3534,0.015458,0.081057,0.017721
3535,-0.001814,-0.022975,-0.001539
3536,-0.001814,0.011702,-0.001539
3537,0.015458,0.011702,-0.001539
3538,-0.001814,0.011702,-0.001539
3539,-0.001814,0.011702,-0.0208
3540,-0.019087,-0.005636,-0.001539
3541,-0.03636,-0.022975,0.017721
3542,-0.03636,0.011702,-0.0208
3543,-0.019087,-0.005636,-0.001539
3544,-0.019087,-0.022975,-0.001539
3545,-0.019087,-0.022975,-0.001539
3546,-0.053632,-0.005636,-0.001539
3547,-0.001814,0.011702,-0.001539
3548,-0.001814,-0.005636,-0.001539
3549,-0.03636,0.011702,-0.001539
3550,-0.019087,0.029041,-0.001539
3551,-0.001814,0.011702,-0.001539
3552,-0.019087,0.029041,-0.001539
3553,-0.001814,0.029041,-0.0208
3554,-0.001814,0.011702,-0.001539
3555,-0.001814,0.063718,-0.001539
3556,0.015458,0.029041,-0.001539
3557,0.032731,0.011702,-0.001539
3558,0.015458,-0.040313,0.017721
3559,-0.001814,-0.005636,-0.0208
3560,-0.001814,-0.040313,-0.001539
3561,0.015458,-0.07499,-0.001539
3562,-0.001814,-0.005636,-0.001539
3563,-0.019087,-0.005636,-0.001539
3564,-0.019087,-0.005636,-0.0208
3565,-0.019087,0.011702,-0.001539
3566,-0.019087,0.063718,-0.001539
3567,-0.019087,0.011702,-0.0208
3568,-0.03636,-0.005636,-0.001539
3569,-0.03636,0.011702,-0.001539
3570,-0.019087,-0.005636,-0.001539
3571,-0.019087,-0.040313,-0.0208
3572,-0.001814,-0.022975,-0.001539
3573,-0.019087,-0.005636,-0.001539
3574,-0.03636,-0.040313,0.017721
3575,-0.03636,-0.022975,-0.001539
3576,-0.053632,0.011702,-0.001539
3577,-0.03636,-0.005636,-0.001539
3578,0.015458,0.011702,-0.001539
