# Requested Sampling Rate (Hz):,1000
# Actual Sampling Rate (Hz):,1008.764
# Requested Duration (s):,5.0
# Actual Duration (s):,4.998
# REST Calibration:,830.1050347222211,832.3250694444425,834.079930555557
# MAX Calibration:,888.0000,890.0000,886.0000
# Normalization: MVC-based  (x_norm = (x - REST) / (MAX - REST))
sample_idx,EMG1,EMG2,EMG3
0,0.067276,0.011702,-0.001539
1,-0.019087,0.011702,-0.001539
2,-0.001814,0.011702,-0.001539
3,0.119094,0.011702,-0.0208
4,0.015458,-0.005636,0.017721
5,0.032731,0.029041,0.017721
6,0.015458,0.011702,-0.001539
7,0.015458,0.011702,-0.001539
8,-0.001814,0.029041,-0.001539
9,-0.019087,0.011702,-0.001539
10,0.015458,-0.005636,-0.0208
11,0.015458,-0.040313,-0.001539
12,-0.001814,-0.022975,-0.001539
13,-0.001814,-0.022975,-0.0208
14,-0.001814,-0.022975,-0.001539
15,-0.001814,-0.005636,-0.0208
16,-0.019087,0.011702,-0.001539
17,-0.03636,-0.022975,-0.001539
18,-0.001814,-0.005636,-0.001539
19,-0.019087,-0.005636,-0.0208
20,-0.03636,-0.005636,-0.0208
21,-0.001814,0.011702,-0.0208
22,-0.03636,-0.005636,-0.001539
23,0.032731,-0.022975,-0.001539
24,-0.001814,-0.040313,-0.0208
25,-0.001814,-0.005636,-0.001539
26,-0.019087,-0.040313,-0.001539
27,-0.001814,-0.022975,-0.001539
28,-0.001814,-0.022975,-0.001539
29,-0.001814,0.011702,-0.001539
30,-0.001814,0.011702,-0.0208
31,-0.019087,0.029041,-0.001539
32,0.015458,0.029041,-0.001539
33,0.050004,-0.005636,-0.001539
34,0.015458,0.011702,-0.001539
35,0.015458,-0.005636,-0.001539
36,-0.001814,-0.022975,-0.001539
37,-0.03636,-0.022975,-0.001539
38,-0.03636,-0.005636,-0.0208
39,-0.001814,-0.022975,-0.001539
40,-0.019087,0.011702,-0.001539
41,-0.001814,0.011702,-0.001539
42,-0.019087,0.029041,-0.0208
43,-0.019087,-0.005636,-0.001539
44,-0.019087,0.029041,-0.001539
45,-0.019087,-0.005636,-0.0208
46,-0.019087,-0.022975,-0.0208
47,-0.001814,-0.005636,-0.001539
48,0.015458,-0.022975,-0.001539
49,-0.001814,-0.07499,-0.001539
50,0.015458,-0.092329,-0.001539
51,0.032731,-0.057652,-0.001539
52,-0.001814,-0.040313,-0.001539
53,0.015458,0.046379,-0.001539
54,0.015458,0.063718,-0.001539
55,0.050004,0.081057,0.017721
56,0.015458,0.081057,-0.001539
57,0.015458,0.029041,-0.001539
58,0.015458,0.046379,-0.001539
59,-0.001814,-0.040313,-0.001539
60,-0.001814,-0.057652,-0.001539
61,-0.001814,-0.040313,-0.001539
62,-0.001814,-0.005636,-0.001539
63,-0.001814,-0.022975,0.017721
64,-0.001814,-0.040313,-0.001539
65,-0.019087,-0.005636,-0.001539
66,-0.019087,0.011702,0.017721
67,0.015458,-0.005636,0.017721
68,-0.001814,0.011702,-0.001539
69,-0.019087,0.011702,-0.001539
70,-0.019087,-0.005636,0.017721
71,-0.03636,0.029041,0.017721
72,-0.019087,0.029041,-0.001539
73,-0.001814,0.011702,0.017721
74,0.015458,-0.022975,-0.001539
75,-0.001814,0.011702,-0.0208
76,0.015458,-0.022975,-0.001539
77,-0.001814,-0.022975,-0.001539
78,-0.019087,-0.022975,-0.001539
79,0.032731,-0.005636,-0.0208
80,-0.001814,-0.022975,-0.001539
81,-0.03636,-0.005636,-0.001539
82,-0.019087,0.011702,-0.0208
83,-0.001814,-0.005636,-0.0208
84,-0.019087,0.011702,-0.001539
85,-0.019087,0.011702,-0.001539
86,-0.03636,-0.005636,0.017721
87,-0.001814,-0.022975,-0.001539
88,-0.019087,-0.005636,-0.001539
89,-0.001814,-0.005636,-0.0208
90,0.015458,-0.022975,-0.0208
91,0.015458,-0.005636,0.017721
92,0.015458,0.011702,-0.001539
93,-0.001814,-0.005636,-0.001539
94,-0.001814,-0.005636,-0.0208
95,0.015458,0.011702,-0.001539
96,0.015458,-0.005636,-0.001539
97,0.015458,0.011702,-0.0208
98,-0.001814,0.029041,-0.001539
99,0.015458,0.011702,-0.001539
100,-0.019087,-0.022975,-0.0208
101,-0.019087,-0.005636,-0.001539
102,-0.03636,-0.022975,-0.001539
103,-0.019087,-0.005636,-0.001539
104,0.015458,0.011702,-0.001539
105,0.015458,0.029041,-0.001539
106,-0.001814,-0.005636,-0.001539
107,0.015458,-0.005636,-0.001539
108,-0.001814,0.011702,-0.001539
109,0.032731,-0.005636,-0.001539
110,-0.001814,-0.022975,-0.001539
111,-0.001814,-0.005636,-0.04006
112,-0.001814,-0.005636,-0.001539
113,-0.019087,-0.022975,-0.0208
114,-0.001814,0.011702,-0.001539
115,-0.001814,-0.022975,-0.0208
116,-0.001814,-0.040313,-0.001539
117,0.015458,-0.005636,0.017721
118,-0.001814,-0.005636,-0.001539
119,0.015458,-0.022975,-0.001539
120,0.015458,-0.005636,-0.001539
121,-0.019087,-0.005636,-0.0208
122,-0.019087,0.029041,-0.001539
123,-0.03636,-0.005636,-0.001539
124,-0.019087,0.011702,-0.0208
125,-0.019087,-0.005636,-0.001539
126,-0.03636,-0.005636,-0.001539
127,-0.001814,-0.005636,-0.001539
128,0.015458,-0.022975,0.017721
129,-0.001814,-0.040313,-0.001539
130,0.032731,-0.022975,-0.001539
131,0.015458,0.011702,-0.001539
132,-0.001814,-0.022975,-0.001539
133,-0.001814,-0.005636,-0.0208
134,-0.001814,-0.005636,-0.001539
135,-0.019087,-0.005636,-0.001539
136,-0.019087,-0.005636,-0.0208
137,-0.001814,-0.022975,-0.001539
138,-0.019087,-0.005636,0.036981
139,-0.001814,0.011702,-0.001539
140,-0.001814,0.029041,-0.0208
141,0.015458,0.011702,-0.001539
142,-0.001814,-0.005636,-0.001539
143,0.015458,0.011702,-0.001539
144,-0.001814,-0.005636,-0.0208
145,-0.001814,-0.057652,-0.001539
146,-0.019087,-0.022975,-0.001539
147,-0.001814,-0.022975,-0.001539
148,-0.001814,-0.005636,-0.001539
149,-0.053632,-0.005636,-0.001539
150,-0.001814,0.029041,0.017721
151,-0.001814,0.011702,-0.001539
152,0.015458,0.029041,-0.001539
153,-0.001814,0.063718,-0.001539
154,-0.001814,0.029041,-0.001539
155,-0.001814,0.029041,-0.001539
156,-0.001814,0.029041,-0.0208
157,-0.019087,0.029041,-0.001539
158,-0.019087,-0.07499,-0.001539
159,-0.03636,-0.07499,-0.001539
160,-0.019087,-0.040313,-0.001539
161,-0.001814,-0.005636,-0.0208
162,0.015458,-0.022975,-0.001539
163,-0.001814,0.011702,-0.0208
164,-0.001814,-0.005636,-0.001539
165,-0.019087,-0.022975,-0.0208
166,-0.03636,-0.022975,-0.001539
167,-0.019087,-0.057652,-0.001539
168,0.015458,-0.022975,-0.001539
169,-0.019087,-0.022975,-0.001539
170,-0.001814,0.029041,-0.001539
171,0.032731,-0.005636,-0.001539
172,0.015458,-0.005636,-0.001539
173,0.015458,0.011702,-0.0208
174,0.032731,0.029041,-0.001539
175,0.015458,0.011702,0.017721
176,-0.001814,-0.005636,0.017721
177,-0.03636,0.011702,-0.001539
178,-0.019087,-0.005636,-0.0208
179,-0.001814,-0.005636,0.017721
180,0.015458,-0.022975,-0.001539
181,0.015458,-0.040313,-0.001539
182,-0.001814,-0.040313,-0.001539
183,-0.001814,0.011702,-0.001539
184,-0.001814,-0.040313,-0.001539
185,-0.001814,-0.022975,-0.001539
186,-0.03636,-0.005636,-0.001539
187,-0.03636,0.011702,-0.001539
188,-0.001814,0.011702,-0.0208
189,-0.001814,0.029041,-0.001539
190,0.015458,0.011702,-0.001539
191,-0.019087,-0.005636,-0.001539
192,-0.001814,0.011702,-0.0208
193,-0.001814,-0.022975,-0.001539
194,-0.001814,-0.005636,0.017721
195,0.015458,-0.005636,-0.0208
196,-0.019087,-0.005636,-0.001539
197,-0.03636,-0.040313,0.017721
198,-0.001814,0.011702,-0.001539
199,-0.019087,-0.005636,-0.001539
200,0.032731,0.011702,-0.001539
201,-0.001814,-0.005636,-0.0208
202,-0.001814,0.029041,-0.001539
203,0.015458,0.011702,-0.0208
204,-0.001814,-0.022975,-0.0208
205,-0.019087,0.011702,-0.0208
206,0.015458,-0.040313,-0.001539
207,0.032731,-0.057652,-0.0208
208,0.015458,-0.057652,-0.0208
209,0.015458,-0.022975,-0.001539
210,-0.019087,-0.022975,-0.001539
211,-0.03636,0.011702,0.017721
212,-0.001814,0.046379,-0.0208
213,-0.03636,0.029041,-0.001539
214,-0.019087,0.011702,-0.0208
215,-0.053632,0.011702,-0.001539
216,-0.001814,-0.005636,0.017721
217,0.015458,0.011702,-0.0208
218,-0.03636,0.011702,-0.0208
219,-0.03636,-0.005636,-0.0208
220,-0.03636,-0.005636,-0.001539
221,-0.03636,-0.022975,0.017721
222,0.015458,0.011702,-0.0208
223,0.032731,-0.005636,-0.001539
224,0.067276,-0.005636,-0.001539
225,-0.001814,0.011702,-0.001539
226,-0.001814,0.011702,-0.0208
227,-0.001814,-0.005636,-0.001539
228,-0.001814,0.029041,-0.001539
229,-0.03636,0.011702,-0.001539
230,-0.001814,-0.040313,-0.001539
231,-0.001814,0.011702,-0.0208
232,-0.03636,-0.022975,-0.001539
233,-0.03636,-0.022975,0.017721
234,-0.019087,-0.022975,-0.001539
235,-0.019087,-0.022975,-0.001539
236,0.015458,-0.040313,-0.0208
237,-0.001814,-0.005636,0.017721
238,0.015458,-0.005636,-0.001539
239,0.015458,0.011702,-0.001539
240,-0.019087,-0.005636,-0.001539
241,-0.001814,-0.005636,-0.001539
242,-0.001814,0.011702,-0.001539
243,0.015458,0.011702,-0.0208
244,-0.001814,0.011702,-0.001539
245,0.015458,-0.005636,-0.0208
246,0.032731,-0.040313,-0.001539
247,0.015458,-0.022975,-0.001539
248,0.015458,-0.022975,-0.001539
249,-0.001814,-0.005636,-0.001539
250,-0.001814,-0.022975,-0.001539
251,-0.019087,-0.005636,-0.0208
252,-0.03636,-0.005636,-0.001539
253,-0.019087,-0.005636,0.017721
254,-0.001814,0.011702,-0.0208
255,-0.001814,-0.005636,-0.001539
256,-0.001814,0.011702,-0.0208
257,-0.019087,0.011702,-0.04006
258,-0.001814,0.011702,-0.001539
259,-0.019087,-0.005636,-0.001539
260,-0.019087,-0.022975,-0.0208
261,-0.03636,-0.040313,-0.0208
262,-0.019087,-0.022975,-0.001539
263,-0.053632,-0.040313,-0.001539
264,-0.019087,-0.022975,-0.001539
265,-0.019087,-0.005636,-0.001539
266,-0.019087,-0.022975,-0.001539
267,-0.03636,-0.005636,-0.001539
268,-0.001814,-0.005636,-0.001539
269,-0.001814,-0.005636,-0.001539
270,-0.019087,0.011702,-0.001539
271,0.015458,0.029041,0.017721
272,0.015458,0.011702,-0.001539
273,-0.019087,-0.022975,-0.001539
274,-0.001814,-0.022975,-0.001539
275,-0.019087,-0.005636,-0.001539
276,-0.001814,-0.005636,-0.0208
277,-0.001814,-0.005636,-0.001539
278,-0.001814,-0.005636,-0.001539
279,0.015458,-0.005636,-0.001539
280,0.015458,-0.005636,-0.001539
281,-0.019087,-0.005636,-0.001539
282,0.015458,-0.005636,0.017721
283,-0.019087,0.011702,-0.0208
284,-0.03636,-0.005636,-0.0208
285,-0.001814,-0.022975,-0.001539
286,-0.001814,-0.022975,-0.0208
287,-0.001814,-0.022975,-0.0208
288,-0.019087,-0.005636,-0.0208
289,-0.001814,-0.005636,-0.001539
290,0.032731,-0.005636,0.036981
291,0.015458,0.011702,-0.001539
292,0.015458,-0.005636,-0.001539
293,-0.001814,0.029041,-0.04006
294,-0.001814,0.063718,-0.001539
295,-0.03636,0.063718,-0.0208
296,-0.019087,-0.005636,-0.0208
297,-0.001814,0.011702,-0.0208
298,-0.019087,-0.040313,-0.001539
299,0.015458,-0.057652,-0.0208
300,-0.001814,-0.092329,-0.001539
301,-0.019087,-0.057652,-0.001539
302,-0.019087,-0.057652,-0.001539
303,-0.019087,-0.005636,-0.001539
304,0.015458,0.029041,-0.001539
305,0.015458,0.011702,-0.0208
306,-0.001814,0.029041,-0.0208
307,-0.019087,0.029041,-0.0208
308,-0.001814,0.011702,-0.001539
309,-0.03636,0.029041,-0.0208
310,0.015458,0.029041,-0.0208
311,-0.019087,-0.005636,0.017721
312,-0.03636,-0.022975,-0.0208
313,-0.053632,-0.040313,-0.001539
314,-0.03636,-0.005636,-0.001539
315,-0.001814,-0.022975,-0.001539
316,-0.019087,-0.022975,-0.001539
317,-0.001814,-0.022975,-0.001539
318,-0.001814,-0.040313,-0.001539
319,0.015458,-0.040313,-0.001539
320,0.015458,-0.005636,-0.001539
321,0.015458,0.029041,-0.001539
322,0.015458,0.011702,-0.001539
323,-0.001814,0.011702,-0.001539
324,-0.001814,0.011702,-0.001539
325,0.032731,-0.005636,-0.001539
326,0.032731,-0.005636,-0.001539
327,0.015458,-0.005636,-0.001539
328,0.015458,-0.022975,-0.001539
329,-0.001814,-0.022975,-0.001539
330,0.015458,-0.005636,-0.001539
331,-0.019087,-0.022975,-0.001539
332,-0.070905,-0.005636,-0.001539
333,-0.001814,-0.022975,-0.001539
334,-0.019087,0.029041,-0.001539
335,-0.019087,-0.005636,-0.001539
336,-0.019087,0.029041,-0.001539
337,-0.001814,0.011702,-0.001539
338,-0.001814,0.011702,-0.001539
339,-0.03636,-0.022975,-0.0208
340,-0.019087,0.011702,-0.001539
341,-0.019087,-0.005636,-0.001539
342,-0.001814,-0.005636,-0.001539
343,-0.019087,0.011702,-0.001539
344,0.015458,-0.022975,-0.001539
345,-0.001814,-0.005636,-0.001539
346,-0.001814,-0.005636,-0.001539
347,-0.001814,-0.022975,-0.001539
348,-0.001814,-0.005636,-0.001539
349,0.015458,0.029041,-0.001539
350,0.015458,-0.005636,-0.001539
351,-0.001814,-0.005636,-0.001539
352,-0.03636,-0.022975,0.017721
353,-0.001814,-0.005636,-0.001539
354,0.015458,-0.005636,-0.001539
355,0.015458,-0.022975,-0.0208
356,-0.001814,-0.005636,-0.0208
357,-0.019087,-0.022975,-0.0208
358,-0.03636,-0.005636,-0.0208
359,-0.019087,-0.022975,-0.001539
360,-0.03636,-0.022975,-0.001539
361,-0.03636,-0.040313,-0.001539
362,-0.019087,-0.005636,-0.001539
363,-0.03636,0.029041,-0.001539
364,-0.019087,0.029041,-0.001539
365,-0.019087,0.011702,-0.001539
366,-0.019087,0.029041,-0.001539
367,-0.001814,-0.005636,-0.001539
368,0.015458,-0.022975,-0.001539
369,0.032731,-0.005636,-0.001539
370,-0.001814,-0.022975,-0.001539
371,-0.001814,-0.022975,0.017721
372,0.015458,0.011702,-0.001539
373,-0.001814,0.029041,-0.001539
374,0.015458,-0.005636,-0.001539
375,0.032731,0.011702,-0.001539
376,0.015458,0.029041,-0.001539
377,0.015458,0.011702,-0.0208
378,-0.001814,-0.022975,-0.001539
379,-0.001814,0.011702,-0.001539
380,-0.019087,-0.022975,-0.0208
381,-0.001814,-0.040313,-0.001539
382,0.015458,-0.022975,0.017721
383,-0.001814,-0.005636,-0.001539
384,-0.019087,-0.022975,-0.001539
385,-0.019087,0.029041,-0.0208
386,-0.001814,0.029041,-0.0208
387,-0.001814,0.011702,-0.001539
388,0.015458,-0.005636,-0.001539
389,0.015458,0.011702,-0.0208
390,0.015458,-0.005636,-0.001539
391,-0.019087,-0.07499,-0.0208
392,-0.001814,-0.005636,-0.0208
393,-0.001814,-0.005636,-0.001539
394,-0.001814,-0.005636,-0.001539
395,-0.001814,-0.022975,-0.0208
396,0.032731,-0.022975,-0.001539
397,-0.001814,-0.040313,-0.001539
398,-0.019087,-0.022975,-0.001539
399,-0.019087,0.011702,-0.0208
400,0.015458,-0.005636,-0.0208
401,-0.001814,-0.022975,-0.001539
402,0.015458,-0.005636,-0.001539
403,-0.001814,-0.005636,-0.001539
404,0.015458,-0.005636,-0.001539
405,-0.001814,0.011702,-0.001539
406,-0.019087,0.029041,0.017721
407,-0.001814,0.011702,0.017721
408,0.015458,-0.005636,-0.001539
409,-0.001814,-0.022975,-0.0208
410,0.015458,-0.040313,-0.001539
411,-0.001814,-0.040313,-0.0208
412,-0.001814,-0.057652,-0.0208
413,-0.019087,-0.040313,0.017721
414,-0.019087,-0.005636,-0.001539
415,-0.03636,0.029041,-0.001539
416,-0.03636,0.029041,-0.001539
417,-0.019087,0.011702,-0.0208
418,-0.001814,-0.005636,0.017721
419,-0.001814,0.011702,-0.001539
420,-0.001814,-0.005636,-0.001539
421,-0.001814,0.011702,-0.001539
422,-0.001814,0.029041,0.017721
423,0.015458,-0.005636,-0.001539
424,0.032731,-0.005636,-0.0208
425,0.015458,0.011702,-0.0208
426,-0.001814,-0.022975,-0.0208
427,-0.019087,-0.07499,-0.001539
428,-0.03636,-0.07499,-0.001539
429,-0.03636,-0.022975,-0.001539
430,-0.019087,-0.022975,0.017721
431,-0.019087,0.029041,-0.0208
432,-0.03636,0.046379,-0.001539
433,-0.019087,0.046379,-0.001539
434,-0.001814,-0.022975,-0.001539
435,-0.019087,-0.022975,-0.001539
436,0.032731,-0.005636,-0.0208
437,-0.019087,-0.040313,-0.0208
438,-0.019087,-0.022975,-0.001539
439,-0.019087,-0.040313,-0.001539
440,-0.001814,0.011702,-0.0208
441,0.015458,-0.022975,-0.001539
442,0.015458,0.011702,-0.0208
443,0.032731,-0.040313,-0.0208
444,-0.019087,-0.040313,-0.0208
445,0.032731,0.011702,-0.001539
446,-0.019087,0.011702,-0.001539
447,-0.019087,0.029041,0.017721
448,-0.019087,0.046379,0.017721
449,-0.019087,0.046379,-0.001539
450,-0.019087,0.011702,-0.001539
451,-0.001814,-0.005636,-0.001539
452,-0.03636,-0.07499,0.017721
453,-0.001814,-0.040313,-0.04006
454,-0.019087,-0.022975,-0.001539
455,-0.019087,-0.005636,-0.001539
456,-0.03636,-0.005636,-0.001539
457,-0.001814,0.011702,-0.001539
458,-0.001814,0.029041,0.036981
459,-0.001814,0.011702,-0.001539
460,0.015458,-0.022975,-0.001539
461,-0.03636,-0.005636,-0.001539
462,-0.019087,-0.022975,-0.0208
463,-0.053632,-0.040313,-0.001539
464,-0.03636,-0.022975,-0.0208
465,-0.001814,-0.057652,-0.001539
466,-0.001814,-0.040313,-0.001539
467,-0.019087,-0.022975,-0.001539
468,-0.001814,0.011702,-0.001539
469,-0.001814,0.011702,-0.001539
470,-0.019087,0.029041,-0.0208
471,-0.001814,0.046379,-0.001539
472,-0.001814,0.011702,-0.0208
473,-0.001814,0.011702,-0.001539
474,0.032731,0.029041,-0.0208
475,0.015458,-0.005636,-0.001539
476,-0.019087,-0.022975,-0.001539
477,-0.001814,-0.005636,-0.001539
478,-0.019087,-0.005636,-0.001539
479,-0.001814,-0.057652,-0.001539
480,-0.001814,-0.040313,-0.001539
481,0.015458,-0.022975,0.017721
482,-0.03636,0.011702,-0.001539
483,-0.019087,-0.005636,-0.001539
484,-0.019087,0.011702,-0.001539
485,-0.001814,0.011702,-0.001539
486,-0.001814,0.011702,-0.001539
487,-0.019087,0.046379,-0.001539
488,-0.001814,0.011702,-0.001539
489,-0.019087,-0.005636,0.017721
490,0.015458,-0.022975,0.017721
491,0.015458,-0.022975,-0.001539
492,0.032731,-0.022975,-0.001539
493,-0.001814,0.011702,-0.001539
494,0.015458,0.029041,-0.001539
495,-0.019087,0.011702,-0.001539
496,-0.001814,-0.022975,-0.001539
497,-0.001814,0.011702,0.017721
498,-0.001814,-0.022975,-0.001539
499,-0.019087,-0.022975,-0.0208
500,-0.019087,-0.005636,-0.0208
501,-0.019087,0.011702,-0.001539
502,-0.019087,-0.005636,-0.001539
503,-0.019087,-0.005636,-0.0208
504,-0.019087,-0.005636,-0.001539
505,0.015458,-0.005636,-0.001539
506,0.015458,-0.022975,-0.0208
507,0.015458,0.011702,-0.001539
508,-0.001814,0.029041,-0.001539
509,-0.019087,-0.005636,-0.0208
510,0.015458,0.029041,-0.001539
511,0.015458,0.046379,-0.001539
512,0.015458,0.011702,-0.001539
513,-0.03636,-0.005636,0.017721
514,-0.019087,-0.005636,-0.001539
515,-0.001814,-0.040313,-0.001539
516,-0.03636,-0.022975,0.017721
517,-0.03636,-0.005636,-0.0208
518,-0.019087,-0.040313,-0.001539
519,0.015458,-0.022975,-0.001539
520,0.032731,-0.005636,-0.0208
521,0.015458,-0.005636,-0.001539
522,-0.001814,-0.005636,-0.0208
523,-0.019087,0.011702,-0.001539
524,-0.019087,0.011702,0.017721
525,-0.019087,0.011702,0.017721
526,0.015458,0.046379,-0.001539
527,0.015458,0.029041,-0.0208
528,-0.019087,-0.022975,-0.001539
529,-0.001814,-0.040313,-0.001539
530,0.015458,0.011702,-0.0208
531,0.032731,-0.005636,-0.0208
532,-0.001814,-0.022975,-0.001539
533,0.015458,-0.040313,-0.001539
534,-0.019087,-0.005636,-0.001539
535,-0.019087,-0.040313,-0.001539
536,-0.019087,-0.005636,-0.001539
537,0.015458,0.029041,-0.001539
538,-0.001814,0.011702,-0.001539
539,0.015458,0.029041,0.017721
540,0.032731,0.046379,-0.001539
541,-0.001814,0.011702,-0.001539
542,-0.001814,0.029041,-0.001539
543,-0.019087,0.011702,-0.0208
544,-0.001814,-0.005636,-0.001539
545,-0.019087,-0.040313,-0.001539
546,-0.019087,-0.022975,0.017721
547,0.032731,-0.005636,-0.001539
548,-0.019087,-0.057652,0.017721
549,-0.019087,-0.022975,-0.0208
550,0.015458,-0.005636,-0.001539
551,0.015458,-0.005636,-0.0208
552,-0.001814,-0.005636,-0.0208
553,-0.03636,0.029041,0.017721
554,-0.019087,0.011702,0.017721
555,0.015458,-0.005636,-0.0208
556,0.015458,0.029041,-0.0208
557,0.015458,-0.005636,-0.001539
558,-0.001814,-0.005636,-0.001539
559,-0.019087,-0.022975,-0.001539
560,0.015458,-0.022975,-0.001539
561,0.015458,-0.022975,-0.001539
562,0.015458,-0.005636,0.017721
563,-0.001814,0.011702,-0.001539
564,-0.019087,0.011702,-0.0208
565,-0.001814,-0.022975,-0.001539
566,-0.019087,-0.005636,-0.001539
567,-0.001814,-0.005636,-0.001539
568,0.015458,-0.022975,-0.001539
569,-0.019087,0.029041,-0.001539
570,-0.03636,-0.005636,-0.001539
571,-0.03636,-0.005636,-0.0208
572,0.015458,-0.022975,-0.001539
573,0.015458,0.029041,-0.001539
574,0.015458,0.011702,-0.001539
575,0.032731,-0.005636,-0.001539
576,-0.001814,0.011702,-0.001539
577,0.032731,0.011702,-0.0208
578,0.015458,-0.005636,0.017721
579,0.015458,0.011702,-0.001539
580,-0.001814,0.029041,-0.001539
581,-0.001814,-0.022975,-0.001539
582,-0.001814,0.029041,-0.001539
583,-0.001814,-0.005636,-0.001539
584,-0.03636,-0.022975,0.017721
585,-0.001814,-0.022975,-0.001539
586,-0.019087,-0.005636,-0.0208
587,-0.001814,-0.005636,-0.001539
588,-0.001814,-0.022975,-0.001539
589,-0.019087,-0.022975,0.017721
590,0.015458,-0.022975,-0.0208
591,-0.001814,-0.040313,-0.001539
592,-0.019087,-0.005636,-0.0208
593,-0.019087,0.046379,-0.001539
594,-0.03636,0.046379,-0.001539
595,-0.03636,0.029041,-0.001539
596,-0.019087,0.029041,-0.001539
597,-0.001814,-0.005636,-0.001539
598,-0.001814,-0.040313,-0.0208
599,0.015458,-0.022975,-0.0208
600,-0.001814,-0.022975,-0.001539
601,-0.001814,-0.005636,0.017721
602,0.015458,0.046379,-0.001539
603,-0.03636,0.046379,-0.001539
604,-0.001814,0.011702,-0.001539
605,0.015458,0.046379,-0.001539
606,0.015458,0.011702,0.017721
607,0.032731,-0.022975,0.017721
608,0.032731,-0.057652,-0.001539
609,-0.001814,-0.022975,-0.001539
610,0.015458,-0.022975,-0.0208
611,-0.001814,-0.022975,-0.001539
612,-0.019087,-0.022975,-0.0208
613,-0.019087,0.011702,-0.001539
614,-0.001814,-0.005636,-0.001539
615,-0.03636,0.011702,-0.001539
616,0.015458,0.011702,-0.001539
617,-0.019087,-0.040313,-0.001539
618,-0.03636,-0.040313,-0.0208
619,-0.019087,-0.005636,-0.0208
620,0.015458,-0.005636,-0.001539
621,-0.001814,0.011702,-0.001539
622,-0.001814,-0.022975,-0.001539
623,-0.03636,-0.092329,-0.001539
624,-0.019087,-0.005636,-0.001539
625,-0.019087,0.098395,-0.001539
626,-0.019087,0.202426,-0.001539
627,0.032731,0.185088,-0.0208
628,0.032731,0.167749,0.017721
629,0.015458,0.081057,-0.001539
630,0.015458,-0.057652,-0.001539
631,-0.001814,-0.179022,-0.001539
632,0.015458,-0.31773,-0.001539
633,-0.019087,-0.231037,-0.001539
634,-0.070905,-0.127006,-0.001539
635,-0.053632,0.029041,-0.0208
636,-0.019087,0.046379,-0.001539
637,-0.019087,0.011702,-0.001539
638,-0.001814,-0.040313,-0.001539
639,0.015458,-0.040313,-0.0208
640,0.101822,0.029041,-0.001539
641,0.15364,0.029041,0.017721
642,0.170912,-0.057652,-0.001539
643,0.084549,-0.057652,-0.001539
644,0.050004,0.029041,-0.0208
645,-0.053632,0.133072,-0.001539
646,-0.088178,0.029041,-0.0208
647,-0.122723,-0.07499,-0.001539
648,-0.10545,-0.005636,-0.001539
649,-0.053632,0.081057,-0.001539
650,0.050004,-0.109668,-0.001539
651,0.067276,-0.092329,-0.0208
652,0.101822,0.029041,-0.001539
653,0.101822,0.098395,-0.001539
654,0.084549,0.219765,-0.0208
655,-0.001814,0.219765,-0.001539
656,-0.019087,0.046379,-0.0208
657,0.015458,-0.161683,-0.001539
658,0.050004,-0.369746,-0.001539
659,-0.122723,-0.647163,-0.001539
660,-0.088178,-0.595147,-0.001539
661,-0.001814,-0.248376,-0.001539
662,-0.019087,0.202426,-0.001539
663,-0.053632,0.479843,-0.001539
664,-0.191813,0.618552,-0.001539
665,-0.191813,0.549198,-0.0208
666,-0.001814,0.549198,0.017721
667,0.343639,0.254442,-0.001539
668,0.430002,0.029041,-0.001539
669,0.188185,-0.057652,-0.001539
670,-0.10545,-0.005636,-0.001539
671,-0.226359,0.029041,-0.001539
672,-0.174541,0.011702,-0.001539
673,-0.157268,-0.040313,-0.001539
674,-0.070905,-0.057652,-0.001539
675,-0.001814,-0.057652,-0.001539
676,0.032731,-0.022975,-0.0208
677,0.050004,-0.040313,-0.001539
678,0.032731,-0.092329,-0.0208
679,-0.019087,-0.352407,-0.0208
680,-0.001814,-0.300392,-0.001539
681,-0.070905,-0.231037,-0.001539
682,0.032731,-0.213699,-0.001539
683,0.360912,-0.022975,-0.001539
684,0.550911,0.029041,-0.001539
685,0.395457,0.133072,-0.0208
686,0.309094,-0.022975,-0.001539
687,0.205458,-0.07499,-0.0208
688,-0.053632,0.029041,-0.001539
689,-0.519994,0.393151,-0.001539
690,-0.554539,0.410489,-0.0208
691,-0.209086,0.462505,-0.0208
692,-0.139996,0.185088,-0.0208
693,-0.209086,-0.005636,-0.001539
694,-0.10545,-0.040313,-0.001539
695,0.119094,-0.19636,-0.0208
696,0.119094,-0.179022,-0.001539
697,0.119094,-0.022975,-0.001539
698,0.015458,0.133072,-0.0208
699,-0.088178,-0.092329,-0.001539
700,-0.001814,-0.179022,-0.0208
701,-0.03636,-0.040313,-0.001539
702,-0.122723,-0.005636,-0.001539
703,0.050004,-0.144345,-0.001539
704,0.015458,-0.127006,-0.0208
705,0.067276,-0.109668,-0.001539
706,0.067276,0.029041,0.017721
707,0.136367,0.202426,-0.0208
708,0.136367,0.098395,-0.001539
709,0.119094,0.011702,-0.059321
710,-0.053632,0.271781,-0.001539
711,0.084549,0.323796,-0.0208
712,-0.10545,0.219765,0.017721
713,-0.295449,-0.127006,-0.001539
714,-0.001814,-0.19636,-0.001539
715,0.032731,0.011702,-0.001539
716,-0.260904,0.115734,-0.001539
717,-0.10545,-0.109668,-0.001539
718,-0.122723,0.063718,-0.001539
719,-0.157268,0.167749,-0.001539
720,0.119094,0.202426,-0.001539
721,0.257276,-0.005636,-0.001539
722,0.240003,-0.07499,-0.0208
723,0.170912,-0.057652,-0.0208
724,-0.122723,-0.144345,-0.001539
725,-0.329995,-0.19636,0.017721
726,-0.312722,-0.213699,-0.0208
727,-0.174541,-0.144345,-0.001539
728,-0.088178,-0.022975,-0.001539
729,-0.001814,0.150411,-0.0208
730,0.136367,0.185088,-0.0208
731,0.119094,0.237104,-0.001539
732,0.240003,0.098395,-0.001539
733,0.067276,-0.057652,-0.001539
734,-0.209086,-0.127006,-0.001539
735,-0.10545,-0.161683,0.017721
736,0.015458,-0.127006,-0.001539
737,-0.03636,-0.179022,-0.0208
738,0.067276,-0.179022,-0.001539
739,0.084549,-0.19636,-0.001539
740,0.050004,0.011702,-0.001539
741,0.067276,0.133072,-0.0208
742,0.032731,0.254442,-0.0208
743,-0.019087,0.167749,-0.04006
744,-0.053632,0.098395,-0.001539
745,-0.053632,0.029041,0.017721
746,-0.070905,-0.057652,-0.0208
747,-0.10545,-0.022975,-0.001539
748,-0.122723,-0.109668,-0.001539
749,-0.10545,-0.127006,-0.0208
750,-0.070905,-0.283053,-0.001539
751,-0.053632,-0.387084,-0.001539
752,-0.03636,-0.387084,-0.001539
753,-0.019087,-0.300392,-0.001539
754,-0.001814,-0.19636,-0.001539
755,0.015458,-0.335069,-0.001539
756,0.084549,-0.300392,-0.0208
757,0.136367,-0.092329,-0.001539
758,0.101822,-0.07499,-0.0208
759,0.067276,0.115734,-0.0208
760,-0.001814,0.219765,-0.001539
761,-0.088178,0.427828,-0.0208
762,-0.122723,0.479843,-0.001539
763,-0.088178,0.219765,-0.001539
764,-0.070905,-0.022975,0.017721
765,-0.053632,-0.127006,-0.001539
766,-0.03636,-0.057652,-0.001539
767,-0.03636,0.167749,-0.001539
768,0.015458,0.289119,-0.001539
769,-0.001814,0.202426,-0.001539
770,0.032731,0.098395,-0.001539
771,0.015458,0.046379,-0.001539
772,0.032731,0.029041,0.017721
773,0.050004,0.081057,0.017721
774,0.050004,0.063718,-0.001539
775,-0.001814,-0.144345,-0.0208
776,-0.053632,-0.335069,-0.001539
777,0.050004,-0.19636,-0.001539
778,0.015458,-0.127006,-0.001539
779,-0.070905,0.063718,-0.001539
780,-0.226359,0.167749,-0.0208
781,-0.157268,0.271781,-0.001539
782,0.136367,0.271781,-0.001539
783,0.343639,0.306458,-0.001539
784,0.343639,0.237104,-0.001539
785,0.22273,0.029041,-0.001539
786,0.084549,-0.231037,-0.001539
787,-0.191813,-0.4391,-0.001539
788,-0.001814,-0.335069,0.017721
789,0.360912,-0.144345,-0.001539
790,0.22273,-0.040313,-0.0208
791,-0.03636,-0.161683,-0.001539
792,-0.157268,0.254442,-0.0208
793,-0.053632,0.462505,-0.001539
794,-0.295449,-0.057652,-0.0208
795,-0.295449,-0.525793,0.017721
796,-0.053632,-0.491116,-0.001539
797,0.170912,-0.179022,-0.001539
798,0.050004,-0.144345,-0.001539
799,-0.053632,0.011702,-0.0208
800,-0.053632,0.358473,-0.001539
801,-0.001814,0.375812,-0.001539
802,0.101822,-0.022975,-0.001539
803,0.101822,-0.040313,-0.001539
804,0.188185,-0.109668,-0.001539
805,0.119094,-0.109668,-0.001539
806,-0.278177,-0.040313,-0.001539
807,-0.139996,0.150411,-0.0208
808,-0.10545,0.098395,-0.001539
809,-0.019087,-0.057652,-0.001539
810,0.084549,-0.057652,-0.001539
811,0.067276,0.150411,-0.001539
812,0.084549,-0.022975,-0.001539
813,0.15364,-0.127006,-0.001539
814,0.136367,-0.005636,-0.001539
815,0.067276,0.115734,-0.0208
816,-0.139996,0.202426,-0.001539
817,-0.329995,0.254442,-0.001539
818,-0.10545,0.133072,-0.001539
819,-0.070905,-0.022975,-0.001539
820,0.015458,-0.127006,-0.001539
821,-0.001814,-0.144345,-0.001539
822,0.015458,-0.109668,-0.001539
823,0.032731,0.098395,-0.001539
824,0.015458,0.219765,-0.001539
825,-0.001814,0.098395,-0.001539
826,0.050004,0.150411,-0.001539
827,0.067276,0.046379,-0.001539
828,-0.019087,-0.092329,-0.001539
829,-0.001814,0.046379,-0.001539
830,0.015458,0.098395,-0.001539
831,-0.03636,0.133072,-0.0208
832,-0.088178,-0.005636,-0.001539
833,-0.122723,-0.300392,-0.001539
834,-0.070905,-0.4391,-0.001539
835,-0.03636,-0.352407,-0.001539
836,-0.070905,-0.179022,-0.001539
837,-0.088178,0.081057,-0.001539
838,-0.053632,0.289119,-0.0208
839,-0.070905,0.150411,-0.001539
840,-0.088178,-0.057652,-0.0208
841,-0.053632,-0.092329,-0.001539
842,-0.019087,-0.07499,-0.001539
843,-0.019087,-0.109668,-0.001539
844,0.050004,-0.265715,-0.0208
845,0.050004,-0.421762,-0.001539
846,-0.001814,-0.387084,-0.001539
847,0.032731,-0.144345,-0.0208
848,-0.03636,0.046379,-0.0208
849,-0.019087,0.237104,-0.001539
850,-0.03636,0.323796,0.017721
851,-0.053632,0.341135,-0.001539
852,0.032731,0.063718,-0.001539
853,0.015458,0.081057,-0.001539
854,0.015458,0.029041,-0.001539
855,0.101822,-0.144345,-0.001539
856,0.084549,-0.213699,-0.001539
857,0.015458,-0.179022,0.017721
858,-0.209086,-0.040313,-0.001539
859,-0.122723,0.115734,-0.001539
860,-0.03636,0.410489,-0.001539
861,-0.019087,0.323796,-0.04006
862,-0.088178,0.115734,0.017721
863,-0.070905,-0.07499,-0.0208
864,-0.053632,-0.231037,-0.001539
865,-0.10545,-0.179022,-0.001539
866,-0.001814,-0.161683,-0.001539
867,0.015458,-0.456439,-0.001539
868,-0.03636,-0.352407,-0.001539
869,0.050004,-0.213699,-0.0208
870,0.101822,0.115734,0.017721
871,0.015458,0.375812,-0.001539
872,-0.070905,0.462505,0.017721
873,-0.019087,0.410489,-0.001539
874,-0.053632,0.167749,-0.001539
875,-0.053632,0.029041,-0.0208
876,-0.053632,-0.057652,-0.001539
877,-0.001814,-0.040313,-0.001539
878,0.067276,-0.022975,-0.001539
879,0.050004,0.011702,-0.0208
880,0.050004,0.081057,-0.001539
881,0.050004,0.185088,-0.001539
882,0.015458,-0.022975,-0.001539
883,-0.03636,-0.057652,-0.0208
884,-0.03636,-0.092329,-0.001539
885,-0.019087,-0.109668,-0.001539
886,-0.019087,-0.022975,-0.001539
887,-0.001814,0.046379,-0.04006
888,0.015458,0.046379,-0.001539
889,0.015458,0.011702,-0.0208
890,-0.001814,-0.005636,-0.0208
891,-0.019087,-0.057652,0.017721
892,-0.019087,-0.040313,-0.001539
893,-0.001814,-0.144345,0.017721
894,-0.053632,-0.231037,-0.001539
895,-0.053632,-0.265715,-0.001539
896,-0.019087,-0.127006,-0.0208
897,-0.001814,0.063718,-0.001539
898,-0.001814,0.289119,-0.001539
899,0.015458,0.271781,-0.001539
900,-0.001814,0.063718,-0.001539
901,-0.019087,-0.005636,0.017721
902,-0.019087,-0.022975,0.036981
903,-0.001814,0.011702,-0.001539
904,0.015458,0.011702,-0.001539
905,0.015458,0.063718,-0.0208
906,0.032731,0.081057,-0.001539
907,-0.001814,-0.092329,0.017721
908,-0.019087,-0.248376,-0.001539
909,-0.070905,-0.300392,-0.001539
910,-0.070905,-0.179022,-0.001539
911,-0.019087,-0.022975,-0.0208
912,-0.001814,0.237104,-0.0208
913,0.015458,0.185088,0.017721
914,0.032731,0.046379,-0.001539
915,0.032731,0.115734,-0.001539
916,-0.001814,0.254442,-0.001539
917,-0.019087,0.202426,-0.0208
918,-0.001814,0.150411,-0.001539
919,-0.053632,0.011702,-0.001539
920,-0.019087,-0.144345,-0.0208
921,0.015458,-0.127006,-0.001539
922,-0.03636,-0.092329,-0.001539
923,-0.019087,0.046379,-0.001539
924,-0.001814,0.011702,-0.001539
925,0.067276,-0.127006,-0.001539
926,-0.019087,-0.213699,-0.001539
927,0.084549,-0.352407,0.017721
928,0.015458,-0.265715,-0.001539
929,-0.10545,-0.19636,0.017721
930,-0.10545,0.011702,-0.001539
931,0.084549,0.289119,-0.001539
932,0.032731,0.375812,-0.001539
933,-0.03636,0.185088,-0.001539
934,-0.019087,0.011702,-0.001539
935,0.050004,-0.057652,-0.001539
936,0.032731,-0.057652,-0.0208
937,0.067276,-0.005636,-0.0208
938,0.084549,0.046379,-0.001539
939,0.084549,0.011702,-0.001539
940,0.050004,-0.109668,-0.001539
941,0.067276,-0.109668,-0.001539
942,0.032731,-0.057652,-0.001539
943,-0.053632,-0.040313,-0.001539
944,-0.088178,-0.005636,-0.001539
945,-0.019087,0.254442,-0.001539
946,0.015458,0.098395,-0.001539
947,0.067276,-0.109668,-0.001539
948,-0.088178,-0.179022,-0.0208
949,-0.191813,-0.057652,-0.001539
950,-0.10545,-0.040313,-0.001539
951,-0.03636,-0.005636,0.017721
952,0.050004,0.098395,-0.001539
953,0.050004,0.150411,-0.0208
954,0.015458,-0.005636,-0.001539
955,-0.070905,-0.07499,0.017721
956,-0.019087,0.011702,-0.001539
957,0.015458,-0.022975,-0.001539
958,-0.001814,0.011702,-0.001539
959,-0.03636,0.046379,-0.001539
960,-0.03636,-0.213699,-0.001539
961,-0.03636,-0.127006,-0.001539
962,-0.03636,-0.022975,-0.001539
963,-0.019087,0.063718,-0.001539
964,-0.03636,0.081057,-0.0208
965,-0.03636,0.081057,-0.0208
966,-0.03636,-0.144345,-0.001539
967,-0.001814,-0.300392,-0.001539
968,-0.001814,-0.231037,-0.001539
969,0.015458,-0.057652,-0.001539
970,-0.001814,0.063718,-0.001539
971,0.015458,0.375812,-0.0208
972,0.015458,0.341135,0.017721
973,0.015458,0.081057,-0.001539
974,0.032731,-0.040313,-0.001539
975,0.015458,-0.092329,0.017721
976,-0.001814,-0.057652,0.017721
977,-0.03636,-0.005636,-0.0208
978,-0.001814,0.081057,-0.0208
979,-0.019087,0.115734,-0.0208
980,-0.001814,0.081057,-0.0208
981,-0.03636,-0.040313,-0.001539
982,-0.070905,-0.057652,-0.001539
983,-0.019087,-0.07499,-0.001539
984,-0.03636,-0.040313,-0.001539
985,-0.019087,0.063718,0.017721
986,-0.001814,-0.109668,-0.001539
987,-0.001814,-0.31773,-0.001539
988,0.015458,-0.231037,-0.001539
989,0.015458,-0.127006,-0.001539
990,-0.001814,0.011702,-0.001539
991,-0.019087,0.185088,-0.0208
992,0.015458,0.393151,-0.001539
993,0.015458,0.289119,-0.001539
994,0.015458,0.427828,-0.001539
995,0.015458,0.150411,-0.001539
996,-0.019087,-0.040313,0.017721
997,0.015458,-0.213699,-0.001539
998,-0.001814,-0.19636,-0.0208
999,0.050004,-0.161683,-0.001539
1000,0.032731,-0.092329,-0.001539
1001,-0.001814,-0.144345,-0.001539
1002,-0.053632,-0.179022,-0.001539
1003,0.032731,-0.040313,-0.001539
1004,-0.001814,0.011702,-0.001539
1005,-0.001814,0.029041,-0.001539
1006,0.015458,0.133072,-0.0208
1007,0.015458,0.202426,-0.001539
1008,0.015458,0.063718,-0.001539
1009,-0.001814,-0.005636,-0.001539
1010,-0.001814,-0.040313,-0.0208
1011,-0.03636,-0.040313,-0.0208
1012,-0.001814,-0.040313,-0.001539
1013,0.032731,-0.005636,-0.001539
1014,-0.001814,0.011702,-0.001539
1015,-0.019087,-0.022975,-0.001539
1016,-0.03636,-0.057652,-0.001539
1017,-0.03636,-0.040313,-0.001539
1018,-0.019087,-0.057652,-0.001539
1019,-0.019087,-0.057652,-0.001539
1020,0.015458,0.029041,-0.001539
1021,-0.019087,-0.022975,-0.001539
1022,-0.03636,-0.005636,-0.001539
1023,-0.019087,0.063718,-0.001539
1024,0.015458,-0.022975,-0.0208
1025,0.067276,-0.040313,-0.0208
1026,0.050004,-0.022975,0.017721
1027,-0.03636,-0.005636,-0.0208
1028,-0.139996,0.011702,-0.001539
1029,-0.053632,-0.040313,-0.001539
1030,-0.03636,-0.022975,-0.001539
1031,0.015458,0.029041,-0.001539
1032,0.015458,0.011702,-0.001539
1033,-0.001814,-0.005636,0.017721
1034,-0.001814,0.011702,0.017721
1035,-0.001814,0.011702,-0.001539
1036,-0.001814,-0.022975,-0.0208
1037,-0.001814,-0.005636,-0.0208
1038,-0.001814,-0.022975,-0.001539
1039,-0.001814,-0.022975,-0.001539
1040,-0.019087,-0.005636,0.017721
1041,-0.001814,0.011702,-0.001539
1042,-0.001814,-0.005636,-0.001539
1043,-0.001814,-0.005636,-0.001539
1044,0.067276,0.011702,-0.0208
1045,0.015458,0.011702,-0.0208
1046,-0.019087,-0.022975,-0.001539
1047,-0.019087,-0.005636,-0.001539
1048,-0.019087,-0.022975,-0.0208
1049,-0.019087,-0.022975,-0.001539
1050,-0.019087,-0.005636,-0.001539
1051,-0.019087,-0.040313,0.036981
1052,-0.019087,-0.022975,-0.001539
1053,-0.019087,-0.005636,-0.001539
1054,-0.001814,0.011702,-0.001539
1055,-0.001814,-0.005636,-0.001539
1056,-0.001814,-0.005636,-0.001539
1057,0.015458,-0.022975,-0.001539
1058,-0.001814,0.011702,-0.001539
1059,0.015458,-0.022975,-0.001539
1060,0.032731,-0.040313,-0.001539
1061,0.032731,-0.057652,-0.001539
1062,0.015458,-0.092329,-0.001539
1063,0.015458,-0.022975,-0.001539
1064,0.032731,0.029041,-0.0208
1065,-0.001814,0.029041,-0.001539
1066,-0.03636,0.046379,-0.001539
1067,0.015458,0.202426,-0.001539
1068,-0.001814,0.185088,-0.001539
1069,-0.019087,0.185088,-0.001539
1070,-0.019087,-0.092329,-0.001539
1071,-0.070905,-0.213699,-0.001539
1072,-0.019087,-0.109668,-0.001539
1073,-0.019087,-0.109668,-0.001539
1074,-0.001814,-0.040313,-0.001539
1075,0.015458,0.133072,-0.001539
1076,0.015458,0.046379,0.017721
1077,-0.001814,-0.005636,-0.001539
1078,-0.019087,-0.040313,-0.001539
1079,-0.001814,-0.022975,-0.0208
1080,-0.019087,-0.022975,-0.0208
1081,-0.019087,-0.022975,-0.001539
1082,-0.019087,-0.005636,-0.001539
1083,-0.001814,-0.005636,-0.001539
1084,0.015458,-0.005636,-0.001539
1085,0.015458,-0.022975,-0.0208
1086,0.015458,-0.005636,-0.001539
1087,-0.001814,-0.022975,0.017721
1088,-0.001814,0.011702,-0.001539
1089,-0.001814,-0.022975,-0.001539
1090,-0.019087,-0.057652,-0.0208
1091,-0.001814,-0.057652,-0.001539
1092,-0.019087,-0.022975,-0.001539
1093,0.015458,-0.022975,-0.0208
1094,0.015458,0.011702,-0.04006
1095,-0.019087,0.011702,-0.001539
1096,-0.001814,-0.005636,-0.001539
1097,-0.019087,0.011702,0.017721
1098,-0.019087,-0.005636,-0.001539
1099,-0.03636,0.011702,-0.001539
1100,-0.053632,0.029041,-0.001539
1101,-0.019087,0.011702,-0.0208
1102,0.015458,-0.005636,-0.001539
1103,-0.001814,-0.005636,-0.001539
1104,-0.001814,-0.005636,-0.0208
1105,-0.001814,0.011702,-0.001539
1106,0.015458,0.029041,-0.04006
1107,0.015458,0.011702,0.017721
1108,-0.019087,-0.005636,-0.001539
1109,-0.001814,0.011702,-0.001539
1110,0.015458,-0.022975,-0.001539
1111,0.032731,-0.022975,-0.001539
1112,0.015458,-0.005636,-0.001539
1113,-0.001814,-0.022975,-0.001539
1114,0.032731,-0.040313,-0.001539
1115,-0.03636,-0.005636,-0.001539
1116,0.015458,-0.022975,-0.001539
1117,0.015458,-0.022975,-0.001539
1118,0.015458,-0.005636,-0.0208
1119,-0.001814,0.029041,-0.001539
1120,-0.001814,-0.005636,-0.001539
1121,-0.019087,-0.005636,-0.001539
1122,-0.019087,0.011702,0.017721
1123,-0.001814,-0.005636,0.017721
1124,-0.019087,-0.005636,-0.001539
1125,-0.019087,0.011702,-0.0208
1126,-0.019087,-0.040313,-0.001539
1127,-0.03636,-0.092329,-0.001539
1128,-0.001814,-0.040313,-0.001539
1129,-0.03636,-0.022975,-0.001539
1130,-0.001814,0.011702,-0.001539
1131,0.015458,0.098395,-0.001539
1132,0.032731,0.081057,-0.001539
1133,-0.001814,-0.005636,-0.0208
1134,-0.001814,0.029041,-0.001539
1135,-0.019087,0.011702,-0.001539
1136,-0.001814,-0.005636,-0.001539
1137,0.032731,0.011702,-0.001539
1138,-0.001814,-0.005636,-0.0208
1139,-0.001814,-0.005636,0.017721
1140,-0.001814,-0.022975,-0.001539
1141,-0.019087,-0.022975,0.017721
1142,0.015458,-0.005636,-0.001539
1143,-0.019087,-0.022975,-0.001539
1144,-0.019087,-0.022975,-0.0208
1145,-0.001814,-0.005636,-0.0208
1146,-0.001814,-0.005636,-0.0208
1147,-0.03636,0.011702,-0.001539
1148,-0.019087,0.011702,-0.001539
1149,0.015458,0.011702,-0.001539
1150,-0.001814,-0.005636,-0.001539
1151,-0.03636,0.011702,-0.001539
1152,-0.03636,-0.005636,-0.001539
1153,-0.001814,-0.022975,-0.0208
1154,-0.001814,-0.022975,-0.001539
1155,0.015458,-0.005636,-0.001539
1156,-0.001814,-0.022975,-0.001539
1157,-0.001814,-0.005636,-0.0208
1158,0.032731,0.011702,-0.001539
1159,-0.001814,-0.005636,-0.001539
1160,-0.001814,-0.005636,-0.001539
1161,-0.001814,0.011702,0.017721
1162,-0.019087,-0.022975,0.017721
1163,0.015458,-0.022975,-0.001539
1164,0.050004,-0.005636,-0.001539
1165,0.015458,-0.005636,-0.001539
1166,0.032731,-0.022975,0.017721
1167,0.015458,-0.040313,-0.001539
1168,-0.001814,-0.005636,-0.0208
1169,-0.001814,-0.022975,-0.0208
1170,0.015458,0.011702,-0.0208
1171,0.032731,0.011702,-0.0208
1172,0.032731,-0.005636,-0.001539
1173,0.032731,-0.022975,0.017721
1174,-0.019087,0.029041,-0.001539
1175,-0.001814,-0.005636,-0.001539
1176,-0.019087,-0.005636,-0.001539
1177,-0.019087,0.011702,-0.001539
1178,-0.001814,-0.022975,-0.001539
1179,-0.001814,-0.005636,-0.001539
1180,-0.001814,-0.040313,-0.0208
1181,-0.019087,-0.022975,-0.001539
1182,-0.019087,-0.057652,-0.0208
1183,-0.001814,-0.005636,-0.001539
1184,-0.001814,-0.005636,-0.001539
1185,0.032731,-0.005636,0.017721
1186,0.015458,-0.005636,-0.001539
1187,0.032731,0.011702,-0.0208
1188,0.015458,-0.005636,-0.001539
1189,-0.001814,-0.005636,-0.0208
1190,-0.001814,0.029041,-0.001539
1191,0.032731,0.011702,-0.0208
1192,0.050004,-0.005636,-0.001539
1193,0.032731,-0.022975,0.017721
1194,0.015458,-0.022975,-0.001539
1195,-0.019087,-0.040313,-0.001539
1196,-0.019087,-0.005636,-0.001539
1197,-0.001814,0.011702,-0.001539
1198,-0.001814,-0.022975,0.017721
1199,-0.001814,-0.005636,-0.001539
1200,-0.001814,-0.005636,-0.001539
1201,-0.03636,-0.022975,-0.001539
1202,-0.001814,-0.022975,-0.0208
1203,0.015458,-0.005636,-0.0208
1204,0.015458,-0.005636,-0.0208
1205,0.032731,-0.005636,-0.001539
1206,-0.001814,-0.005636,-0.001539
1207,-0.001814,-0.005636,-0.0208
1208,-0.001814,-0.022975,-0.0208
1209,-0.019087,-0.005636,-0.001539
1210,-0.019087,-0.005636,-0.001539
1211,-0.001814,-0.005636,-0.001539
1212,0.015458,-0.022975,-0.001539
1213,-0.001814,0.011702,-0.001539
1214,-0.019087,0.011702,0.017721
1215,-0.03636,-0.022975,-0.001539
1216,-0.019087,0.011702,-0.0208
1217,-0.019087,-0.005636,-0.001539
1218,-0.03636,-0.005636,-0.0208
1219,-0.053632,-0.040313,0.017721
1220,-0.019087,-0.022975,-0.0208
1221,-0.019087,-0.040313,-0.0208
1222,-0.053632,-0.005636,-0.001539
1223,-0.019087,0.029041,-0.001539
1224,-0.03636,-0.022975,-0.001539
1225,-0.03636,-0.005636,-0.0208
1226,0.015458,0.011702,-0.0208
1227,-0.03636,0.011702,-0.001539
1228,-0.001814,-0.005636,-0.001539
1229,-0.001814,0.011702,-0.001539
1230,-0.001814,-0.005636,-0.001539
1231,0.015458,-0.005636,-0.001539
1232,-0.001814,-0.022975,-0.0208
1233,-0.001814,-0.005636,0.017721
1234,0.015458,-0.005636,-0.04006
1235,-0.001814,-0.022975,-0.001539
1236,-0.019087,0.011702,-0.001539
1237,-0.001814,-0.022975,0.017721
1238,-0.001814,-0.022975,-0.001539
1239,-0.001814,0.011702,0.017721
1240,-0.001814,-0.005636,-0.001539
1241,-0.001814,-0.022975,-0.001539
1242,-0.001814,0.011702,-0.001539
1243,0.015458,-0.005636,-0.001539
1244,-0.001814,-0.022975,-0.0208
1245,-0.019087,-0.040313,-0.001539
1246,-0.001814,-0.022975,0.017721
1247,-0.03636,-0.040313,-0.0208
1248,-0.019087,-0.005636,-0.001539
1249,-0.053632,-0.005636,-0.001539
1250,-0.019087,-0.022975,-0.001539
1251,-0.03636,-0.005636,-0.001539
1252,-0.03636,-0.005636,-0.001539
1253,0.015458,0.029041,-0.0208
1254,0.015458,0.011702,-0.001539
1255,0.015458,0.011702,-0.001539
1256,0.015458,0.011702,-0.001539
1257,0.015458,-0.005636,-0.001539
1258,-0.001814,-0.022975,-0.001539
1259,-0.001814,-0.005636,-0.0208
1260,0.015458,-0.022975,-0.001539
1261,-0.001814,-0.022975,-0.0208
1262,-0.019087,-0.005636,-0.0208
1263,0.015458,-0.040313,-0.001539
1264,-0.03636,-0.005636,-0.001539
1265,-0.019087,-0.005636,-0.0208
1266,-0.019087,0.011702,-0.001539
1267,-0.03636,-0.005636,0.017721
1268,-0.019087,0.011702,-0.0208
1269,-0.019087,0.011702,-0.001539
1270,-0.019087,-0.005636,-0.001539
1271,-0.019087,-0.005636,0.017721
1272,-0.001814,0.011702,-0.001539
1273,-0.001814,-0.022975,-0.001539
1274,-0.001814,-0.022975,-0.001539
1275,-0.001814,0.011702,-0.001539
1276,-0.03636,-0.040313,-0.001539
1277,-0.019087,-0.005636,0.017721
1278,-0.001814,-0.005636,-0.001539
1279,-0.001814,-0.005636,-0.001539
1280,-0.001814,-0.005636,-0.001539
1281,0.015458,0.029041,-0.001539
1282,0.015458,-0.005636,-0.001539
1283,-0.001814,-0.040313,-0.001539
1284,-0.001814,-0.040313,-0.0208
1285,-0.019087,-0.005636,-0.001539
1286,-0.053632,-0.022975,-0.0208
1287,-0.03636,-0.040313,-0.001539
1288,-0.001814,-0.022975,-0.001539
1289,-0.001814,-0.005636,-0.001539
1290,-0.019087,0.011702,-0.001539
1291,-0.001814,-0.005636,-0.001539
1292,-0.001814,0.029041,-0.001539
1293,-0.019087,-0.005636,-0.001539
1294,-0.019087,0.011702,-0.0208
1295,-0.001814,-0.005636,-0.001539
1296,-0.019087,-0.022975,-0.001539
1297,-0.019087,-0.057652,-0.001539
1298,-0.001814,-0.022975,-0.001539
1299,0.015458,-0.022975,-0.001539
1300,-0.001814,-0.040313,-0.001539
1301,0.015458,0.011702,-0.001539
1302,0.015458,-0.005636,-0.001539
1303,-0.019087,0.011702,-0.001539
1304,0.015458,0.011702,-0.001539
1305,-0.019087,0.029041,-0.001539
1306,-0.019087,0.011702,-0.001539
1307,-0.019087,0.011702,-0.0208
1308,-0.001814,0.029041,-0.001539
1309,-0.001814,-0.022975,-0.0208
1310,0.015458,-0.005636,-0.001539
1311,0.032731,0.011702,-0.0208
1312,0.015458,-0.057652,-0.001539
1313,-0.001814,-0.040313,0.017721
1314,-0.001814,-0.005636,-0.0208
1315,0.015458,-0.005636,-0.001539
1316,0.032731,-0.022975,-0.001539
1317,0.015458,-0.005636,-0.001539
1318,-0.019087,-0.022975,-0.001539
1319,-0.019087,0.011702,0.017721
1320,0.015458,-0.005636,-0.001539
1321,0.015458,0.029041,-0.001539
1322,-0.019087,0.029041,-0.001539
1323,-0.019087,-0.022975,-0.001539
1324,-0.019087,0.011702,-0.001539
1325,-0.019087,-0.005636,-0.001539
1326,-0.03636,-0.040313,-0.001539
1327,-0.03636,-0.022975,-0.001539
1328,-0.03636,-0.005636,-0.001539
1329,-0.03636,-0.040313,-0.001539
1330,-0.019087,-0.005636,-0.001539
1331,-0.019087,-0.005636,-0.001539
1332,-0.001814,0.011702,-0.001539
1333,-0.019087,-0.005636,-0.001539
1334,-0.019087,0.011702,-0.001539
1335,-0.019087,-0.005636,-0.0208
1336,-0.03636,0.011702,-0.001539
1337,-0.001814,0.046379,-0.001539
1338,-0.019087,-0.005636,-0.001539
1339,0.015458,-0.005636,0.017721
1340,0.015458,-0.022975,-0.001539
1341,-0.019087,0.011702,-0.0208
1342,0.015458,-0.022975,-0.001539
1343,-0.001814,-0.022975,-0.001539
1344,-0.001814,-0.005636,0.017721
1345,-0.001814,0.029041,-0.001539
1346,0.015458,-0.005636,-0.001539
1347,-0.019087,0.011702,-0.0208
1348,-0.001814,-0.005636,-0.001539
1349,-0.019087,-0.022975,-0.0208
1350,-0.019087,0.029041,-0.001539
1351,0.032731,-0.005636,0.017721
1352,-0.001814,-0.005636,-0.001539
1353,0.015458,-0.005636,-0.001539
1354,0.015458,-0.022975,0.017721
1355,-0.001814,-0.005636,-0.001539
1356,-0.001814,-0.005636,-0.0208
1357,-0.001814,0.011702,-0.001539
1358,-0.019087,0.029041,-0.001539
1359,-0.019087,-0.022975,-0.001539
1360,-0.019087,-0.005636,-0.0208
1361,-0.03636,-0.005636,-0.0208
1362,-0.019087,-0.005636,-0.0208
1363,-0.001814,0.011702,-0.001539
1364,-0.03636,-0.005636,-0.001539
1365,-0.019087,-0.022975,-0.001539
1366,-0.019087,-0.022975,-0.001539
1367,-0.019087,-0.005636,-0.001539
1368,-0.001814,-0.005636,-0.001539
1369,-0.001814,-0.022975,-0.001539
1370,-0.001814,-0.005636,-0.001539
1371,0.015458,0.029041,0.017721
1372,-0.001814,0.011702,-0.001539
1373,-0.019087,-0.005636,-0.001539
1374,-0.019087,0.029041,-0.001539
1375,-0.019087,-0.005636,-0.001539
1376,-0.001814,-0.005636,0.017721
1377,-0.001814,-0.005636,-0.001539
1378,-0.001814,-0.022975,-0.0208
1379,-0.001814,-0.022975,-0.001539
1380,-0.019087,-0.022975,-0.001539
1381,-0.001814,-0.040313,-0.001539
1382,0.015458,-0.022975,-0.001539
1383,-0.019087,-0.005636,0.017721
1384,-0.019087,-0.005636,-0.001539
1385,-0.001814,-0.022975,-0.0208
1386,-0.019087,0.011702,-0.001539
1387,-0.019087,0.011702,-0.0208
1388,-0.001814,0.029041,-0.0208
1389,-0.001814,0.011702,-0.001539
1390,-0.019087,0.011702,-0.001539
1391,-0.019087,0.011702,0.017721
1392,-0.001814,-0.005636,-0.0208
1393,0.015458,-0.005636,-0.001539
1394,-0.001814,-0.005636,-0.001539
1395,-0.001814,-0.022975,-0.001539
1396,-0.03636,-0.022975,0.017721
1397,-0.03636,-0.040313,-0.001539
1398,-0.053632,-0.040313,-0.001539
1399,-0.019087,-0.022975,0.017721
1400,-0.001814,-0.005636,-0.04006
1401,0.015458,0.011702,-0.001539
1402,0.015458,-0.005636,-0.001539
1403,-0.001814,-0.005636,-0.001539
1404,0.032731,0.029041,-0.001539
1405,-0.001814,-0.022975,0.017721
1406,-0.019087,-0.040313,-0.001539
1407,-0.019087,-0.005636,-0.001539
1408,-0.001814,-0.022975,-0.001539
1409,0.032731,-0.022975,0.017721
1410,0.015458,-0.005636,-0.001539
1411,0.015458,-0.057652,-0.0208
1412,0.015458,-0.005636,-0.001539
1413,-0.053632,-0.005636,-0.001539
1414,0.015458,0.029041,-0.001539
1415,-0.001814,-0.005636,0.017721
1416,-0.019087,0.011702,-0.001539
1417,-0.03636,-0.005636,-0.001539
1418,-0.03636,-0.022975,-0.0208
1419,-0.019087,-0.022975,-0.0208
1420,0.032731,-0.005636,-0.001539
1421,-0.001814,-0.005636,-0.001539
1422,-0.019087,-0.022975,-0.001539
1423,0.015458,0.011702,0.017721
1424,0.032731,-0.022975,-0.0208
1425,0.015458,-0.022975,0.017721
1426,0.015458,-0.005636,-0.001539
1427,0.015458,0.011702,-0.001539
1428,-0.019087,-0.005636,-0.001539
1429,-0.019087,-0.005636,-0.001539
1430,-0.001814,-0.005636,-0.001539
1431,-0.001814,-0.005636,-0.0208
1432,-0.053632,-0.022975,-0.001539
1433,-0.019087,-0.005636,-0.001539
1434,-0.070905,-0.040313,-0.001539
1435,-0.019087,-0.022975,0.017721
1436,-0.019087,-0.022975,-0.001539
1437,-0.019087,-0.005636,-0.001539
1438,-0.019087,-0.022975,-0.001539
1439,-0.001814,-0.022975,0.017721
1440,-0.001814,-0.005636,-0.001539
1441,0.050004,-0.005636,-0.001539
1442,0.015458,0.011702,0.017721
1443,-0.001814,0.011702,-0.001539
1444,-0.001814,-0.005636,-0.0208
1445,0.015458,-0.022975,-0.001539
1446,-0.001814,-0.005636,-0.001539
1447,-0.019087,-0.040313,0.017721
1448,-0.001814,-0.022975,-0.001539
1449,0.015458,-0.005636,-0.001539
1450,-0.019087,-0.005636,-0.0208
1451,-0.001814,-0.040313,-0.001539
1452,-0.03636,0.011702,0.017721
1453,-0.001814,-0.022975,-0.001539
1454,-0.001814,0.011702,0.017721
1455,-0.001814,-0.005636,-0.001539
1456,0.015458,0.081057,-0.001539
1457,0.015458,-0.022975,-0.001539
1458,-0.001814,-0.005636,-0.001539
1459,-0.001814,0.029041,0.056242
1460,0.015458,0.011702,-0.0208
1461,0.015458,-0.022975,-0.001539
1462,-0.053632,-0.040313,-0.001539
1463,-0.03636,-0.022975,-0.001539
1464,-0.03636,-0.040313,-0.001539
1465,0.015458,-0.022975,-0.001539
1466,-0.001814,-0.022975,-0.0208
1467,-0.03636,0.011702,0.017721
1468,-0.019087,-0.005636,0.017721
1469,-0.001814,-0.005636,-0.001539
1470,-0.019087,0.029041,-0.001539
1471,-0.019087,-0.005636,-0.001539
1472,-0.001814,0.029041,-0.001539
1473,-0.001814,0.011702,0.017721
1474,-0.019087,-0.022975,-0.001539
1475,-0.019087,-0.040313,-0.001539
1476,-0.001814,0.011702,-0.0208
1477,-0.001814,-0.022975,-0.0208
1478,-0.001814,-0.022975,-0.001539
1479,-0.019087,-0.022975,-0.001539
1480,-0.019087,-0.005636,-0.001539
1481,-0.001814,-0.022975,-0.001539
1482,-0.03636,-0.022975,-0.001539
1483,-0.001814,0.011702,-0.001539
1484,-0.03636,-0.005636,-0.0208
1485,0.015458,-0.005636,-0.001539
1486,0.015458,0.011702,-0.001539
1487,-0.001814,-0.005636,0.017721
1488,0.015458,-0.022975,-0.0208
1489,0.015458,-0.005636,-0.001539
1490,0.015458,-0.022975,-0.001539
1491,0.015458,-0.005636,-0.0208
1492,0.015458,-0.022975,-0.001539
1493,0.015458,0.011702,-0.0208
1494,-0.001814,-0.005636,-0.0208
1495,0.032731,-0.005636,-0.001539
1496,-0.03636,-0.005636,-0.001539
1497,-0.001814,-0.022975,-0.001539
1498,0.015458,0.011702,-0.001539
1499,-0.001814,-0.005636,-0.001539
1500,-0.001814,-0.022975,-0.001539
1501,-0.019087,-0.022975,-0.001539
1502,-0.03636,0.011702,-0.001539
1503,0.015458,-0.022975,-0.001539
1504,-0.019087,-0.022975,-0.001539
1505,-0.001814,-0.005636,-0.001539
1506,-0.019087,-0.005636,-0.001539
1507,-0.001814,-0.005636,-0.0208
1508,0.015458,0.029041,-0.001539
1509,-0.001814,0.011702,-0.0208
1510,-0.019087,-0.005636,-0.001539
1511,0.015458,-0.022975,-0.001539
1512,0.050004,0.011702,-0.001539
1513,0.015458,-0.040313,-0.001539
1514,-0.001814,-0.005636,-0.001539
1515,-0.019087,-0.022975,0.017721
1516,-0.019087,-0.040313,-0.001539
1517,-0.03636,-0.040313,-0.001539
1518,-0.019087,-0.040313,-0.001539
1519,-0.001814,-0.040313,-0.001539
1520,-0.001814,-0.022975,-0.001539
1521,-0.001814,-0.005636,-0.001539
1522,-0.019087,-0.005636,-0.001539
1523,-0.001814,-0.005636,-0.001539
1524,-0.03636,0.011702,-0.001539
1525,-0.001814,0.011702,-0.001539
1526,0.015458,-0.005636,-0.001539
1527,0.032731,-0.022975,-0.001539
1528,-0.053632,-0.005636,-0.0208
1529,-0.019087,-0.022975,-0.001539
1530,-0.019087,-0.022975,-0.001539
1531,-0.03636,-0.022975,-0.001539
1532,-0.03636,-0.005636,-0.001539
1533,-0.03636,-0.057652,-0.001539
1534,-0.019087,-0.022975,-0.001539
1535,-0.03636,0.029041,-0.001539
1536,0.015458,0.011702,0.017721
1537,0.015458,0.011702,-0.001539
1538,0.015458,0.011702,-0.0208
1539,0.015458,0.011702,-0.001539
1540,0.015458,-0.022975,-0.001539
1541,0.015458,0.011702,-0.001539
1542,-0.001814,-0.022975,-0.001539
1543,-0.03636,-0.040313,-0.001539
1544,-0.03636,-0.022975,-0.001539
1545,-0.001814,0.011702,-0.001539
1546,-0.03636,-0.040313,-0.001539
1547,-0.053632,-0.005636,-0.001539
1548,-0.019087,-0.005636,-0.001539
1549,-0.019087,0.011702,0.017721
1550,0.032731,-0.005636,-0.0208
1551,0.015458,0.029041,0.017721
1552,-0.019087,0.011702,-0.001539
1553,0.032731,-0.022975,-0.0208
1554,0.084549,0.029041,-0.001539
1555,0.050004,-0.005636,-0.001539
1556,0.015458,-0.022975,-0.0208
1557,-0.001814,-0.005636,-0.001539
1558,-0.053632,-0.005636,-0.001539
1559,-0.088178,-0.057652,-0.001539
1560,-0.088178,-0.005636,-0.001539
1561,-0.019087,-0.005636,-0.001539
1562,0.067276,0.029041,-0.0208
1563,0.101822,-0.005636,-0.001539
1564,-0.019087,-0.005636,-0.001539
1565,-0.053632,0.011702,0.017721
1566,-0.088178,-0.005636,-0.001539
1567,-0.070905,-0.005636,0.017721
1568,-0.03636,-0.040313,-0.001539
1569,-0.019087,-0.022975,-0.001539
1570,-0.03636,-0.022975,-0.001539
1571,0.015458,0.011702,-0.0208
1572,0.015458,-0.022975,-0.0208
1573,0.032731,-0.022975,-0.0208
1574,0.015458,0.011702,-0.0208
1575,-0.001814,-0.005636,-0.001539
1576,0.032731,-0.022975,-0.0208
1577,-0.001814,-0.005636,-0.001539
1578,-0.001814,0.011702,-0.001539
1579,0.015458,-0.005636,-0.001539
1580,-0.019087,-0.005636,-0.001539
1581,-0.001814,-0.022975,-0.001539
1582,0.015458,-0.022975,-0.0208
1583,0.015458,-0.022975,-0.001539
1584,-0.001814,-0.005636,-0.001539
1585,-0.03636,-0.022975,-0.001539
1586,-0.019087,-0.022975,-0.001539
1587,-0.019087,0.011702,-0.001539
1588,-0.019087,0.029041,-0.04006
1589,0.032731,-0.005636,0.017721
1590,0.015458,-0.005636,-0.001539
1591,-0.03636,-0.005636,-0.001539
1592,-0.001814,-0.005636,-0.0208
1593,0.015458,-0.005636,-0.001539
1594,-0.019087,0.011702,-0.001539
1595,-0.001814,-0.022975,-0.001539
1596,-0.001814,-0.022975,-0.0208
1597,-0.019087,-0.022975,-0.001539
1598,-0.001814,-0.022975,-0.04006
1599,-0.03636,-0.040313,-0.001539
1600,-0.03636,-0.022975,-0.001539
1601,-0.019087,0.011702,0.017721
1602,-0.001814,0.011702,-0.001539
1603,0.015458,0.011702,-0.001539
1604,-0.001814,0.011702,-0.001539
1605,-0.001814,0.011702,-0.001539
1606,-0.019087,0.029041,-0.001539
1607,-0.03636,0.011702,-0.0208
1608,-0.03636,-0.022975,-0.0208
1609,-0.03636,-0.040313,-0.0208
1610,-0.001814,-0.040313,-0.0208
1611,-0.019087,-0.022975,-0.001539
1612,-0.03636,-0.040313,-0.001539
1613,-0.019087,-0.022975,-0.0208
1614,-0.03636,-0.005636,-0.001539
1615,-0.019087,-0.022975,-0.001539
1616,-0.019087,-0.005636,-0.001539
1617,-0.019087,-0.005636,-0.001539
1618,0.032731,0.011702,-0.001539
1619,-0.001814,0.029041,-0.001539
1620,0.015458,-0.005636,-0.001539
1621,0.015458,0.011702,-0.001539
1622,0.032731,-0.005636,-0.0208
1623,-0.019087,-0.022975,0.017721
1624,0.015458,0.011702,-0.001539
1625,0.032731,-0.022975,-0.04006
1626,0.015458,-0.022975,-0.0208
1627,-0.019087,0.011702,-0.001539
1628,-0.053632,-0.022975,-0.001539
1629,-0.001814,-0.022975,-0.001539
1630,-0.053632,-0.005636,-0.001539
1631,-0.001814,-0.005636,0.017721
1632,-0.019087,0.011702,-0.001539
1633,-0.001814,0.011702,-0.001539
1634,-0.03636,0.011702,-0.001539
1635,-0.001814,-0.005636,-0.001539
1636,0.015458,-0.040313,-0.0208
1637,-0.053632,-0.022975,-0.001539
1638,-0.019087,-0.040313,0.017721
1639,-0.001814,-0.022975,-0.001539
1640,-0.001814,0.011702,-0.001539
1641,-0.001814,-0.022975,-0.001539
1642,-0.001814,-0.005636,-0.001539
1643,0.015458,0.011702,-0.0208
1644,0.032731,0.029041,-0.001539
1645,0.015458,-0.022975,-0.001539
1646,-0.001814,-0.005636,-0.0208
1647,-0.001814,-0.005636,-0.001539
1648,-0.001814,-0.022975,-0.001539
1649,-0.019087,-0.057652,-0.001539
1650,-0.03636,-0.040313,-0.001539
1651,-0.019087,-0.022975,-0.001539
1652,-0.03636,-0.005636,-0.001539
1653,-0.019087,0.011702,-0.001539
1654,-0.019087,0.011702,-0.0208
1655,0.015458,0.011702,-0.001539
1656,0.015458,-0.005636,-0.001539
1657,-0.001814,0.011702,0.017721
1658,-0.001814,-0.022975,-0.0208
1659,-0.001814,0.011702,-0.001539
1660,-0.019087,-0.022975,-0.001539
1661,-0.019087,-0.057652,-0.001539
1662,-0.019087,-0.144345,-0.0208
1663,-0.03636,-0.07499,-0.001539
1664,-0.019087,-0.040313,-0.001539
1665,-0.019087,-0.022975,-0.001539
1666,0.015458,-0.022975,-0.001539
1667,0.015458,-0.022975,0.017721
1668,-0.001814,0.029041,-0.001539
1669,-0.001814,0.046379,-0.001539
1670,-0.001814,0.011702,-0.001539
1671,0.015458,0.029041,-0.001539
1672,-0.001814,0.046379,-0.001539
1673,0.015458,0.046379,-0.001539
1674,0.015458,0.011702,-0.001539
1675,-0.03636,-0.022975,-0.001539
1676,-0.03636,0.011702,-0.0208
1677,0.032731,-0.005636,-0.001539
1678,-0.03636,-0.040313,-0.001539
1679,-0.019087,-0.005636,-0.0208
1680,-0.019087,-0.040313,0.017721
1681,-0.019087,-0.022975,-0.001539
1682,-0.03636,-0.005636,-0.001539
1683,-0.001814,0.011702,-0.0208
1684,-0.070905,-0.022975,-0.001539
1685,-0.019087,-0.005636,-0.001539
1686,-0.03636,0.011702,-0.001539
1687,0.032731,0.011702,-0.001539
1688,-0.019087,-0.022975,-0.0208
1689,-0.019087,-0.005636,0.017721
1690,-0.019087,-0.005636,-0.0208
1691,-0.001814,-0.040313,-0.001539
1692,-0.019087,-0.040313,-0.001539
1693,-0.019087,-0.040313,-0.001539
1694,-0.019087,-0.057652,-0.001539
1695,0.015458,-0.005636,-0.001539
1696,0.015458,0.011702,-0.001539
1697,-0.019087,-0.022975,-0.001539
1698,0.015458,-0.022975,-0.001539
1699,-0.019087,-0.005636,-0.001539
1700,-0.001814,-0.022975,-0.001539
1701,-0.019087,-0.005636,-0.001539
1702,-0.053632,0.029041,-0.001539
1703,0.015458,0.011702,-0.001539
1704,0.015458,-0.005636,-0.001539
1705,-0.001814,-0.022975,-0.001539
1706,0.015458,-0.022975,-0.001539
1707,-0.001814,-0.022975,-0.001539
1708,0.015458,-0.005636,-0.001539
1709,-0.001814,-0.005636,-0.0208
1710,-0.019087,-0.022975,-0.001539
1711,-0.019087,-0.005636,-0.001539
1712,-0.070905,-0.022975,-0.001539
1713,-0.001814,0.081057,-0.0208
1714,0.015458,-0.022975,-0.001539
1715,-0.019087,0.011702,0.017721
1716,-0.019087,-0.005636,-0.001539
1717,-0.019087,-0.022975,-0.001539
1718,-0.001814,-0.022975,-0.001539
1719,0.015458,-0.005636,-0.001539
1720,-0.03636,-0.040313,-0.0208
1721,-0.019087,-0.005636,-0.001539
1722,-0.019087,-0.005636,-0.001539
1723,-0.001814,-0.005636,-0.001539
1724,0.032731,-0.005636,-0.001539
1725,-0.001814,0.011702,-0.001539
1726,-0.019087,0.011702,0.017721
1727,-0.03636,-0.022975,0.017721
1728,0.015458,0.011702,-0.059321
1729,-0.001814,-0.057652,-0.0208
1730,-0.001814,0.011702,-0.001539
1731,-0.019087,-0.022975,0.017721
1732,-0.019087,-0.005636,-0.001539
1733,-0.019087,-0.005636,-0.001539
1734,0.032731,-0.022975,-0.0208
1735,-0.019087,-0.005636,-0.0208
1736,-0.001814,-0.057652,-0.001539
1737,-0.001814,-0.022975,-0.001539
1738,-0.001814,0.011702,-0.001539
1739,-0.019087,-0.022975,-0.001539
1740,-0.019087,-0.022975,-0.0208
1741,-0.019087,0.011702,0.017721
1742,-0.03636,0.029041,-0.001539
1743,-0.001814,0.029041,-0.001539
1744,-0.019087,0.029041,-0.001539
1745,-0.001814,0.029041,0.017721
1746,0.015458,-0.005636,-0.0208
1747,0.015458,-0.057652,-0.001539
1748,-0.019087,-0.005636,-0.001539
1749,0.015458,-0.022975,-0.001539
1750,-0.001814,-0.022975,-0.001539
1751,-0.019087,0.011702,-0.001539
1752,-0.001814,0.081057,-0.001539
1753,0.015458,-0.022975,-0.001539
1754,-0.019087,-0.040313,-0.001539
1755,-0.001814,-0.005636,-0.001539
1756,-0.001814,0.011702,-0.001539
1757,0.032731,0.046379,-0.001539
1758,-0.001814,0.029041,-0.001539
1759,0.015458,0.011702,-0.001539
1760,0.015458,0.011702,-0.001539
1761,-0.001814,-0.005636,-0.0208
1762,-0.03636,-0.092329,-0.001539
1763,-0.001814,-0.040313,-0.001539
1764,-0.001814,-0.005636,-0.001539
1765,-0.019087,0.011702,-0.001539
1766,-0.001814,-0.005636,-0.001539
1767,-0.001814,-0.144345,-0.001539
1768,-0.001814,-0.161683,-0.001539
1769,-0.03636,-0.144345,-0.001539
1770,-0.019087,-0.057652,-0.001539
1771,-0.001814,0.046379,-0.001539
1772,0.015458,0.063718,-0.001539
1773,0.015458,0.081057,-0.001539
1774,-0.001814,0.063718,-0.001539
1775,-0.001814,0.029041,-0.001539
1776,-0.019087,0.011702,-0.001539
1777,-0.019087,-0.005636,-0.001539
1778,-0.019087,0.011702,-0.001539
1779,-0.019087,0.011702,-0.001539
1780,-0.001814,0.011702,-0.001539
1781,-0.001814,0.011702,-0.001539
1782,-0.019087,-0.005636,-0.001539
1783,-0.001814,-0.005636,-0.001539
1784,-0.001814,0.011702,-0.0208
1785,0.015458,-0.005636,-0.001539
1786,-0.001814,-0.022975,-0.001539
1787,0.032731,-0.022975,-0.001539
1788,0.032731,-0.022975,-0.0208
1789,0.015458,-0.040313,-0.001539
1790,-0.001814,0.011702,-0.001539
1791,0.032731,0.011702,-0.001539
1792,0.015458,0.029041,-0.001539
1793,0.015458,0.011702,-0.001539
1794,0.032731,-0.005636,-0.001539
1795,0.015458,-0.005636,-0.001539
1796,-0.001814,-0.005636,-0.0208
1797,-0.03636,-0.022975,-0.001539
1798,0.015458,-0.022975,-0.001539
1799,-0.019087,-0.057652,0.017721
1800,-0.053632,-0.022975,-0.001539
1801,-0.03636,-0.005636,-0.0208
1802,-0.019087,-0.022975,-0.001539
1803,-0.019087,0.011702,-0.001539
1804,-0.001814,-0.005636,-0.001539
1805,-0.019087,0.029041,-0.0208
1806,-0.019087,-0.005636,-0.001539
1807,-0.03636,-0.005636,-0.0208
1808,-0.001814,-0.022975,-0.001539
1809,-0.001814,-0.040313,-0.001539
1810,-0.001814,-0.005636,-0.001539
1811,-0.019087,-0.040313,-0.001539
1812,-0.03636,-0.057652,-0.001539
1813,-0.019087,-0.040313,-0.001539
1814,-0.001814,-0.005636,-0.0208
1815,-0.03636,-0.005636,0.017721
1816,-0.03636,0.029041,-0.001539
1817,-0.001814,0.063718,-0.0208
1818,-0.019087,0.046379,-0.0208
1819,0.032731,0.011702,-0.001539
1820,0.032731,0.029041,-0.001539
1821,0.015458,0.011702,-0.001539
1822,-0.03636,-0.005636,-0.001539
1823,0.050004,0.011702,-0.001539
1824,0.032731,0.029041,-0.001539
1825,-0.001814,-0.022975,-0.0208
1826,0.015458,-0.022975,-0.0208
1827,0.015458,-0.022975,0.017721
1828,-0.019087,-0.07499,-0.001539
1829,-0.019087,-0.040313,-0.001539
1830,-0.019087,-0.07499,-0.001539
1831,-0.001814,-0.022975,0.017721
1832,-0.019087,-0.040313,-0.001539
1833,-0.001814,-0.005636,-0.0208
1834,-0.019087,0.011702,-0.001539
1835,-0.001814,0.011702,-0.001539
1836,0.015458,0.063718,0.017721
1837,0.015458,0.063718,-0.001539
1838,-0.001814,0.046379,-0.001539
1839,-0.001814,0.029041,-0.001539
1840,-0.001814,-0.005636,-0.001539
1841,0.015458,0.011702,-0.001539
1842,-0.019087,-0.07499,-0.001539
1843,-0.019087,-0.161683,0.017721
1844,-0.019087,-0.144345,-0.001539
1845,-0.053632,-0.109668,-0.001539
1846,-0.019087,0.011702,-0.001539
1847,-0.019087,0.081057,-0.001539
1848,-0.019087,-0.005636,-0.001539
1849,-0.019087,0.029041,0.017721
1850,-0.019087,0.081057,0.017721
1851,-0.019087,0.046379,-0.001539
1852,0.015458,0.063718,-0.0208
1853,-0.001814,0.029041,-0.04006
1854,0.015458,-0.022975,-0.001539
1855,-0.001814,-0.07499,-0.0208
1856,-0.019087,-0.07499,-0.001539
1857,-0.001814,-0.022975,-0.001539
1858,-0.001814,-0.005636,-0.001539
1859,-0.001814,0.029041,-0.001539
1860,-0.001814,0.063718,-0.001539
1861,0.015458,0.029041,-0.001539
1862,-0.001814,0.029041,-0.001539
1863,-0.001814,-0.005636,-0.001539
1864,-0.019087,-0.057652,0.017721
1865,-0.001814,-0.057652,-0.001539
1866,0.015458,-0.022975,-0.001539
1867,0.015458,-0.005636,-0.001539
1868,0.015458,-0.040313,-0.0208
1869,-0.001814,0.011702,-0.001539
1870,-0.001814,-0.005636,-0.001539
1871,0.015458,-0.022975,-0.0208
1872,0.015458,-0.005636,-0.001539
1873,0.015458,0.011702,-0.001539
1874,-0.019087,0.011702,-0.001539
1875,-0.019087,-0.005636,-0.001539
1876,-0.019087,0.011702,-0.001539
1877,-0.019087,-0.022975,-0.001539
1878,-0.03636,-0.040313,-0.001539
1879,0.015458,0.011702,-0.0208
1880,-0.019087,-0.005636,-0.001539
1881,0.015458,-0.022975,-0.001539
1882,-0.001814,-0.022975,-0.0208
1883,-0.001814,0.011702,-0.001539
1884,-0.019087,-0.040313,-0.001539
1885,-0.001814,-0.022975,-0.001539
1886,0.015458,-0.005636,-0.001539
1887,-0.001814,-0.005636,0.017721
1888,-0.019087,0.011702,-0.001539
1889,-0.03636,0.029041,0.017721
1890,-0.001814,-0.005636,0.017721
1891,-0.03636,-0.005636,-0.001539
1892,-0.019087,-0.005636,-0.0208
1893,-0.019087,-0.022975,-0.001539
1894,-0.019087,-0.022975,-0.001539
1895,-0.001814,-0.005636,-0.0208
1896,-0.001814,0.011702,-0.0208
1897,0.015458,-0.022975,-0.001539
1898,0.015458,-0.005636,-0.001539
1899,0.050004,-0.005636,-0.001539
1900,-0.001814,0.029041,-0.001539
1901,-0.001814,0.011702,-0.001539
1902,-0.019087,0.029041,-0.001539
1903,-0.019087,-0.005636,-0.001539
1904,-0.019087,-0.057652,-0.001539
1905,-0.03636,0.011702,-0.0208
1906,-0.001814,0.029041,-0.0208
1907,0.050004,0.029041,-0.001539
1908,0.015458,0.081057,-0.001539
1909,0.015458,0.046379,-0.001539
1910,0.032731,-0.022975,-0.001539
1911,0.015458,-0.057652,-0.001539
1912,-0.001814,-0.057652,-0.001539
1913,-0.019087,-0.040313,0.017721
1914,-0.001814,-0.005636,-0.001539
1915,-0.001814,0.011702,-0.001539
1916,-0.001814,0.029041,-0.001539
1917,-0.001814,-0.005636,-0.001539
1918,0.032731,0.029041,-0.001539
1919,-0.019087,-0.022975,-0.001539
1920,-0.001814,-0.022975,-0.001539
1921,-0.019087,-0.022975,-0.001539
1922,-0.019087,-0.005636,-0.001539
1923,-0.001814,-0.07499,-0.001539
1924,-0.019087,-0.057652,0.036981
1925,-0.019087,-0.040313,-0.0208
1926,-0.019087,0.011702,-0.04006
1927,-0.019087,0.029041,0.017721
1928,-0.019087,0.081057,-0.001539
1929,-0.019087,0.081057,-0.001539
1930,-0.001814,0.063718,-0.001539
1931,0.015458,0.081057,-0.001539
1932,0.015458,-0.005636,-0.001539
1933,0.015458,-0.040313,-0.001539
1934,-0.001814,-0.127006,0.017721
1935,0.015458,-0.057652,-0.0208
1936,0.015458,-0.040313,-0.001539
1937,-0.019087,-0.005636,-0.001539
1938,0.015458,0.011702,-0.001539
1939,-0.001814,0.011702,0.017721
1940,-0.03636,-0.005636,0.017721
1941,0.032731,0.011702,-0.0208
1942,-0.001814,0.029041,-0.001539
1943,-0.019087,-0.005636,-0.04006
1944,-0.001814,0.011702,-0.0208
1945,0.032731,-0.022975,-0.001539
1946,-0.001814,-0.022975,-0.001539
1947,-0.001814,-0.022975,-0.001539
1948,-0.001814,-0.022975,-0.001539
1949,-0.001814,-0.040313,-0.001539
1950,-0.001814,-0.022975,-0.001539
1951,-0.001814,0.011702,-0.001539
1952,-0.019087,0.029041,-0.0208
1953,-0.019087,0.011702,-0.001539
1954,-0.019087,0.011702,-0.001539
1955,-0.001814,0.011702,-0.0208
1956,-0.001814,-0.022975,-0.001539
1957,-0.019087,0.011702,-0.001539
1958,-0.03636,0.011702,-0.04006
1959,-0.001814,0.011702,-0.001539
1960,-0.019087,0.081057,-0.0208
1961,-0.019087,-0.005636,-0.001539
1962,-0.019087,-0.040313,-0.001539
1963,-0.001814,-0.005636,-0.001539
1964,0.015458,-0.005636,-0.001539
1965,-0.019087,-0.005636,-0.0208
1966,-0.019087,-0.022975,-0.0208
1967,-0.001814,0.029041,-0.0208
1968,-0.03636,0.046379,-0.001539
1969,-0.03636,-0.005636,-0.0208
1970,-0.019087,0.011702,-0.0208
1971,-0.001814,0.011702,-0.001539
1972,0.015458,-0.005636,0.017721
1973,-0.019087,-0.005636,-0.0208
1974,-0.001814,-0.005636,-0.0208
1975,0.015458,0.011702,-0.001539
1976,-0.001814,-0.005636,-0.001539
1977,0.015458,-0.005636,-0.0208
1978,0.015458,-0.022975,-0.001539
1979,0.015458,-0.040313,-0.04006
1980,-0.001814,-0.040313,-0.001539
1981,-0.001814,-0.040313,-0.001539
1982,-0.03636,-0.022975,-0.0208
1983,-0.03636,0.011702,-0.001539
1984,-0.019087,-0.005636,-0.001539
1985,-0.019087,0.011702,-0.001539
1986,0.015458,-0.005636,0.017721
1987,0.032731,-0.022975,-0.001539
1988,0.032731,-0.005636,-0.0208
1989,0.015458,-0.005636,-0.0208
1990,0.032731,0.011702,-0.001539
1991,0.015458,0.011702,-0.001539
1992,-0.019087,-0.005636,-0.0208
1993,-0.019087,-0.022975,-0.001539
1994,-0.019087,-0.022975,-0.001539
1995,-0.001814,-0.022975,-0.001539
1996,-0.019087,-0.005636,-0.0208
1997,0.032731,0.011702,-0.0208
1998,-0.001814,0.011702,-0.0208
1999,-0.019087,-0.005636,-0.001539
2000,-0.001814,-0.022975,-0.0208
2001,0.015458,0.011702,-0.0208
2002,0.015458,-0.057652,-0.001539
2003,-0.001814,-0.092329,0.017721
2004,-0.001814,-0.057652,-0.001539
2005,-0.001814,-0.057652,-0.0208
2006,0.015458,0.011702,-0.001539
2007,-0.019087,0.063718,-0.001539
2008,-0.001814,0.115734,-0.001539
2009,-0.001814,0.098395,-0.001539
2010,-0.001814,0.063718,-0.001539
2011,-0.001814,0.011702,-0.001539
2012,-0.001814,-0.040313,-0.001539
2013,-0.019087,-0.092329,-0.001539
2014,-0.001814,-0.022975,-0.001539
2015,-0.001814,-0.022975,-0.001539
2016,-0.019087,-0.057652,-0.001539
2017,-0.053632,-0.005636,0.017721
2018,-0.03636,-0.022975,-0.0208
2019,-0.019087,-0.005636,-0.001539
2020,-0.001814,0.011702,-0.001539
2021,-0.053632,0.029041,-0.001539
2022,0.015458,0.063718,-0.001539
2023,0.015458,0.046379,-0.0208
2024,-0.001814,0.011702,-0.001539
2025,-0.001814,-0.022975,-0.001539
2026,-0.001814,-0.07499,-0.001539
2027,-0.019087,-0.144345,-0.001539
2028,-0.001814,-0.179022,-0.001539
2029,-0.001814,-0.092329,-0.001539
2030,-0.019087,-0.005636,-0.001539
2031,-0.019087,0.063718,-0.001539
2032,-0.001814,0.150411,-0.001539
2033,-0.019087,0.185088,-0.001539
2034,0.015458,0.133072,-0.001539
2035,0.015458,0.081057,-0.0208
2036,-0.001814,0.011702,-0.001539
2037,-0.001814,-0.057652,0.017721
2038,-0.03636,-0.092329,-0.001539
2039,0.050004,-0.07499,-0.0208
2040,-0.019087,-0.022975,-0.001539
2041,-0.019087,-0.022975,-0.001539
2042,-0.001814,-0.040313,-0.001539
2043,-0.001814,-0.057652,-0.001539
2044,0.015458,-0.057652,-0.0208
2045,0.015458,-0.057652,-0.0208
2046,-0.053632,-0.022975,-0.001539
2047,-0.019087,-0.005636,-0.001539
2048,-0.019087,-0.022975,-0.0208
2049,-0.019087,0.011702,-0.001539
2050,-0.001814,0.011702,-0.0208
2051,0.015458,0.011702,-0.001539
2052,0.032731,-0.022975,-0.001539
2053,0.015458,0.011702,-0.0208
2054,0.015458,0.011702,-0.001539
2055,-0.03636,-0.005636,-0.001539
2056,0.015458,-0.022975,-0.001539
2057,-0.001814,-0.005636,-0.001539
2058,-0.001814,-0.040313,-0.001539
2059,-0.019087,-0.022975,-0.001539
2060,-0.019087,-0.022975,-0.001539
2061,-0.019087,-0.040313,0.017721
2062,-0.019087,-0.022975,-0.001539
2063,-0.019087,0.011702,-0.001539
2064,-0.001814,0.011702,-0.001539
2065,-0.019087,0.011702,-0.001539
2066,-0.001814,0.011702,-0.001539
2067,-0.001814,0.011702,-0.0208
2068,0.015458,0.011702,-0.04006
2069,-0.001814,-0.005636,-0.001539
2070,0.050004,0.011702,-0.001539
2071,-0.001814,-0.022975,-0.001539
2072,-0.001814,-0.022975,-0.001539
2073,-0.001814,-0.022975,-0.0208
2074,-0.019087,-0.040313,-0.0208
2075,-0.019087,-0.040313,-0.001539
2076,-0.001814,-0.057652,-0.001539
2077,-0.019087,-0.040313,-0.001539
2078,-0.019087,-0.040313,-0.001539
2079,-0.019087,-0.005636,-0.0208
2080,-0.001814,0.046379,-0.001539
2081,-0.019087,0.029041,-0.001539
2082,0.015458,0.029041,-0.0208
2083,0.015458,0.011702,-0.001539
2084,-0.001814,0.011702,-0.001539
2085,0.032731,-0.005636,-0.001539
2086,0.015458,0.011702,-0.001539
2087,-0.001814,-0.022975,-0.0208
2088,0.015458,-0.022975,-0.001539
2089,0.015458,-0.022975,-0.001539
2090,-0.001814,0.011702,-0.001539
2091,0.032731,0.011702,-0.001539
2092,0.015458,0.011702,-0.001539
2093,-0.001814,0.011702,0.017721
2094,-0.001814,-0.022975,-0.001539
2095,-0.019087,-0.022975,-0.0208
2096,-0.019087,0.011702,-0.001539
2097,-0.03636,-0.005636,-0.001539
2098,-0.019087,-0.040313,-0.001539
2099,-0.019087,-0.022975,-0.001539
2100,-0.019087,-0.040313,-0.0208
2101,-0.03636,-0.040313,-0.001539
2102,0.015458,-0.022975,-0.001539
2103,-0.001814,0.011702,-0.001539
2104,-0.001814,0.011702,-0.001539
2105,-0.019087,0.029041,-0.001539
2106,0.015458,0.046379,-0.001539
2107,0.032731,0.046379,-0.001539
2108,-0.019087,-0.005636,0.017721
2109,-0.019087,0.011702,-0.0208
2110,-0.001814,-0.005636,-0.0208
2111,-0.001814,-0.057652,-0.001539
2112,0.015458,-0.057652,-0.001539
2113,-0.019087,-0.057652,-0.0208
2114,-0.019087,-0.07499,-0.001539
2115,-0.019087,-0.057652,-0.001539
2116,-0.019087,-0.057652,-0.001539
2117,-0.03636,-0.022975,-0.001539
2118,0.015458,-0.057652,-0.001539
2119,0.067276,0.011702,-0.001539
2120,-0.001814,-0.005636,-0.001539
2121,-0.001814,-0.022975,-0.001539
2122,-0.001814,0.046379,-0.001539
2123,-0.001814,0.063718,-0.001539
2124,-0.03636,0.063718,-0.001539
2125,-0.070905,0.063718,-0.001539
2126,-0.03636,0.063718,-0.001539
2127,-0.019087,-0.005636,0.017721
2128,0.015458,-0.022975,-0.001539
2129,0.032731,-0.005636,0.017721
2130,0.015458,0.029041,0.017721
2131,-0.001814,-0.022975,-0.0208
2132,-0.019087,0.011702,-0.001539
2133,-0.03636,0.011702,-0.001539
2134,-0.03636,0.011702,-0.0208
2135,0.015458,0.011702,-0.001539
2136,-0.001814,0.011702,-0.001539
2137,0.015458,-0.005636,-0.001539
2138,0.015458,-0.022975,-0.001539
2139,-0.001814,-0.005636,-0.001539
2140,-0.001814,-0.022975,-0.001539
2141,-0.001814,-0.040313,-0.001539
2142,-0.001814,-0.005636,-0.001539
2143,-0.019087,-0.005636,-0.001539
2144,-0.03636,-0.057652,0.017721
2145,-0.019087,-0.022975,0.017721
2146,-0.019087,0.011702,-0.0208
2147,-0.001814,0.029041,-0.001539
2148,-0.001814,-0.005636,-0.0208
2149,-0.019087,0.011702,-0.0208
2150,0.032731,0.011702,-0.001539
2151,-0.001814,0.011702,-0.0208
2152,0.015458,0.046379,-0.001539
2153,0.015458,0.011702,-0.001539
2154,0.015458,-0.022975,-0.001539
2155,0.032731,-0.022975,-0.001539
2156,-0.019087,-0.005636,-0.001539
2157,-0.019087,-0.022975,0.017721
2158,-0.03636,-0.022975,-0.001539
2159,-0.053632,0.011702,-0.001539
2160,-0.03636,-0.005636,-0.0208
2161,-0.03636,-0.040313,-0.001539
2162,-0.03636,-0.005636,-0.0208
2163,-0.019087,-0.022975,0.017721
2164,-0.001814,-0.040313,-0.001539
2165,-0.019087,0.011702,-0.001539
2166,0.015458,-0.005636,-0.0208
2167,-0.001814,0.011702,-0.001539
2168,-0.001814,-0.005636,-0.001539
2169,-0.019087,-0.005636,-0.001539
2170,-0.001814,-0.022975,-0.001539
2171,0.015458,-0.022975,-0.0208
2172,0.015458,-0.022975,-0.001539
2173,0.032731,0.029041,-0.001539
2174,-0.019087,-0.022975,-0.001539
2175,-0.019087,-0.005636,-0.0208
2176,-0.019087,0.011702,-0.0208
2177,0.015458,-0.022975,-0.001539
2178,-0.001814,-0.005636,-0.0208
2179,-0.019087,-0.022975,-0.001539
2180,-0.019087,-0.022975,-0.001539
2181,-0.019087,-0.022975,-0.001539
2182,-0.001814,-0.005636,-0.0208
2183,-0.03636,-0.022975,-0.0208
2184,-0.053632,-0.022975,-0.001539
2185,-0.019087,-0.005636,-0.0208
2186,-0.001814,0.029041,-0.001539
2187,-0.001814,0.011702,-0.0208
2188,-0.001814,0.029041,-0.0208
2189,-0.001814,0.029041,-0.001539
2190,-0.019087,-0.040313,-0.0208
2191,-0.019087,-0.040313,-0.0208
2192,-0.03636,-0.040313,-0.0208
2193,-0.001814,-0.040313,-0.001539
2194,-0.001814,-0.040313,-0.0208
2195,-0.019087,-0.005636,-0.0208
2196,-0.019087,0.011702,-0.001539
2197,-0.019087,-0.005636,-0.001539
2198,0.032731,-0.005636,-0.001539
2199,0.032731,-0.005636,-0.001539
2200,0.015458,0.011702,-0.04006
2201,-0.001814,0.011702,-0.001539
2202,-0.019087,0.011702,-0.001539
2203,0.015458,0.011702,-0.001539
2204,-0.001814,0.011702,-0.001539
2205,-0.019087,0.029041,-0.001539
2206,-0.001814,-0.022975,-0.001539
2207,-0.001814,-0.022975,-0.0208
2208,-0.001814,-0.040313,-0.0208
2209,0.015458,0.011702,-0.001539
2210,0.032731,-0.040313,-0.001539
2211,-0.001814,-0.040313,-0.001539
2212,-0.001814,-0.040313,-0.001539
2213,0.015458,-0.022975,-0.001539
2214,-0.019087,-0.005636,-0.0208
2215,0.032731,0.011702,-0.001539
2216,0.015458,0.011702,-0.0208
2217,-0.019087,0.029041,-0.001539
2218,-0.019087,0.029041,-0.001539
2219,-0.001814,0.011702,-0.001539
2220,-0.001814,-0.022975,-0.0208
2221,0.032731,-0.040313,-0.001539
2222,-0.001814,0.011702,-0.001539
2223,-0.001814,-0.005636,-0.001539
2224,0.015458,-0.040313,-0.001539
2225,0.050004,-0.005636,-0.0208
2226,0.050004,-0.022975,-0.001539
2227,0.015458,-0.022975,-0.001539
2228,-0.001814,-0.057652,-0.001539
2229,-0.070905,-0.07499,-0.001539
2230,-0.088178,-0.07499,-0.001539
2231,-0.053632,0.029041,-0.001539
2232,-0.001814,0.063718,-0.001539
2233,-0.019087,0.081057,-0.001539
2234,-0.053632,0.011702,-0.001539
2235,-0.001814,0.011702,-0.0208
2236,-0.001814,-0.040313,-0.001539
2237,-0.019087,-0.022975,-0.001539
2238,0.015458,-0.022975,-0.001539
2239,-0.001814,-0.005636,-0.001539
2240,0.015458,-0.022975,-0.001539
2241,0.032731,0.011702,-0.001539
2242,-0.070905,0.011702,-0.001539
2243,-0.019087,-0.022975,-0.001539
2244,-0.019087,-0.022975,-0.001539
2245,-0.03636,-0.005636,-0.001539
2246,-0.019087,-0.005636,-0.001539
2247,-0.001814,-0.005636,-0.001539
2248,-0.03636,-0.005636,-0.001539
2249,0.015458,-0.022975,-0.001539
2250,-0.001814,-0.040313,-0.001539
2251,0.015458,-0.040313,0.017721
2252,-0.001814,-0.005636,-0.001539
2253,0.015458,-0.022975,-0.001539
2254,-0.001814,-0.005636,-0.001539
2255,0.015458,0.011702,-0.001539
2256,-0.001814,-0.022975,-0.0208
2257,-0.019087,-0.005636,-0.001539
2258,-0.03636,0.011702,-0.001539
2259,-0.019087,0.029041,-0.0208
2260,-0.03636,-0.022975,-0.001539
2261,-0.001814,-0.005636,-0.0208
2262,-0.03636,-0.005636,-0.001539
2263,-0.001814,-0.022975,-0.04006
2264,-0.001814,-0.022975,0.017721
2265,-0.001814,-0.022975,-0.001539
2266,-0.001814,-0.022975,-0.001539
2267,-0.001814,-0.022975,-0.001539
2268,-0.019087,-0.005636,-0.001539
2269,-0.001814,-0.040313,-0.001539
2270,-0.001814,0.011702,-0.001539
2271,-0.001814,0.011702,-0.001539
2272,-0.019087,0.011702,-0.001539
2273,-0.03636,0.011702,-0.001539
2274,-0.03636,0.011702,-0.0208
2275,-0.019087,0.011702,-0.001539
2276,0.015458,-0.005636,-0.001539
2277,0.032731,-0.022975,0.017721
2278,0.015458,-0.022975,-0.001539
2279,0.015458,-0.005636,-0.001539
2280,0.015458,-0.040313,-0.0208
2281,0.015458,-0.022975,-0.001539
2282,0.032731,-0.005636,-0.04006
2283,-0.001814,-0.040313,-0.001539
2284,-0.019087,-0.005636,-0.001539
2285,-0.019087,0.011702,-0.001539
2286,-0.001814,0.029041,-0.001539
2287,-0.019087,0.011702,-0.0208
2288,-0.019087,0.011702,-0.001539
2289,0.015458,-0.005636,-0.001539
2290,-0.001814,0.011702,-0.001539
2291,-0.001814,0.011702,-0.001539
2292,0.015458,-0.005636,-0.001539
2293,-0.001814,-0.022975,-0.0208
2294,-0.001814,-0.040313,-0.001539
2295,-0.001814,-0.022975,-0.001539
2296,0.015458,-0.022975,0.017721
2297,0.015458,-0.005636,0.017721
2298,0.015458,-0.005636,-0.001539
2299,-0.019087,-0.040313,-0.001539
2300,-0.019087,-0.040313,-0.001539
2301,-0.019087,-0.022975,-0.0208
2302,-0.019087,0.029041,-0.001539
2303,-0.001814,0.063718,-0.001539
2304,0.015458,0.115734,-0.001539
2305,0.015458,0.081057,-0.001539
2306,-0.001814,0.011702,0.017721
2307,-0.019087,-0.07499,-0.001539
2308,-0.019087,-0.109668,-0.001539
2309,-0.019087,-0.092329,-0.001539
2310,-0.001814,-0.057652,-0.001539
2311,0.015458,-0.022975,-0.0208
2312,0.015458,-0.005636,-0.001539
2313,-0.001814,-0.005636,-0.001539
2314,0.015458,0.029041,0.017721
2315,0.015458,0.063718,-0.001539
2316,-0.001814,0.046379,-0.001539
2317,-0.019087,0.029041,-0.001539
2318,-0.019087,-0.07499,-0.001539
2319,-0.03636,-0.127006,-0.001539
2320,-0.019087,-0.07499,-0.001539
2321,-0.001814,0.011702,-0.001539
2322,0.032731,0.029041,-0.001539
2323,0.015458,0.011702,0.017721
2324,-0.019087,0.029041,-0.001539
2325,-0.03636,0.029041,-0.001539
2326,-0.019087,0.029041,-0.001539
2327,-0.001814,0.011702,-0.0208
2328,-0.001814,-0.022975,0.017721
2329,-0.001814,-0.057652,-0.001539
2330,-0.001814,-0.040313,-0.001539
2331,0.015458,-0.005636,-0.0208
2332,0.015458,-0.005636,-0.001539
2333,0.015458,0.029041,-0.0208
2334,0.015458,0.029041,0.017721
2335,-0.001814,-0.005636,-0.001539
2336,-0.019087,-0.040313,-0.001539
2337,-0.03636,-0.040313,-0.001539
2338,-0.019087,-0.022975,-0.001539
2339,-0.001814,-0.022975,-0.001539
2340,0.015458,0.011702,-0.0208
2341,-0.019087,0.029041,0.017721
2342,-0.019087,0.046379,-0.001539
2343,-0.019087,-0.005636,0.036981
2344,0.015458,0.029041,-0.001539
2345,0.015458,-0.005636,-0.0208
2346,0.015458,-0.040313,0.017721
2347,0.015458,0.011702,-0.001539
2348,0.015458,-0.005636,-0.001539
2349,-0.001814,-0.005636,0.017721
2350,0.015458,-0.022975,-0.001539
2351,-0.001814,0.011702,-0.0208
2352,0.032731,-0.005636,-0.001539
2353,-0.001814,-0.005636,-0.001539
2354,-0.001814,0.011702,-0.001539
2355,-0.019087,0.011702,-0.001539
2356,-0.019087,-0.022975,-0.0208
2357,-0.019087,0.011702,-0.001539
2358,-0.03636,0.029041,-0.0208
2359,0.032731,-0.005636,-0.001539
2360,-0.001814,0.011702,-0.001539
2361,-0.019087,-0.005636,-0.001539
2362,-0.019087,-0.022975,-0.0208
2363,-0.019087,-0.022975,-0.001539
2364,-0.019087,-0.005636,-0.001539
2365,-0.001814,-0.040313,-0.001539
2366,-0.001814,-0.040313,0.017721
2367,0.015458,-0.022975,-0.001539
2368,0.032731,-0.005636,-0.001539
2369,-0.001814,-0.005636,0.017721
2370,0.032731,-0.005636,-0.001539
2371,-0.019087,0.029041,-0.001539
2372,-0.019087,0.011702,-0.001539
2373,0.015458,0.011702,-0.001539
2374,0.032731,0.011702,-0.001539
2375,-0.019087,-0.005636,-0.001539
2376,-0.019087,-0.022975,-0.001539
2377,-0.001814,-0.040313,-0.001539
2378,-0.088178,-0.040313,-0.001539
2379,-0.019087,-0.022975,-0.001539
2380,-0.019087,-0.022975,-0.0208
2381,-0.019087,-0.005636,-0.0208
2382,0.032731,-0.040313,-0.001539
2383,-0.001814,-0.005636,-0.001539
2384,-0.001814,0.011702,-0.001539
2385,-0.001814,0.029041,-0.001539
2386,0.015458,-0.005636,-0.001539
2387,-0.019087,-0.022975,-0.0208
2388,-0.053632,-0.040313,-0.001539
2389,-0.03636,-0.040313,0.017721
2390,-0.001814,-0.022975,-0.001539
2391,0.032731,0.011702,0.017721
2392,0.015458,0.011702,-0.001539
2393,-0.001814,-0.005636,0.017721
2394,-0.001814,0.011702,-0.0208
2395,-0.019087,-0.040313,0.017721
2396,-0.03636,-0.005636,-0.001539
2397,-0.019087,-0.022975,-0.001539
2398,-0.001814,0.011702,-0.001539
2399,-0.001814,0.011702,-0.0208
2400,-0.001814,0.029041,-0.001539
2401,-0.019087,0.029041,-0.001539
2402,-0.019087,-0.005636,-0.001539
2403,-0.019087,0.011702,-0.001539
2404,0.032731,0.011702,0.017721
2405,0.032731,0.011702,-0.0208
2406,-0.001814,-0.005636,0.017721
2407,0.015458,-0.005636,-0.001539
2408,-0.019087,-0.040313,-0.0208
2409,-0.019087,-0.040313,-0.0208
2410,-0.019087,0.029041,-0.001539
2411,-0.001814,0.029041,-0.001539
2412,-0.001814,-0.005636,-0.001539
2413,0.015458,0.046379,-0.001539
2414,-0.019087,0.029041,-0.001539
2415,-0.001814,-0.040313,-0.04006
2416,-0.001814,-0.057652,-0.0208
2417,0.032731,-0.005636,-0.001539
2418,0.015458,-0.005636,-0.001539
2419,-0.001814,-0.005636,-0.001539
2420,0.015458,-0.040313,-0.001539
2421,-0.001814,-0.07499,-0.001539
2422,-0.019087,-0.144345,0.017721
2423,-0.053632,-0.07499,-0.001539
2424,-0.019087,-0.005636,-0.001539
2425,-0.019087,-0.022975,-0.0208
2426,-0.001814,0.011702,-0.001539
2427,0.015458,0.029041,-0.001539
2428,-0.001814,0.011702,-0.0208
2429,0.032731,-0.022975,-0.001539
2430,-0.019087,-0.005636,-0.0208
2431,-0.019087,-0.022975,-0.0208
2432,0.015458,-0.005636,-0.001539
2433,-0.001814,-0.022975,-0.0208
2434,0.032731,0.011702,-0.0208
2435,-0.001814,-0.005636,-0.001539
2436,0.015458,-0.005636,-0.0208
2437,-0.001814,-0.005636,-0.001539
2438,-0.053632,-0.127006,-0.001539
2439,-0.019087,-0.109668,0.017721
2440,-0.001814,-0.040313,-0.001539
2441,-0.001814,0.011702,-0.001539
2442,-0.053632,0.011702,-0.0208
2443,-0.019087,0.063718,-0.001539
2444,-0.001814,0.046379,-0.0208
2445,-0.001814,0.063718,0.017721
2446,-0.019087,0.029041,-0.001539
2447,0.032731,0.029041,-0.0208
2448,0.015458,-0.005636,-0.0208
2449,0.032731,-0.022975,-0.001539
2450,-0.019087,0.011702,-0.001539
2451,-0.001814,-0.005636,-0.001539
2452,-0.001814,-0.022975,-0.001539
2453,-0.03636,-0.040313,-0.001539
2454,-0.019087,-0.005636,-0.0208
2455,-0.03636,-0.022975,-0.001539
2456,-0.001814,0.011702,-0.001539
2457,0.015458,0.029041,-0.001539
2458,-0.001814,-0.022975,-0.04006
2459,-0.019087,-0.040313,-0.0208
2460,-0.001814,-0.005636,-0.0208
2461,-0.019087,-0.057652,-0.0208
2462,-0.001814,-0.092329,-0.001539
2463,-0.019087,-0.092329,-0.001539
2464,-0.019087,-0.040313,0.017721
2465,-0.019087,-0.040313,-0.001539
2466,-0.001814,0.011702,-0.001539
2467,-0.001814,0.046379,-0.001539
2468,0.015458,0.029041,-0.001539
2469,-0.001814,0.029041,-0.001539
2470,-0.019087,0.046379,-0.001539
2471,-0.019087,0.011702,0.017721
2472,-0.019087,-0.005636,-0.001539
2473,0.015458,0.011702,-0.001539
2474,0.015458,-0.005636,-0.001539
2475,-0.001814,-0.022975,-0.001539
2476,-0.019087,-0.057652,-0.001539
2477,-0.019087,-0.022975,-0.0208
2478,-0.019087,-0.040313,-0.001539
2479,-0.001814,-0.005636,-0.001539
2480,-0.001814,-0.005636,-0.001539
2481,-0.001814,-0.005636,-0.001539
2482,-0.019087,-0.005636,-0.0208
2483,-0.001814,0.029041,-0.0208
2484,-0.001814,0.011702,-0.001539
2485,0.050004,-0.005636,0.017721
2486,0.015458,0.029041,-0.0208
2487,-0.001814,-0.005636,-0.001539
2488,0.015458,-0.022975,-0.0208
2489,0.015458,-0.022975,-0.001539
2490,0.015458,-0.005636,-0.001539
2491,0.015458,-0.022975,-0.001539
2492,-0.019087,-0.022975,-0.001539
2493,-0.001814,-0.022975,-0.001539
2494,-0.019087,-0.022975,-0.001539
2495,-0.001814,-0.005636,-0.001539
2496,0.015458,-0.005636,-0.001539
2497,-0.03636,-0.005636,-0.001539
2498,-0.03636,-0.022975,-0.001539
2499,-0.03636,-0.005636,-0.001539
2500,-0.001814,0.011702,0.017721
2501,-0.019087,-0.005636,-0.001539
2502,-0.019087,-0.005636,-0.001539
2503,-0.019087,-0.005636,-0.001539
2504,-0.019087,-0.005636,-0.001539
2505,-0.001814,-0.022975,-0.0208
2506,-0.03636,-0.005636,-0.001539
2507,-0.053632,-0.005636,-0.001539
2508,-0.001814,-0.040313,-0.0208
2509,-0.03636,-0.005636,-0.001539
2510,-0.019087,0.029041,0.017721
2511,-0.019087,-0.022975,-0.001539
2512,0.015458,-0.005636,-0.001539
2513,-0.03636,0.011702,-0.001539
2514,-0.053632,-0.022975,-0.001539
2515,-0.019087,-0.022975,-0.001539
2516,-0.001814,-0.022975,-0.001539
2517,-0.019087,-0.022975,-0.001539
2518,-0.001814,-0.022975,0.017721
2519,0.015458,-0.005636,-0.001539
2520,0.015458,0.011702,-0.001539
2521,0.032731,-0.022975,-0.001539
2522,0.015458,-0.005636,-0.001539
2523,-0.019087,0.011702,0.017721
2524,-0.019087,-0.005636,-0.0208
2525,0.015458,-0.005636,-0.04006
2526,0.015458,0.011702,-0.001539
2527,-0.03636,-0.022975,-0.001539
2528,-0.019087,-0.022975,-0.001539
2529,-0.001814,-0.005636,-0.001539
2530,-0.001814,0.011702,-0.001539
2531,-0.001814,0.029041,-0.001539
2532,-0.001814,-0.005636,-0.001539
2533,-0.001814,-0.005636,-0.001539
2534,0.032731,-0.005636,-0.001539
2535,0.015458,-0.022975,-0.001539
2536,0.032731,-0.022975,-0.001539
2537,-0.001814,-0.040313,-0.001539
2538,-0.019087,-0.022975,-0.001539
2539,-0.019087,0.046379,-0.001539
2540,0.032731,0.063718,-0.001539
2541,0.015458,0.029041,-0.001539
2542,0.015458,-0.005636,-0.04006
2543,0.015458,-0.022975,0.017721
2544,-0.001814,-0.092329,-0.0208
2545,-0.001814,-0.109668,-0.0208
2546,0.015458,-0.057652,-0.001539
2547,0.015458,-0.040313,-0.04006
2548,-0.001814,-0.040313,0.017721
2549,-0.019087,-0.005636,0.017721
2550,-0.03636,-0.005636,-0.001539
2551,-0.001814,-0.022975,-0.001539
2552,-0.001814,-0.005636,-0.0208
2553,-0.001814,0.011702,-0.001539
2554,-0.019087,-0.022975,0.017721
2555,-0.001814,-0.040313,-0.001539
2556,0.015458,-0.005636,-0.001539
2557,-0.001814,-0.040313,-0.04006
2558,0.015458,-0.005636,-0.001539
2559,0.015458,-0.022975,0.017721
2560,-0.001814,0.011702,-0.001539
2561,-0.019087,-0.022975,-0.0208
2562,-0.001814,0.011702,-0.001539
2563,-0.001814,0.029041,0.036981
2564,-0.001814,-0.005636,0.017721
2565,-0.001814,0.011702,-0.001539
2566,-0.019087,0.011702,-0.001539
2567,-0.001814,0.029041,-0.001539
2568,0.015458,-0.005636,-0.001539
2569,-0.001814,0.029041,-0.001539
2570,-0.001814,-0.005636,-0.001539
2571,0.032731,-0.022975,-0.001539
2572,0.015458,-0.022975,0.017721
2573,-0.001814,-0.022975,0.017721
2574,-0.03636,-0.040313,-0.001539
2575,-0.001814,-0.005636,0.017721
2576,-0.001814,-0.022975,-0.0208
2577,0.015458,-0.040313,-0.001539
2578,-0.001814,-0.022975,-0.0208
2579,-0.019087,0.011702,-0.001539
2580,-0.019087,0.011702,-0.001539
2581,0.015458,-0.005636,-0.0208
2582,-0.019087,0.029041,-0.001539
2583,-0.001814,0.011702,-0.001539
2584,-0.001814,-0.005636,-0.0208
2585,-0.019087,-0.040313,-0.001539
2586,-0.019087,-0.005636,-0.0208
2587,-0.019087,-0.005636,0.017721
2588,-0.001814,-0.022975,-0.001539
2589,-0.001814,-0.005636,-0.001539
2590,-0.019087,-0.040313,-0.001539
2591,-0.001814,-0.005636,-0.001539
2592,-0.001814,-0.005636,-0.001539
2593,-0.001814,0.081057,-0.001539
2594,-0.001814,-0.005636,-0.001539
2595,-0.019087,0.011702,0.017721
2596,-0.019087,-0.022975,-0.001539
2597,-0.053632,-0.057652,-0.0208
2598,-0.019087,-0.040313,-0.001539
2599,-0.001814,-0.005636,-0.001539
2600,0.015458,-0.022975,0.017721
2601,-0.001814,-0.022975,-0.001539
2602,-0.001814,-0.022975,-0.0208
2603,0.015458,-0.040313,-0.001539
2604,0.015458,-0.005636,-0.001539
2605,0.015458,0.011702,-0.001539
2606,0.015458,-0.005636,-0.001539
2607,0.015458,-0.005636,-0.001539
2608,0.015458,0.029041,0.017721
2609,-0.019087,-0.005636,-0.001539
2610,-0.03636,-0.040313,-0.001539
2611,-0.019087,-0.040313,-0.001539
2612,-0.019087,-0.022975,-0.001539
2613,-0.03636,-0.040313,-0.001539
2614,-0.019087,-0.022975,-0.0208
2615,-0.001814,0.011702,-0.001539
2616,-0.001814,0.011702,-0.001539
2617,0.015458,0.011702,-0.001539
2618,0.050004,-0.005636,-0.001539
2619,0.015458,-0.07499,-0.001539
2620,-0.019087,-0.092329,-0.001539
2621,-0.001814,-0.022975,-0.001539
2622,-0.019087,0.011702,-0.001539
2623,-0.019087,0.011702,-0.0208
2624,-0.019087,0.029041,-0.001539
2625,-0.001814,0.029041,-0.001539
2626,-0.001814,0.029041,-0.0208
2627,0.032731,0.029041,-0.001539
2628,-0.001814,0.029041,-0.001539
2629,-0.03636,-0.005636,-0.001539
2630,-0.053632,-0.022975,-0.001539
2631,-0.019087,-0.022975,-0.001539
2632,0.032731,-0.040313,-0.001539
2633,-0.001814,-0.057652,-0.001539
2634,0.015458,-0.005636,-0.001539
2635,-0.001814,-0.022975,-0.0208
2636,0.050004,-0.022975,-0.001539
2637,0.015458,-0.040313,-0.001539
2638,0.015458,-0.022975,-0.001539
2639,-0.001814,-0.022975,-0.0208
2640,-0.019087,-0.005636,-0.001539
2641,-0.03636,-0.040313,-0.0208
2642,-0.03636,-0.07499,-0.0208
2643,-0.03636,-0.022975,-0.0208
2644,-0.03636,-0.005636,-0.001539
2645,-0.019087,0.029041,-0.001539
2646,-0.001814,-0.005636,-0.001539
2647,-0.03636,0.063718,-0.001539
2648,-0.019087,0.029041,-0.001539
2649,-0.019087,-0.005636,-0.0208
2650,-0.001814,-0.005636,-0.001539
2651,0.015458,-0.005636,-0.0208
2652,0.067276,-0.022975,-0.001539
2653,-0.019087,-0.022975,-0.001539
2654,-0.03636,-0.005636,-0.0208
2655,-0.019087,-0.005636,-0.001539
2656,-0.03636,-0.005636,-0.001539
2657,-0.03636,-0.005636,-0.001539
2658,0.015458,0.029041,-0.001539
2659,-0.001814,0.029041,-0.001539
2660,-0.053632,0.081057,-0.001539
2661,-0.001814,0.029041,0.017721
2662,-0.019087,-0.022975,-0.001539
2663,-0.088178,-0.07499,-0.001539
2664,-0.053632,-0.127006,-0.001539
2665,0.015458,-0.092329,-0.001539
2666,0.015458,-0.040313,-0.001539
2667,0.032731,-0.022975,-0.001539
2668,0.015458,-0.005636,-0.0208
2669,-0.001814,0.011702,-0.001539
2670,-0.019087,0.011702,-0.001539
2671,-0.019087,0.011702,-0.001539
2672,-0.019087,-0.022975,-0.001539
2673,-0.001814,0.029041,-0.001539
2674,-0.019087,-0.005636,-0.001539
2675,-0.001814,-0.022975,-0.001539
2676,-0.001814,-0.005636,-0.0208
2677,-0.001814,-0.022975,0.017721
2678,0.015458,-0.040313,-0.001539
2679,0.015458,-0.005636,-0.001539
2680,-0.001814,-0.022975,-0.001539
2681,-0.019087,-0.022975,-0.0208
2682,-0.001814,0.011702,-0.001539
2683,-0.019087,0.011702,-0.001539
2684,-0.001814,0.011702,-0.0208
2685,-0.001814,-0.005636,-0.001539
2686,0.015458,0.011702,-0.001539
2687,-0.001814,-0.005636,-0.001539
2688,-0.019087,-0.022975,-0.001539
2689,-0.019087,-0.022975,-0.0208
2690,0.015458,-0.022975,0.017721
2691,0.015458,-0.040313,-0.001539
2692,0.015458,-0.022975,0.017721
2693,-0.001814,-0.022975,-0.001539
2694,-0.001814,-0.022975,-0.001539
2695,0.015458,-0.005636,-0.001539
2696,-0.001814,-0.005636,-0.001539
2697,-0.03636,-0.005636,0.017721
2698,-0.001814,-0.005636,-0.0208
2699,-0.001814,0.011702,-0.001539
2700,-0.001814,0.029041,0.017721
2701,0.015458,-0.022975,-0.001539
2702,-0.001814,0.011702,-0.001539
2703,-0.001814,0.011702,-0.001539
2704,-0.019087,-0.022975,-0.001539
2705,-0.001814,0.029041,-0.001539
2706,-0.001814,0.029041,-0.001539
2707,-0.001814,-0.005636,-0.001539
2708,-0.019087,-0.057652,-0.001539
2709,-0.03636,-0.022975,-0.001539
2710,-0.019087,-0.07499,-0.001539
2711,-0.001814,-0.040313,-0.0208
2712,-0.001814,-0.005636,-0.001539
2713,-0.019087,-0.022975,-0.001539
2714,-0.019087,-0.005636,-0.001539
2715,-0.019087,-0.005636,-0.001539
2716,0.015458,0.029041,-0.001539
2717,-0.001814,0.029041,-0.001539
2718,-0.001814,-0.040313,-0.001539
2719,0.015458,-0.022975,-0.001539
2720,0.015458,-0.005636,-0.001539
2721,-0.001814,-0.005636,-0.001539
2722,-0.019087,0.046379,-0.001539
2723,0.015458,0.046379,-0.001539
2724,-0.001814,0.029041,-0.0208
2725,-0.019087,0.046379,-0.001539
2726,-0.019087,-0.005636,-0.001539
2727,-0.03636,-0.022975,-0.001539
2728,-0.001814,-0.040313,-0.001539
2729,-0.001814,-0.005636,-0.001539
2730,0.032731,-0.022975,-0.001539
2731,-0.019087,-0.005636,-0.001539
2732,0.015458,-0.005636,-0.001539
2733,0.015458,-0.022975,0.017721
2734,-0.001814,0.011702,-0.0208
2735,-0.001814,-0.005636,-0.001539
2736,-0.001814,0.011702,-0.001539
2737,0.032731,0.011702,-0.0208
2738,-0.001814,0.011702,-0.001539
2739,-0.001814,0.011702,-0.001539
2740,0.015458,-0.022975,-0.001539
2741,0.015458,-0.005636,-0.0208
2742,-0.001814,-0.022975,-0.001539
2743,-0.001814,-0.040313,-0.001539
2744,-0.019087,-0.022975,-0.001539
2745,-0.019087,-0.005636,-0.001539
2746,-0.019087,-0.005636,-0.001539
2747,-0.019087,-0.005636,-0.001539
2748,-0.03636,0.029041,-0.001539
2749,-0.053632,0.029041,-0.001539
2750,-0.019087,0.029041,-0.0208
2751,-0.019087,0.063718,-0.001539
2752,-0.001814,0.046379,-0.001539
2753,0.015458,-0.005636,0.017721
2754,-0.001814,-0.022975,-0.001539
2755,-0.001814,-0.057652,-0.0208
2756,-0.03636,-0.07499,-0.0208
2757,0.015458,-0.057652,-0.001539
2758,0.015458,-0.040313,-0.001539
2759,-0.001814,-0.057652,-0.001539
2760,-0.001814,-0.040313,-0.001539
2761,-0.001814,-0.040313,-0.001539
2762,-0.019087,-0.022975,-0.001539
2763,-0.001814,-0.022975,-0.001539
2764,-0.03636,0.029041,-0.001539
2765,-0.001814,0.029041,-0.001539
2766,-0.019087,0.029041,-0.001539
2767,-0.019087,-0.005636,-0.001539
2768,0.015458,-0.005636,-0.001539
2769,-0.019087,-0.022975,-0.001539
2770,0.032731,-0.022975,-0.0208
2771,0.015458,0.011702,-0.001539
2772,0.015458,-0.005636,-0.001539
2773,-0.001814,-0.005636,-0.0208
2774,-0.001814,0.011702,-0.0208
2775,-0.03636,0.011702,0.036981
2776,-0.019087,-0.005636,0.017721
2777,-0.019087,0.011702,-0.001539
2778,-0.001814,0.011702,-0.001539
2779,-0.019087,-0.040313,-0.001539
2780,0.015458,-0.022975,-0.001539
2781,-0.019087,-0.005636,-0.001539
2782,0.015458,0.011702,-0.0208
2783,-0.019087,-0.022975,-0.001539
2784,-0.03636,0.011702,-0.001539
2785,-0.001814,-0.005636,-0.001539
2786,-0.019087,0.011702,-0.001539
2787,-0.001814,-0.005636,-0.001539
2788,-0.001814,0.011702,-0.001539
2789,0.015458,0.011702,-0.001539
2790,-0.019087,-0.005636,-0.001539
2791,-0.001814,-0.005636,-0.001539
2792,0.015458,-0.040313,-0.001539
2793,-0.001814,-0.040313,-0.001539
2794,-0.001814,-0.005636,0.017721
2795,-0.001814,-0.005636,-0.001539
2796,-0.019087,-0.022975,-0.001539
2797,-0.001814,-0.022975,-0.001539
2798,-0.001814,-0.005636,-0.001539
2799,0.015458,-0.005636,-0.001539
2800,-0.001814,0.029041,-0.001539
2801,0.015458,0.081057,-0.001539
2802,0.015458,0.063718,-0.001539
2803,0.015458,0.029041,-0.001539
2804,-0.001814,0.029041,-0.001539
2805,-0.001814,-0.022975,-0.001539
2806,-0.03636,-0.144345,-0.001539
2807,-0.019087,-0.109668,-0.001539
2808,-0.019087,-0.057652,-0.001539
2809,-0.03636,-0.040313,0.017721
2810,-0.03636,-0.005636,-0.001539
2811,-0.019087,0.029041,0.017721
2812,-0.019087,0.011702,-0.001539
2813,-0.001814,0.011702,-0.001539
2814,-0.001814,0.011702,-0.001539
2815,-0.001814,0.011702,-0.001539
2816,-0.001814,-0.005636,-0.001539
2817,-0.001814,0.011702,-0.001539
2818,-0.019087,0.011702,-0.0208
2819,0.015458,0.011702,-0.0208
2820,-0.001814,0.046379,-0.001539
2821,-0.001814,0.011702,0.036981
2822,0.015458,-0.005636,0.017721
2823,0.015458,-0.040313,-0.001539
2824,-0.019087,-0.005636,0.017721
2825,-0.019087,-0.040313,-0.001539
2826,-0.001814,-0.022975,-0.001539
2827,-0.019087,-0.005636,0.017721
2828,-0.03636,0.011702,0.017721
2829,-0.001814,-0.022975,-0.001539
2830,-0.001814,-0.022975,-0.001539
2831,-0.001814,-0.022975,-0.001539
2832,0.015458,-0.022975,0.017721
2833,-0.001814,0.011702,-0.001539
2834,0.015458,0.011702,-0.001539
2835,-0.019087,0.029041,-0.001539
2836,-0.001814,0.029041,-0.001539
2837,-0.03636,0.029041,-0.001539
2838,-0.019087,0.046379,0.017721
2839,-0.053632,-0.022975,-0.001539
2840,-0.019087,-0.005636,-0.001539
2841,-0.001814,-0.022975,-0.001539
2842,-0.019087,-0.040313,-0.001539
2843,-0.001814,-0.022975,-0.001539
2844,-0.001814,0.011702,0.017721
2845,-0.019087,0.029041,-0.0208
2846,-0.001814,0.029041,-0.0208
2847,-0.019087,-0.005636,0.017721
2848,-0.001814,-0.022975,-0.001539
2849,-0.001814,-0.040313,-0.001539
2850,-0.001814,-0.005636,-0.001539
2851,-0.001814,-0.005636,-0.001539
2852,0.032731,-0.040313,-0.001539
2853,0.015458,-0.022975,-0.001539
2854,0.015458,-0.005636,-0.001539
2855,-0.001814,-0.022975,-0.0208
2856,0.015458,-0.005636,-0.0208
2857,-0.019087,-0.005636,-0.001539
2858,-0.019087,-0.005636,-0.001539
2859,-0.019087,0.029041,0.017721
2860,0.015458,0.029041,-0.001539
2861,0.015458,0.011702,-0.001539
2862,0.032731,-0.022975,-0.0208
2863,-0.019087,0.011702,-0.001539
2864,0.032731,-0.005636,-0.0208
2865,-0.053632,-0.022975,-0.001539
2866,0.015458,0.011702,-0.001539
2867,-0.053632,0.046379,-0.001539
2868,-0.019087,-0.022975,-0.001539
2869,-0.019087,0.011702,-0.001539
2870,-0.001814,0.011702,0.017721
2871,-0.03636,0.011702,-0.001539
2872,-0.019087,-0.005636,-0.001539
2873,-0.019087,0.011702,-0.001539
2874,-0.019087,-0.005636,-0.001539
2875,-0.019087,-0.022975,-0.001539
2876,-0.03636,0.011702,-0.0208
2877,-0.019087,-0.005636,-0.001539
2878,-0.019087,-0.022975,-0.0208
2879,-0.03636,-0.005636,-0.001539
2880,0.015458,-0.005636,-0.001539
2881,-0.019087,-0.022975,-0.001539
2882,-0.001814,0.011702,-0.001539
2883,-0.019087,0.011702,-0.001539
2884,0.015458,0.029041,-0.001539
2885,-0.001814,0.011702,-0.001539
2886,0.015458,0.029041,-0.001539
2887,0.015458,0.011702,-0.001539
2888,-0.001814,-0.005636,-0.001539
2889,0.015458,0.011702,0.017721
2890,0.015458,-0.005636,-0.001539
2891,-0.001814,-0.022975,-0.001539
2892,-0.001814,-0.040313,-0.001539
2893,-0.001814,-0.057652,-0.001539
2894,0.015458,-0.07499,-0.001539
2895,-0.001814,-0.022975,0.017721
2896,-0.001814,0.011702,-0.0208
2897,0.015458,0.029041,-0.001539
2898,0.015458,0.046379,-0.0208
2899,-0.001814,0.046379,-0.001539
2900,-0.019087,0.011702,-0.001539
2901,-0.019087,0.011702,0.017721
2902,-0.019087,0.011702,-0.0208
2903,-0.019087,0.011702,-0.0208
2904,-0.001814,-0.005636,-0.001539
2905,-0.019087,-0.040313,-0.001539
2906,-0.001814,-0.022975,0.017721
2907,-0.053632,-0.040313,-0.001539
2908,-0.03636,-0.022975,-0.001539
2909,-0.019087,0.011702,-0.001539
2910,-0.019087,0.029041,-0.001539
2911,-0.019087,-0.022975,-0.0208
2912,-0.001814,-0.005636,-0.001539
2913,-0.001814,-0.005636,-0.0208
2914,0.015458,-0.005636,-0.001539
2915,0.015458,0.011702,-0.001539
2916,-0.001814,-0.005636,-0.001539
2917,-0.001814,-0.022975,-0.001539
2918,-0.001814,-0.022975,0.017721
2919,-0.001814,-0.005636,-0.001539
2920,-0.001814,-0.005636,-0.001539
2921,-0.001814,-0.022975,-0.001539
2922,0.015458,-0.005636,-0.001539
2923,-0.001814,0.011702,-0.001539
2924,0.015458,-0.005636,-0.001539
2925,-0.001814,-0.022975,-0.0208
2926,-0.001814,0.011702,-0.0208
2927,-0.001814,-0.005636,0.017721
2928,-0.019087,-0.005636,-0.001539
2929,-0.019087,-0.022975,-0.0208
2930,0.015458,-0.005636,0.036981
2931,0.015458,-0.022975,-0.001539
2932,-0.019087,-0.022975,-0.001539
2933,-0.001814,-0.005636,-0.0208
2934,-0.03636,-0.005636,-0.0208
2935,-0.019087,-0.005636,-0.0208
2936,-0.03636,0.011702,-0.0208
2937,-0.019087,-0.022975,-0.001539
2938,-0.03636,-0.005636,-0.0208
2939,-0.03636,0.011702,0.017721
2940,-0.019087,0.029041,-0.001539
2941,-0.001814,-0.057652,-0.0208
2942,0.015458,-0.057652,-0.001539
2943,0.015458,-0.040313,-0.001539
2944,-0.001814,-0.022975,0.017721
2945,-0.019087,-0.005636,-0.001539
2946,-0.019087,0.046379,-0.0208
2947,-0.019087,0.046379,-0.0208
2948,-0.019087,0.046379,-0.0208
2949,-0.019087,0.046379,-0.001539
2950,-0.03636,-0.022975,0.017721
2951,-0.001814,-0.057652,-0.0208
2952,-0.001814,-0.040313,-0.001539
2953,-0.001814,-0.005636,-0.001539
2954,-0.019087,-0.022975,-0.001539
2955,-0.001814,-0.005636,-0.001539
2956,-0.03636,-0.057652,-0.0208
2957,-0.03636,-0.022975,-0.001539
2958,-0.019087,-0.040313,-0.001539
2959,-0.001814,-0.005636,-0.001539
2960,-0.001814,-0.022975,-0.0208
2961,-0.001814,0.011702,-0.001539
2962,-0.019087,-0.005636,-0.001539
2963,-0.001814,-0.040313,-0.001539
2964,-0.001814,-0.005636,-0.0208
2965,-0.019087,-0.005636,-0.001539
2966,0.015458,0.011702,-0.001539
2967,0.032731,-0.005636,0.017721
2968,0.015458,0.011702,-0.001539
2969,0.015458,0.029041,-0.001539
2970,0.032731,-0.005636,-0.001539
2971,-0.001814,-0.005636,-0.0208
2972,-0.001814,-0.005636,-0.001539
2973,-0.001814,-0.005636,-0.001539
2974,-0.001814,-0.022975,-0.0208
2975,-0.001814,-0.022975,-0.001539
2976,-0.001814,-0.022975,-0.0208
2977,-0.019087,-0.040313,-0.001539
2978,-0.019087,-0.022975,0.017721
2979,-0.03636,0.011702,-0.001539
2980,-0.053632,-0.022975,-0.001539
2981,-0.001814,0.011702,-0.001539
2982,-0.019087,0.011702,-0.001539
2983,-0.001814,0.011702,-0.0208
2984,0.015458,-0.005636,-0.0208
2985,-0.001814,0.029041,-0.0208
2986,0.032731,0.029041,-0.001539
2987,0.032731,-0.005636,-0.001539
2988,0.015458,-0.040313,-0.0208
2989,0.015458,-0.022975,-0.0208
2990,0.015458,-0.022975,-0.001539
2991,-0.001814,-0.022975,-0.001539
2992,-0.001814,-0.005636,0.017721
2993,-0.019087,-0.022975,-0.001539
2994,-0.019087,-0.005636,-0.001539
2995,-0.019087,-0.022975,-0.0208
2996,-0.03636,-0.057652,-0.001539
2997,-0.053632,-0.022975,-0.001539
2998,0.015458,0.046379,-0.001539
2999,-0.001814,0.011702,-0.001539
3000,-0.001814,0.029041,-0.001539
3001,-0.019087,0.029041,-0.001539
3002,0.015458,0.029041,-0.0208
3003,0.015458,-0.005636,-0.001539
3004,-0.001814,-0.022975,-0.0208
3005,0.015458,-0.005636,-0.001539
3006,-0.03636,-0.07499,-0.001539
3007,-0.019087,-0.040313,-0.0208
3008,-0.019087,-0.005636,-0.001539
3009,-0.019087,0.081057,-0.0208
3010,-0.053632,-0.005636,-0.001539
3011,-0.03636,0.029041,-0.0208
3012,-0.019087,0.029041,-0.001539
3013,-0.019087,-0.005636,-0.001539
3014,-0.019087,-0.005636,-0.001539
3015,-0.03636,0.011702,-0.001539
3016,0.015458,-0.005636,0.017721
3017,-0.001814,-0.022975,-0.001539
3018,-0.019087,-0.005636,-0.001539
3019,-0.03636,-0.005636,-0.001539
3020,-0.001814,-0.040313,0.017721
3021,-0.001814,-0.005636,-0.001539
3022,-0.019087,0.081057,-0.0208
3023,-0.019087,-0.005636,-0.0208
3024,-0.001814,-0.005636,-0.001539
3025,-0.03636,-0.005636,-0.001539
3026,-0.001814,-0.022975,-0.001539
3027,-0.03636,-0.022975,-0.0208
3028,-0.019087,0.011702,-0.0208
3029,-0.001814,-0.022975,-0.001539
3030,-0.03636,-0.022975,0.017721
3031,-0.001814,-0.040313,-0.001539
3032,0.015458,-0.057652,-0.0208
3033,-0.001814,-0.07499,-0.001539
3034,0.015458,-0.005636,-0.001539
3035,-0.001814,0.029041,-0.001539
3036,0.015458,0.029041,-0.001539
3037,-0.001814,0.046379,-0.001539
3038,0.015458,0.063718,-0.001539
3039,0.032731,0.029041,-0.001539
3040,0.015458,0.029041,-0.001539
3041,0.015458,-0.005636,-0.001539
3042,-0.001814,-0.022975,0.017721
3043,-0.019087,-0.040313,-0.001539
3044,-0.03636,-0.022975,-0.001539
3045,-0.03636,-0.040313,-0.001539
3046,-0.001814,-0.040313,-0.0208
3047,0.015458,-0.040313,-0.001539
3048,0.032731,0.011702,0.017721
3049,0.015458,0.029041,-0.001539
3050,0.015458,0.063718,-0.04006
3051,0.032731,0.063718,-0.001539
3052,0.050004,0.063718,-0.001539
3053,0.015458,0.063718,-0.001539
3054,0.032731,0.098395,-0.0208
3055,0.015458,0.011702,-0.001539
3056,-0.001814,-0.040313,-0.0208
3057,0.050004,-0.040313,-0.001539
3058,0.032731,-0.057652,-0.001539
3059,0.015458,-0.179022,-0.001539
3060,0.032731,-0.092329,-0.001539
3061,-0.001814,-0.040313,-0.001539
3062,0.015458,-0.040313,-0.001539
3063,0.032731,-0.040313,-0.001539
3064,0.015458,-0.005636,-0.001539
3065,0.015458,-0.005636,-0.001539
3066,0.015458,-0.005636,-0.0208
3067,0.015458,0.011702,0.036981
3068,0.015458,-0.005636,-0.001539
3069,0.015458,-0.005636,-0.001539
3070,-0.001814,-0.005636,-0.001539
3071,-0.001814,0.029041,-0.001539
3072,-0.001814,-0.005636,-0.001539
3073,-0.019087,0.029041,-0.001539
3074,-0.03636,-0.005636,-0.001539
3075,-0.03636,-0.005636,0.017721
3076,-0.019087,-0.109668,-0.001539
3077,-0.03636,-0.109668,-0.001539
3078,-0.03636,-0.057652,-0.001539
3079,-0.001814,-0.040313,-0.001539
3080,-0.001814,0.063718,-0.0208
3081,0.015458,0.063718,-0.001539
3082,0.032731,0.063718,-0.001539
3083,0.015458,0.063718,0.017721
3084,-0.001814,0.046379,-0.0208
3085,-0.001814,-0.005636,-0.001539
3086,0.015458,-0.005636,-0.001539
3087,-0.001814,0.011702,-0.001539
3088,-0.001814,0.011702,-0.001539
3089,0.015458,0.011702,0.056242
3090,0.015458,-0.005636,-0.001539
3091,0.015458,0.011702,-0.001539
3092,0.015458,-0.022975,-0.001539
3093,-0.001814,0.011702,-0.001539
3094,-0.019087,-0.022975,-0.0208
3095,-0.001814,-0.005636,-0.001539
3096,-0.001814,-0.005636,-0.001539
3097,-0.001814,-0.005636,-0.0208
3098,-0.001814,-0.022975,-0.0208
3099,0.015458,-0.022975,-0.001539
3100,-0.019087,-0.005636,-0.001539
3101,-0.001814,0.029041,-0.001539
3102,-0.001814,-0.005636,-0.001539
3103,-0.001814,0.011702,-0.001539
3104,-0.019087,0.029041,-0.001539
3105,-0.019087,-0.005636,-0.001539
3106,-0.019087,0.011702,-0.001539
3107,-0.03636,-0.022975,-0.001539
3108,-0.019087,-0.022975,0.017721
3109,-0.001814,-0.022975,-0.001539
3110,-0.019087,-0.022975,-0.001539
3111,-0.001814,-0.022975,-0.001539
3112,0.015458,-0.040313,-0.001539
3113,-0.001814,-0.005636,-0.001539
3114,-0.001814,0.029041,-0.001539
3115,0.050004,0.011702,-0.001539
3116,0.015458,-0.005636,-0.001539
3117,0.015458,0.011702,-0.0208
3118,-0.001814,0.011702,-0.001539
3119,0.015458,0.029041,-0.001539
3120,-0.001814,0.011702,-0.001539
3121,-0.001814,-0.005636,-0.0208
3122,-0.019087,-0.005636,-0.001539
3123,-0.019087,-0.005636,-0.001539
3124,-0.019087,-0.022975,-0.001539
3125,-0.053632,-0.040313,-0.001539
3126,0.015458,-0.022975,-0.0208
3127,0.050004,-0.005636,0.017721
3128,-0.03636,-0.022975,-0.001539
3129,-0.019087,-0.022975,-0.001539
3130,-0.001814,0.011702,-0.0208
3131,0.015458,-0.005636,-0.001539
3132,0.015458,0.011702,-0.0208
3133,0.050004,0.011702,-0.001539
3134,0.015458,-0.005636,-0.001539
3135,-0.001814,-0.005636,-0.001539
3136,-0.001814,-0.005636,-0.001539
3137,0.015458,-0.005636,-0.0208
3138,0.015458,-0.005636,-0.0208
3139,-0.001814,-0.005636,-0.0208
3140,0.032731,0.011702,-0.0208
3141,-0.001814,-0.022975,0.017721
3142,0.015458,-0.005636,-0.001539
3143,0.015458,0.029041,-0.0208
3144,-0.001814,-0.040313,-0.0208
3145,-0.001814,-0.005636,0.017721
3146,-0.001814,-0.005636,-0.001539
3147,-0.001814,-0.022975,-0.001539
3148,-0.019087,-0.040313,-0.0208
3149,-0.001814,-0.005636,-0.001539
3150,0.015458,0.011702,-0.001539
3151,0.015458,0.011702,-0.001539
3152,-0.03636,0.011702,0.017721
3153,-0.001814,0.046379,-0.001539
3154,-0.019087,0.029041,-0.001539
3155,-0.001814,0.011702,-0.001539
3156,-0.001814,0.011702,-0.001539
3157,-0.001814,-0.005636,-0.001539
3158,0.015458,-0.005636,-0.001539
3159,-0.001814,-0.022975,-0.001539
3160,-0.001814,-0.022975,-0.001539
3161,-0.03636,-0.022975,-0.001539
3162,-0.053632,-0.022975,-0.001539
3163,-0.019087,-0.005636,-0.0208
3164,-0.019087,-0.005636,-0.001539
3165,0.015458,0.029041,-0.0208
3166,-0.019087,0.046379,-0.0208
3167,0.015458,0.011702,-0.001539
3168,-0.019087,0.029041,-0.001539
3169,-0.019087,0.011702,-0.001539
3170,-0.001814,-0.040313,-0.001539
3171,0.015458,-0.040313,0.017721
3172,0.015458,0.011702,-0.001539
3173,-0.019087,-0.022975,0.017721
3174,-0.001814,-0.040313,-0.001539
3175,0.015458,-0.057652,-0.001539
3176,-0.001814,-0.07499,0.017721
3177,-0.019087,-0.109668,-0.0208
3178,-0.019087,-0.057652,-0.001539
3179,-0.019087,-0.022975,-0.001539
3180,-0.001814,-0.005636,-0.001539
3181,-0.001814,0.029041,-0.001539
3182,0.015458,0.081057,-0.0208
3183,0.015458,0.063718,-0.001539
3184,-0.001814,0.046379,-0.001539
3185,0.015458,0.046379,-0.001539
3186,-0.019087,-0.005636,-0.001539
3187,-0.019087,-0.005636,-0.001539
3188,-0.001814,-0.005636,-0.0208
3189,-0.001814,0.029041,-0.0208
3190,-0.019087,-0.022975,-0.001539
3191,0.015458,-0.005636,-0.001539
3192,-0.001814,-0.005636,-0.001539
3193,-0.019087,-0.040313,-0.001539
3194,-0.001814,0.011702,-0.001539
3195,-0.019087,0.011702,-0.001539
3196,-0.001814,0.011702,-0.001539
3197,0.015458,0.011702,-0.001539
3198,0.032731,0.011702,-0.001539
3199,-0.001814,0.011702,-0.001539
3200,-0.001814,-0.022975,-0.001539
3201,-0.001814,-0.040313,-0.001539
3202,-0.019087,-0.005636,-0.001539
3203,-0.019087,-0.005636,-0.001539
3204,-0.019087,-0.005636,-0.001539
3205,-0.019087,0.011702,-0.001539
3206,-0.019087,-0.022975,-0.001539
3207,-0.03636,-0.022975,-0.001539
3208,-0.001814,0.011702,-0.0208
3209,0.015458,0.011702,-0.0208
3210,-0.019087,-0.022975,-0.001539
3211,-0.03636,-0.005636,-0.001539
3212,-0.053632,-0.005636,0.017721
3213,-0.001814,-0.005636,-0.001539
3214,-0.001814,-0.022975,-0.001539
3215,0.015458,-0.022975,-0.0208
3216,-0.001814,-0.040313,-0.001539
3217,-0.001814,-0.005636,-0.0208
3218,-0.001814,0.029041,0.017721
3219,-0.019087,-0.022975,-0.001539
3220,-0.001814,0.011702,-0.0208
3221,0.015458,0.029041,-0.001539
3222,-0.03636,0.029041,-0.001539
3223,-0.001814,0.011702,0.017721
3224,-0.019087,-0.005636,-0.001539
3225,-0.001814,-0.005636,-0.001539
3226,0.015458,-0.022975,-0.0208
3227,-0.019087,-0.040313,-0.001539
3228,0.015458,-0.005636,-0.001539
3229,-0.019087,-0.022975,0.017721
3230,-0.001814,-0.022975,-0.001539
3231,-0.03636,-0.005636,-0.001539
3232,0.015458,-0.005636,-0.0208
3233,-0.019087,-0.005636,-0.001539
3234,-0.019087,0.029041,-0.001539
3235,-0.001814,0.011702,-0.001539
3236,0.015458,0.011702,-0.001539
3237,0.015458,0.011702,-0.001539
3238,0.015458,0.011702,-0.001539
3239,0.067276,-0.022975,-0.001539
3240,0.015458,-0.040313,-0.0208
3241,-0.001814,-0.005636,-0.001539
3242,-0.019087,-0.022975,0.017721
3243,-0.001814,-0.040313,-0.001539
3244,-0.019087,-0.005636,-0.001539
3245,-0.019087,-0.040313,-0.001539
3246,-0.03636,-0.022975,-0.0208
3247,-0.03636,-0.005636,-0.001539
3248,-0.019087,0.011702,-0.0208
3249,-0.019087,-0.005636,-0.0208
3250,-0.019087,0.011702,-0.001539
3251,-0.001814,-0.005636,-0.001539
3252,-0.001814,-0.005636,-0.001539
3253,-0.001814,-0.005636,-0.0208
3254,-0.001814,0.011702,-0.001539
3255,-0.019087,-0.022975,0.017721
3256,-0.03636,-0.040313,-0.0208
3257,-0.019087,-0.022975,-0.001539
3258,-0.001814,-0.040313,-0.001539
3259,0.015458,-0.022975,-0.001539
3260,-0.019087,-0.005636,-0.0208
3261,-0.001814,0.011702,-0.001539
3262,0.015458,-0.005636,-0.001539
3263,0.050004,0.011702,-0.001539
3264,-0.001814,0.011702,-0.001539
3265,0.015458,-0.005636,0.017721
3266,0.015458,-0.022975,-0.0208
3267,-0.019087,-0.005636,-0.001539
3268,0.015458,0.011702,-0.0208
3269,-0.001814,-0.022975,-0.001539
3270,0.015458,0.011702,-0.001539
3271,-0.001814,-0.022975,-0.001539
3272,-0.03636,-0.005636,-0.001539
3273,-0.019087,0.029041,-0.001539
3274,-0.03636,0.029041,-0.001539
3275,-0.03636,-0.022975,-0.0208
3276,-0.019087,-0.005636,0.017721
3277,-0.019087,-0.005636,-0.0208
3278,0.015458,-0.022975,-0.001539
3279,-0.001814,-0.057652,-0.001539
3280,0.015458,-0.022975,-0.0208
3281,0.015458,-0.022975,-0.001539
3282,-0.019087,-0.022975,-0.001539
3283,0.015458,-0.005636,-0.001539
3284,-0.001814,-0.022975,-0.001539
3285,-0.001814,0.029041,-0.0208
3286,-0.019087,0.011702,-0.0208
3287,0.015458,0.011702,-0.001539
3288,-0.001814,-0.005636,-0.0208
3289,-0.019087,0.011702,0.017721
3290,-0.019087,-0.005636,0.017721
3291,-0.001814,-0.022975,-0.001539
3292,-0.019087,-0.022975,-0.001539
3293,-0.019087,-0.022975,0.017721
3294,-0.053632,-0.022975,-0.001539
3295,-0.019087,-0.022975,-0.0208
3296,-0.001814,-0.005636,-0.0208
3297,-0.03636,-0.005636,-0.001539
3298,-0.001814,-0.022975,-0.001539
3299,0.015458,-0.005636,-0.001539
3300,-0.001814,0.029041,-0.001539
3301,-0.001814,0.011702,-0.001539
3302,0.015458,0.029041,-0.001539
3303,0.015458,0.029041,0.017721
3304,0.015458,0.011702,-0.001539
3305,0.050004,-0.022975,-0.001539
3306,-0.001814,0.029041,-0.0208
3307,-0.019087,-0.005636,-0.0208
3308,-0.03636,-0.040313,-0.001539
3309,-0.019087,-0.022975,-0.0208
3310,-0.03636,-0.040313,-0.001539
3311,-0.001814,-0.057652,-0.001539
3312,-0.019087,-0.022975,-0.001539
3313,-0.019087,0.011702,-0.001539
3314,-0.03636,-0.005636,-0.001539
3315,-0.053632,0.029041,-0.0208
3316,-0.001814,0.046379,-0.001539
3317,0.015458,0.011702,-0.001539
3318,-0.001814,-0.005636,-0.001539
3319,0.015458,-0.005636,-0.001539
3320,-0.019087,-0.022975,0.017721
3321,0.015458,-0.057652,-0.001539
3322,0.015458,-0.022975,-0.001539
3323,0.015458,-0.022975,-0.001539
3324,-0.001814,-0.022975,-0.001539
3325,0.015458,-0.005636,-0.001539
3326,-0.03636,-0.005636,-0.001539
3327,-0.019087,-0.022975,-0.0208
3328,-0.053632,-0.005636,-0.001539
3329,-0.03636,0.011702,-0.001539
3330,-0.03636,-0.022975,-0.001539
3331,-0.001814,-0.022975,-0.001539
3332,-0.019087,0.011702,-0.001539
3333,0.015458,-0.022975,0.017721
3334,0.015458,-0.022975,-0.001539
3335,-0.001814,0.029041,-0.0208
3336,-0.001814,-0.022975,-0.001539
3337,-0.001814,-0.005636,-0.0208
3338,0.015458,-0.005636,-0.001539
3339,-0.019087,0.029041,-0.001539
3340,0.015458,-0.005636,-0.0208
3341,-0.001814,0.011702,-0.001539
3342,-0.001814,-0.005636,-0.0208
3343,-0.001814,-0.022975,-0.001539
3344,-0.019087,-0.040313,-0.04006
3345,-0.001814,-0.005636,-0.0208
3346,-0.001814,-0.022975,-0.001539
3347,0.015458,-0.040313,-0.001539
3348,-0.001814,-0.005636,-0.0208
3349,-0.001814,-0.005636,-0.001539
3350,0.015458,-0.005636,0.017721
3351,-0.001814,0.011702,-0.001539
3352,-0.001814,0.011702,-0.0208
3353,-0.001814,-0.005636,-0.001539
3354,0.015458,0.011702,-0.001539
3355,-0.001814,-0.005636,-0.001539
3356,-0.03636,-0.022975,0.036981
3357,-0.03636,-0.022975,0.017721
3358,-0.03636,0.011702,-0.001539
3359,-0.03636,-0.022975,-0.001539
3360,-0.001814,-0.040313,-0.0208
3361,-0.001814,-0.005636,0.017721
3362,-0.03636,-0.022975,-0.001539
3363,-0.019087,-0.040313,0.017721
3364,-0.019087,0.011702,-0.0208
3365,-0.019087,0.011702,-0.0208
3366,0.015458,-0.005636,-0.001539
3367,0.015458,-0.005636,-0.001539
3368,0.015458,0.011702,-0.001539
3369,0.032731,0.011702,-0.001539
3370,-0.019087,-0.005636,-0.001539
3371,-0.03636,-0.005636,-0.001539
3372,-0.03636,-0.022975,-0.001539
3373,-0.019087,-0.022975,-0.001539
3374,-0.019087,-0.022975,-0.001539
3375,-0.03636,-0.040313,-0.001539
3376,-0.019087,-0.040313,-0.001539
3377,-0.019087,-0.005636,-0.0208
3378,0.015458,0.011702,-0.001539
3379,0.015458,-0.005636,-0.001539
3380,0.032731,0.011702,-0.001539
3381,-0.001814,0.029041,0.017721
3382,0.015458,-0.005636,-0.001539
3383,0.015458,-0.022975,-0.001539
3384,0.015458,0.029041,-0.0208
3385,-0.001814,-0.005636,-0.0208
3386,-0.019087,-0.022975,-0.001539
3387,-0.019087,-0.005636,-0.0208
3388,-0.03636,-0.022975,-0.0208
3389,-0.019087,-0.040313,-0.001539
3390,-0.019087,-0.005636,-0.001539
3391,-0.019087,-0.005636,-0.0208
3392,-0.03636,-0.022975,-0.001539
3393,-0.019087,-0.005636,0.017721
3394,-0.03636,0.046379,-0.001539
3395,-0.03636,-0.022975,-0.001539
3396,-0.03636,-0.022975,-0.0208
3397,-0.001814,-0.022975,-0.001539
3398,-0.019087,-0.005636,-0.001539
3399,-0.019087,-0.005636,-0.0208
3400,-0.001814,-0.005636,-0.001539
3401,0.032731,-0.022975,-0.001539
3402,-0.001814,-0.022975,-0.001539
3403,-0.001814,-0.005636,-0.001539
3404,-0.001814,0.011702,-0.001539
3405,0.015458,-0.005636,-0.001539
3406,-0.001814,-0.005636,-0.0208
3407,-0.001814,-0.005636,-0.001539
3408,-0.001814,-0.005636,-0.0208
3409,-0.019087,-0.040313,-0.001539
3410,-0.001814,0.011702,0.017721
3411,0.015458,-0.005636,-0.001539
3412,-0.001814,0.011702,-0.001539
3413,-0.019087,-0.022975,-0.001539
3414,0.015458,-0.005636,0.017721
3415,0.032731,-0.005636,-0.0208
3416,-0.001814,-0.005636,-0.001539
3417,0.015458,-0.005636,-0.001539
3418,0.015458,-0.022975,-0.001539
3419,0.032731,0.011702,-0.001539
3420,-0.001814,0.011702,-0.001539
3421,-0.001814,-0.005636,-0.001539
3422,-0.001814,-0.022975,-0.001539
3423,-0.001814,0.011702,-0.001539
3424,-0.019087,-0.022975,-0.001539
3425,-0.019087,-0.040313,-0.04006
3426,-0.03636,-0.022975,-0.001539
3427,-0.019087,-0.022975,-0.001539
3428,-0.019087,-0.022975,-0.001539
3429,-0.03636,-0.022975,-0.001539
3430,-0.001814,0.011702,-0.0208
3431,-0.03636,-0.005636,-0.04006
3432,-0.001814,0.011702,-0.0208
3433,-0.03636,0.029041,-0.0208
3434,0.015458,-0.005636,-0.001539
3435,0.015458,0.011702,-0.001539
3436,-0.001814,0.011702,0.017721
3437,-0.001814,-0.005636,-0.0208
3438,-0.001814,-0.005636,-0.001539
3439,-0.03636,-0.022975,-0.001539
3440,-0.03636,-0.040313,-0.001539
3441,-0.019087,-0.040313,-0.001539
3442,-0.001814,-0.022975,-0.001539
3443,0.015458,-0.022975,-0.001539
3444,-0.03636,-0.005636,-0.0208
3445,-0.03636,-0.005636,-0.001539
3446,-0.019087,0.046379,-0.001539
3447,-0.019087,-0.005636,0.017721
3448,-0.001814,-0.022975,-0.001539
3449,0.015458,0.029041,-0.001539
3450,-0.001814,-0.005636,-0.0208
3451,-0.001814,-0.022975,-0.001539
3452,-0.001814,-0.022975,-0.001539
3453,-0.019087,-0.005636,-0.0208
3454,-0.001814,-0.005636,-0.001539
3455,-0.019087,-0.005636,-0.0208
3456,-0.001814,0.011702,-0.0208
3457,-0.019087,-0.022975,-0.001539
3458,-0.019087,0.011702,0.017721
3459,-0.019087,-0.005636,-0.001539
3460,-0.001814,-0.022975,-0.001539
3461,-0.001814,0.011702,-0.001539
3462,-0.019087,0.011702,-0.001539
3463,-0.001814,-0.005636,-0.001539
3464,-0.019087,-0.057652,-0.001539
3465,0.015458,-0.040313,-0.001539
3466,-0.019087,-0.005636,-0.001539
3467,-0.019087,-0.040313,-0.001539
3468,-0.001814,-0.040313,-0.001539
3469,-0.001814,0.011702,-0.001539
3470,-0.019087,-0.005636,-0.001539
3471,-0.001814,0.046379,-0.001539
3472,-0.019087,0.046379,-0.001539
3473,-0.019087,0.029041,-0.001539
3474,-0.001814,-0.022975,-0.001539
3475,-0.019087,-0.040313,-0.001539
3476,0.032731,-0.005636,-0.001539
3477,-0.019087,-0.040313,-0.0208
3478,0.015458,-0.040313,-0.0208
3479,-0.001814,-0.022975,-0.001539
3480,0.015458,-0.040313,-0.001539
3481,-0.001814,-0.022975,-0.001539
3482,0.015458,0.011702,-0.001539
3483,0.015458,-0.022975,-0.001539
3484,-0.001814,0.011702,-0.001539
3485,0.015458,-0.005636,-0.0208
3486,-0.001814,0.046379,-0.001539
3487,0.015458,-0.005636,-0.001539
3488,-0.001814,0.011702,0.017721
3489,-0.03636,-0.005636,-0.001539
3490,-0.019087,-0.005636,-0.001539
3491,-0.001814,-0.040313,-0.0208
3492,0.015458,-0.005636,-0.001539
3493,-0.019087,-0.022975,-0.001539
3494,-0.001814,-0.040313,-0.001539
3495,-0.001814,-0.022975,-0.0208
3496,-0.019087,-0.040313,-0.001539
3497,-0.019087,0.011702,-0.001539
3498,-0.019087,0.011702,0.017721
3499,-0.03636,0.011702,-0.001539
3500,-0.019087,-0.005636,-0.001539
3501,-0.019087,0.029041,-0.0208
3502,-0.03636,0.011702,-0.001539
3503,-0.019087,-0.005636,-0.001539
3504,-0.03636,-0.022975,-0.001539
3505,-0.053632,-0.005636,-0.001539
3506,-0.001814,-0.040313,-0.001539
3507,-0.001814,-0.040313,-0.001539
3508,-0.019087,-0.022975,0.017721
3509,-0.03636,-0.040313,-0.001539
3510,0.032731,-0.022975,-0.001539
3511,-0.019087,0.011702,-0.001539
3512,-0.001814,0.011702,-0.001539
3513,0.067276,-0.022975,-0.001539
3514,-0.001814,0.029041,0.017721
3515,0.015458,0.011702,-0.0208
3516,-0.001814,-0.022975,-0.0208
3517,0.015458,-0.022975,-0.001539
3518,-0.001814,0.011702,-0.0208
3519,0.032731,-0.005636,-0.001539
3520,-0.001814,-0.040313,-0.001539
3521,-0.001814,-0.022975,-0.001539
3522,-0.001814,-0.022975,-0.001539
3523,-0.001814,-0.005636,-0.001539
3524,-0.001814,0.011702,0.017721
3525,-0.019087,0.029041,-0.001539
3526,-0.03636,-0.005636,-0.0208
3527,-0.001814,-0.005636,-0.001539
3528,-0.03636,0.011702,-0.001539
3529,-0.001814,-0.005636,-0.0208
3530,-0.019087,-0.022975,-0.001539
3531,0.015458,-0.005636,-0.001539
3532,0.050004,-0.005636,-0.001539
3533,0.015458,-0.022975,-0.001539
3534,-0.001814,0.011702,-0.001539
3535,-0.001814,-0.022975,0.017721
3536,0.032731,-0.040313,-0.001539
3537,-0.001814,-0.005636,-0.001539
3538,-0.019087,0.029041,-0.001539
3539,0.015458,-0.005636,-0.001539
3540,-0.001814,0.011702,-0.001539
3541,-0.03636,-0.005636,-0.001539
3542,-0.03636,-0.022975,-0.0208
3543,-0.03636,-0.022975,-0.001539
3544,-0.03636,-0.005636,0.017721
3545,-0.019087,-0.040313,-0.001539
3546,0.015458,-0.040313,-0.001539
3547,0.015458,-0.005636,-0.001539
3548,-0.03636,-0.040313,-0.001539
3549,-0.053632,-0.005636,-0.001539
3550,-0.019087,-0.005636,-0.001539
3551,-0.001814,0.029041,-0.001539
3552,-0.019087,0.011702,-0.001539
3553,-0.001814,0.011702,-0.001539
3554,-0.001814,0.011702,-0.001539
3555,-0.001814,-0.022975,-0.001539
3556,-0.019087,-0.022975,0.017721
3557,-0.001814,-0.005636,-0.001539
3558,-0.001814,-0.005636,-0.001539
3559,-0.019087,-0.057652,-0.001539
3560,0.015458,-0.022975,-0.001539
3561,-0.001814,-0.040313,-0.001539
3562,-0.019087,-0.040313,-0.0208
3563,-0.019087,-0.022975,-0.001539
3564,-0.019087,-0.005636,-0.001539
3565,0.015458,0.011702,-0.001539
3566,0.015458,0.011702,-0.001539
3567,0.015458,0.029041,-0.0208
3568,-0.001814,-0.005636,-0.001539
3569,-0.001814,-0.005636,-0.001539
3570,-0.019087,0.029041,-0.001539
3571,0.015458,-0.005636,-0.0208
3572,0.015458,-0.022975,-0.0208
3573,0.015458,-0.005636,-0.0208
3574,-0.001814,-0.022975,-0.0208
3575,0.015458,-0.057652,0.036981
3576,-0.001814,-0.005636,-0.001539
