# Requested Sampling Rate (Hz):,1000
# Actual Sampling Rate (Hz):,998.468
# Requested Duration (s):,5.0
# Actual Duration (s):,5.045
# REST Calibration:,831.5250689655151,832.0950689655182,831.5147931034478
# MAX Calibration:,890.0000,884.0000,885.0000
# Normalization: MVC-based  (x_norm = (x - REST) / (MAX - REST))
sample_idx,EMG1,EMG2,EMG3
0,0.008122,-0.001832,0.027769
1,-0.008979,-0.021098,0.009072
2,0.008122,-0.098162,-0.047018
3,-0.026081,-0.078896,-0.103109
4,-0.008979,-0.078896,-0.065715
5,0.008122,-0.040364,-0.009625
6,0.025223,-0.021098,0.009072
7,-0.008979,0.017434,-0.028322
8,-0.008979,0.055966,-0.009625
9,-0.008979,0.094498,-0.028322
10,0.025223,0.13303,-0.028322
11,0.025223,0.094498,-0.009625
12,0.025223,0.0367,-0.009625
13,-0.008979,0.0367,0.009072
14,-0.008979,0.055966,0.009072
15,0.008122,0.017434,-0.028322
16,-0.008979,0.0367,-0.009625
17,-0.008979,-0.001832,0.027769
18,-0.026081,-0.040364,-0.009625
19,0.025223,-0.001832,-0.009625
20,0.008122,-0.001832,0.009072
21,0.008122,0.017434,-0.009625
22,0.008122,0.017434,-0.009625
23,0.008122,-0.021098,0.009072
24,0.008122,0.017434,-0.028322
25,0.025223,-0.021098,-0.009625
26,0.025223,-0.040364,0.009072
27,-0.008979,-0.078896,0.027769
28,-0.026081,-0.098162,0.009072
29,-0.008979,-0.078896,0.027769
30,0.008122,-0.040364,0.027769
31,-0.008979,-0.001832,0.009072
32,0.008122,0.055966,0.027769
33,-0.026081,0.094498,0.009072
34,0.008122,0.094498,-0.028322
35,0.008122,0.094498,0.009072
36,0.008122,0.0367,0.046465
37,0.008122,0.017434,0.027769
38,0.008122,-0.001832,0.009072
39,0.008122,-0.001832,-0.009625
40,0.008122,0.017434,-0.028322
41,0.025223,0.017434,0.009072
42,0.008122,0.0367,-0.009625
43,0.025223,-0.021098,-0.009625
44,0.008122,-0.001832,0.046465
45,0.008122,0.017434,0.046465
46,0.008122,-0.001832,0.046465
47,0.008122,-0.001832,0.065162
48,0.008122,-0.021098,0.046465
49,0.008122,-0.001832,-0.009625
50,0.008122,-0.040364,-0.028322
51,-0.008979,-0.021098,-0.084412
52,-0.008979,-0.001832,-0.047018
53,0.008122,-0.001832,-0.047018
54,0.008122,0.017434,-0.028322
55,-0.008979,-0.001832,0.009072
56,0.008122,0.017434,-0.009625
57,0.008122,-0.021098,-0.009625
58,0.008122,-0.021098,0.027769
59,-0.008979,-0.001832,0.027769
60,-0.008979,-0.021098,0.027769
61,0.008122,0.017434,0.027769
62,0.008122,0.0367,-0.009625
63,0.008122,0.017434,-0.009625
64,-0.008979,-0.001832,0.027769
65,-0.008979,-0.001832,-0.009625
66,0.025223,-0.021098,0.009072
67,0.025223,-0.021098,0.009072
68,-0.008979,-0.021098,-0.009625
69,0.008122,-0.001832,0.009072
70,-0.008979,-0.021098,0.027769
71,0.008122,-0.021098,0.009072
72,-0.008979,0.017434,-0.009625
73,-0.008979,0.017434,0.027769
74,0.008122,0.017434,0.009072
75,0.008122,-0.021098,0.009072
76,-0.008979,0.017434,0.027769
77,-0.008979,0.017434,0.027769
78,0.008122,0.017434,0.009072
79,-0.008979,0.0367,0.009072
80,-0.026081,0.017434,-0.047018
81,0.008122,0.017434,-0.009625
82,0.025223,-0.021098,0.027769
83,0.008122,0.017434,0.009072
84,-0.008979,0.017434,-0.009625
85,0.008122,0.0367,0.009072
86,-0.008979,-0.001832,0.046465
87,-0.008979,-0.021098,0.046465
88,0.008122,-0.001832,0.027769
89,-0.008979,-0.021098,0.027769
90,-0.008979,-0.040364,-0.084412
91,-0.026081,-0.078896,-0.084412
92,-0.008979,-0.078896,-0.084412
93,0.008122,-0.098162,-0.028322
94,-0.008979,-0.040364,-0.009625
95,0.008122,-0.040364,-0.047018
96,-0.008979,-0.001832,-0.047018
97,0.008122,0.017434,-0.009625
98,0.008122,0.075232,0.027769
99,0.008122,0.113764,-0.009625
100,0.008122,0.075232,0.027769
101,0.008122,0.055966,0.009072
102,0.008122,0.055966,-0.009625
103,0.008122,0.017434,-0.047018
104,0.008122,0.017434,-0.009625
105,-0.008979,0.017434,-0.009625
106,0.025223,-0.021098,0.009072
107,0.025223,-0.001832,0.027769
108,0.025223,-0.001832,0.009072
109,0.025223,0.017434,0.046465
110,-0.008979,-0.001832,0.065162
111,-0.008979,-0.001832,0.009072
112,0.025223,-0.001832,0.027769
113,0.008122,0.0367,0.046465
114,-0.008979,-0.001832,0.046465
115,-0.008979,-0.05963,0.009072
116,-0.008979,-0.098162,0.027769
117,-0.008979,-0.078896,-0.028322
118,0.008122,-0.078896,0.009072
119,0.008122,-0.040364,0.009072
120,-0.008979,-0.001832,-0.009625
121,-0.043182,-0.001832,-0.028322
122,0.008122,0.075232,-0.028322
123,-0.008979,0.075232,-0.047018
124,0.008122,0.075232,-0.047018
125,0.025223,0.0367,-0.009625
126,0.025223,0.017434,-0.009625
127,0.076527,0.017434,-0.009625
128,0.042325,0.0367,0.009072
129,-0.077385,0.055966,0.027769
130,-0.008979,0.055966,0.009072
131,0.025223,0.017434,0.046465
132,0.025223,0.0367,0.009072
133,-0.008979,0.017434,-0.009625
134,0.008122,-0.001832,0.009072
135,-0.008979,-0.001832,0.009072
136,0.025223,-0.001832,-0.009625
137,-0.008979,-0.001832,0.027769
138,0.008122,-0.001832,0.027769
139,0.008122,-0.001832,0.009072
140,0.008122,-0.001832,0.027769
141,0.008122,-0.001832,0.046465
142,0.008122,-0.001832,0.046465
143,0.008122,-0.001832,0.065162
144,-0.008979,-0.001832,0.009072
145,0.008122,-0.001832,-0.028322
146,-0.008979,-0.021098,0.009072
147,0.008122,-0.001832,0.009072
148,-0.008979,-0.021098,-0.047018
149,-0.008979,-0.040364,0.027769
150,0.008122,-0.021098,0.009072
151,0.008122,-0.001832,-0.065715
152,0.008122,-0.021098,-0.065715
153,-0.008979,0.017434,-0.028322
154,0.008122,0.017434,-0.009625
155,0.008122,0.017434,-0.047018
156,0.008122,-0.001832,-0.028322
157,-0.008979,-0.001832,-0.047018
158,0.008122,0.017434,-0.009625
159,0.008122,-0.001832,0.009072
160,-0.008979,0.017434,0.027769
161,0.008122,0.017434,0.046465
162,-0.008979,0.017434,0.065162
163,0.008122,-0.001832,0.027769
164,0.008122,-0.001832,0.027769
165,-0.008979,0.017434,0.046465
166,-0.026081,-0.040364,0.027769
167,0.008122,-0.040364,-0.009625
168,0.008122,-0.021098,-0.028322
169,-0.008979,-0.078896,-0.084412
170,-0.026081,-0.098162,-0.028322
171,-0.026081,-0.078896,0.009072
172,-0.008979,-0.05963,0.027769
173,-0.008979,-0.021098,0.046465
174,-0.008979,0.0367,0.065162
175,0.008122,0.113764,0.009072
176,0.025223,0.13303,-0.047018
177,0.025223,0.113764,-0.009625
178,0.042325,0.113764,-0.065715
179,0.025223,0.0367,-0.065715
180,0.008122,0.0367,-0.009625
181,-0.008979,0.017434,0.083859
182,-0.008979,0.017434,0.121252
183,0.008122,-0.001832,0.121252
184,0.008122,0.017434,0.065162
185,0.008122,-0.05963,0.046465
186,0.025223,-0.040364,0.027769
187,-0.026081,-0.040364,-0.065715
188,-0.026081,-0.040364,-0.084412
189,0.008122,-0.021098,0.009072
190,0.008122,-0.001832,0.009072
191,0.008122,0.0367,-0.140502
192,0.008122,0.055966,-0.140502
193,-0.008979,0.0367,-0.047018
194,-0.008979,0.017434,-0.028322
195,0.008122,-0.001832,0.027769
196,0.008122,0.017434,0.027769
197,-0.008979,-0.001832,-0.009625
198,-0.026081,0.017434,0.027769
199,-0.008979,-0.021098,0.046465
200,0.008122,0.017434,0.065162
201,0.008122,0.017434,0.027769
202,0.025223,0.017434,0.046465
203,-0.008979,0.017434,0.046465
204,0.008122,-0.001832,0.065162
205,0.008122,-0.001832,-0.009625
206,0.008122,-0.021098,-0.103109
207,0.025223,-0.021098,-0.121806
208,-0.026081,-0.021098,-0.065715
209,0.008122,-0.040364,-0.065715
210,0.008122,0.017434,0.027769
211,0.008122,-0.001832,0.065162
212,0.008122,-0.001832,0.027769
213,-0.008979,-0.021098,0.027769
214,-0.008979,-0.040364,0.027769
215,0.008122,-0.001832,-0.084412
216,0.008122,0.017434,-0.103109
217,-0.026081,-0.021098,-0.028322
218,-0.008979,-0.001832,-0.009625
219,0.008122,-0.001832,0.009072
220,0.008122,-0.001832,0.046465
221,0.008122,-0.001832,0.009072
222,0.008122,-0.001832,0.027769
223,0.025223,0.0367,0.083859
224,0.025223,0.0367,0.065162
225,0.025223,0.055966,-0.047018
226,-0.008979,-0.001832,0.009072
227,0.008122,0.0367,-0.028322
228,0.008122,0.017434,-0.047018
229,-0.008979,0.017434,-0.084412
230,0.008122,-0.001832,-0.121806
231,0.008122,-0.021098,-0.065715
232,0.025223,-0.001832,-0.009625
233,-0.008979,0.0367,0.009072
234,0.008122,-0.001832,0.009072
235,0.008122,0.017434,0.083859
236,0.008122,0.017434,0.121252
237,0.008122,-0.021098,0.102556
238,0.008122,0.017434,0.102556
239,0.008122,0.017434,0.083859
240,-0.008979,0.017434,0.046465
241,-0.008979,0.017434,0.027769
242,-0.008979,0.017434,-0.009625
243,-0.008979,-0.078896,0.009072
244,0.008122,-0.098162,0.065162
245,0.025223,-0.078896,0.065162
246,-0.008979,-0.098162,-0.084412
247,-0.008979,-0.098162,-0.103109
248,-0.026081,-0.040364,-0.084412
249,0.008122,0.017434,-0.121806
250,0.008122,0.094498,-0.103109
251,0.008122,0.075232,-0.047018
252,0.025223,0.075232,-0.028322
253,0.008122,0.0367,-0.009625
254,0.008122,0.055966,-0.009625
255,0.008122,-0.001832,-0.009625
256,-0.008979,-0.021098,-0.009625
257,-0.008979,-0.021098,-0.009625
258,-0.008979,-0.001832,-0.009625
259,-0.008979,0.017434,-0.028322
260,0.008122,0.055966,-0.009625
261,0.008122,0.075232,-0.009625
262,0.008122,0.075232,0.027769
263,0.042325,0.0367,0.027769
264,0.008122,0.055966,0.046465
265,0.025223,0.0367,0.046465
266,0.025223,0.017434,0.065162
267,0.008122,0.017434,0.046465
268,0.025223,-0.001832,0.065162
269,0.008122,-0.001832,0.083859
270,0.008122,0.017434,0.046465
271,0.025223,0.0367,0.065162
272,0.008122,0.017434,0.139949
273,0.008122,0.0367,0.102556
274,0.008122,0.017434,0.065162
275,-0.008979,0.017434,0.009072
276,0.008122,0.017434,0.027769
277,0.025223,-0.001832,-0.047018
278,0.008122,-0.021098,-0.103109
279,0.008122,-0.021098,-0.047018
280,0.025223,-0.001832,0.009072
281,0.008122,-0.001832,0.046465
282,0.025223,-0.021098,-0.009625
283,-0.026081,-0.040364,-0.028322
284,0.008122,-0.001832,0.009072
285,-0.008979,-0.040364,-0.028322
286,-0.026081,-0.040364,-0.047018
287,-0.008979,-0.021098,-0.009625
288,0.008122,-0.021098,-0.047018
289,0.008122,0.017434,-0.084412
290,0.008122,-0.021098,-0.084412
291,0.008122,0.017434,-0.028322
292,-0.008979,-0.001832,-0.009625
293,-0.008979,-0.001832,-0.009625
294,-0.008979,-0.040364,-0.028322
295,-0.008979,0.0367,-0.047018
296,0.025223,0.017434,-0.009625
297,0.008122,0.0367,0.046465
298,0.008122,-0.001832,-0.028322
299,-0.008979,0.017434,0.065162
300,0.008122,-0.001832,0.083859
301,0.008122,-0.001832,0.083859
302,-0.008979,-0.021098,0.083859
303,0.008122,0.017434,0.102556
304,0.008122,0.0367,0.196039
305,0.008122,0.017434,0.177343
306,0.042325,0.017434,0.214736
307,0.059426,0.055966,0.083859
308,0.025223,0.0367,0.027769
309,0.025223,0.017434,-0.084412
310,-0.008979,-0.001832,-0.233986
311,0.008122,-0.040364,-0.27138
312,-0.008979,-0.040364,-0.103109
313,-0.008979,-0.040364,-0.009625
314,-0.008979,-0.021098,-0.047018
315,-0.043182,-0.040364,-0.028322
316,-0.043182,-0.05963,-0.028322
317,-0.026081,-0.040364,0.009072
318,0.008122,-0.021098,-0.009625
319,0.008122,-0.001832,-0.009625
320,0.025223,0.055966,0.083859
321,0.042325,0.075232,0.046465
322,0.008122,0.055966,-0.028322
323,0.025223,-0.040364,-0.028322
324,-0.008979,-0.05963,-0.047018
325,-0.026081,-0.040364,-0.121806
326,-0.043182,-0.021098,-0.121806
327,-0.008979,-0.021098,-0.084412
328,-0.008979,0.017434,-0.065715
329,0.008122,0.017434,-0.028322
330,0.008122,0.075232,0.046465
331,0.042325,0.075232,0.027769
332,0.025223,0.055966,0.046465
333,0.008122,0.0367,0.027769
334,0.008122,0.017434,0.046465
335,0.008122,0.0367,0.102556
336,0.025223,0.0367,0.196039
337,0.008122,0.075232,0.270826
338,0.042325,-0.001832,0.270826
339,0.025223,-0.05963,0.25213
340,0.008122,-0.05963,0.102556
341,-0.008979,-0.098162,-0.215289
342,-0.043182,-0.15596,-0.477044
343,-0.060283,-0.15596,-0.402257
344,-0.043182,-0.136694,-0.215289
345,-0.026081,-0.05963,-0.065715
346,-0.008979,-0.001832,-0.009625
347,0.008122,0.055966,0.009072
348,0.025223,0.0367,0.046465
349,0.025223,0.075232,0.065162
350,0.025223,0.075232,0.027769
351,0.025223,0.075232,0.009072
352,0.042325,0.094498,0.009072
353,0.008122,0.055966,-0.028322
354,0.008122,-0.001832,0.027769
355,0.008122,0.017434,0.121252
356,0.025223,0.055966,0.121252
357,0.042325,0.113764,0.177343
358,0.008122,0.094498,0.102556
359,0.025223,0.113764,0.065162
360,0.025223,0.094498,0.102556
361,0.008122,0.0367,0.046465
362,-0.008979,-0.001832,-0.028322
363,0.008122,0.055966,-0.084412
364,0.025223,0.017434,-0.084412
365,0.008122,-0.021098,-0.177896
366,-0.008979,-0.001832,-0.159199
367,0.008122,-0.040364,-0.047018
368,-0.008979,-0.021098,0.065162
369,-0.008979,-0.05963,0.046465
370,-0.026081,-0.040364,0.121252
371,-0.008979,-0.040364,0.177343
372,-0.008979,-0.021098,0.177343
373,-0.008979,-0.021098,0.083859
374,-0.008979,-0.001832,0.009072
375,-0.008979,0.017434,-0.084412
376,0.008122,-0.001832,-0.103109
377,-0.008979,0.017434,-0.196593
378,-0.026081,0.017434,-0.140502
379,0.008122,-0.001832,0.046465
380,0.025223,-0.001832,0.065162
381,0.042325,0.0367,0.177343
382,0.025223,0.017434,0.270826
383,0.025223,0.017434,0.214736
384,0.008122,0.0367,0.139949
385,-0.008979,-0.001832,0.139949
386,-0.008979,-0.021098,0.065162
387,-0.026081,-0.040364,-0.159199
388,-0.026081,-0.117428,-0.047018
389,-0.008979,-0.078896,0.009072
390,-0.008979,-0.05963,-0.308773
391,0.008122,-0.078896,-0.177896
392,0.025223,-0.001832,-0.009625
393,0.008122,0.055966,-0.140502
394,0.008122,0.0367,-0.140502
395,0.008122,0.0367,0.027769
396,0.008122,0.0367,0.027769
397,-0.008979,0.055966,0.233433
398,0.042325,0.113764,0.270826
399,0.025223,0.075232,0.139949
400,-0.008979,0.017434,-0.047018
401,-0.008979,0.0367,-0.177896
402,-0.008979,-0.021098,-0.177896
403,-0.008979,-0.040364,-0.065715
404,0.008122,-0.001832,0.009072
405,0.008122,0.017434,0.121252
406,0.008122,0.0367,0.083859
407,0.008122,0.017434,0.027769
408,0.008122,-0.001832,-0.047018
409,0.008122,-0.021098,-0.159199
410,0.008122,0.017434,-0.140502
411,0.008122,-0.040364,-0.290076
412,-0.026081,-0.05963,-0.252683
413,-0.026081,-0.040364,-0.028322
414,-0.008979,-0.021098,0.25213
415,0.042325,0.017434,0.401704
416,0.042325,0.055966,0.401704
417,0.025223,0.094498,0.4204
418,0.059426,0.210094,0.30822
419,0.059426,0.094498,-0.140502
420,-0.008979,-0.040364,-0.215289
421,-0.008979,-0.078896,-0.047018
422,-0.026081,-0.098162,0.046465
423,-0.026081,-0.05963,0.027769
424,-0.008979,-0.021098,-0.028322
425,-0.008979,-0.021098,-0.047018
426,0.025223,0.017434,-0.177896
427,0.025223,0.0367,-0.047018
428,0.025223,0.017434,-0.140502
429,0.008122,-0.001832,-0.047018
430,-0.043182,-0.078896,-0.028322
431,-0.026081,-0.05963,-0.065715
432,-0.008979,-0.001832,-0.121806
433,-0.008979,-0.001832,0.158646
434,-0.008979,-0.001832,0.25213
435,-0.008979,-0.021098,0.102556
436,-0.008979,-0.001832,-0.028322
437,-0.008979,-0.021098,-0.196593
438,0.008122,-0.021098,0.009072
439,0.008122,-0.021098,-0.028322
440,0.042325,0.075232,0.102556
441,0.025223,0.075232,0.139949
442,0.008122,-0.001832,-0.065715
443,-0.008979,-0.021098,-0.140502
444,-0.026081,-0.05963,-0.196593
445,-0.026081,-0.117428,-0.32747
446,0.025223,0.017434,-0.177896
447,0.008122,0.055966,-0.103109
448,-0.008979,0.0367,0.027769
449,0.008122,0.094498,0.139949
450,0.008122,0.055966,0.139949
451,-0.008979,0.055966,0.102556
452,0.008122,0.0367,-0.028322
453,-0.008979,-0.001832,-0.177896
454,-0.008979,0.0367,-0.065715
455,0.008122,0.0367,0.25213
456,0.008122,0.055966,0.383007
457,-0.008979,-0.021098,-0.009625
458,-0.026081,-0.078896,-0.196593
459,-0.043182,-0.117428,-0.32747
460,-0.008979,-0.117428,-0.514437
461,-0.008979,-0.05963,-0.084412
462,0.008122,0.017434,0.345613
463,0.025223,0.075232,0.36431
464,0.076527,0.190828,0.326917
465,0.059426,0.075232,-0.121806
466,0.008122,-0.001832,-0.364863
467,0.025223,-0.021098,-0.252683
468,-0.008979,-0.021098,-0.028322
469,-0.026081,0.017434,0.177343
470,-0.008979,0.0367,0.25213
471,0.025223,0.0367,0.25213
472,0.008122,-0.001832,0.345613
473,0.008122,0.0367,0.177343
474,0.025223,0.0367,-0.028322
475,0.008122,-0.001832,-0.103109
476,-0.026081,-0.05963,-0.27138
477,0.008122,-0.021098,0.046465
478,-0.008979,0.017434,0.083859
479,-0.043182,-0.040364,-0.028322
480,-0.077385,-0.136694,-0.233986
481,-0.043182,-0.117428,-0.140502
482,0.025223,-0.001832,0.065162
483,0.025223,0.0367,0.158646
484,0.059426,0.094498,0.233433
485,0.059426,0.055966,0.233433
486,0.025223,0.017434,0.214736
487,-0.008979,-0.05963,0.027769
488,-0.060283,-0.098162,-0.159199
489,-0.008979,-0.021098,-0.252683
490,0.008122,0.055966,-0.121806
491,0.025223,0.075232,0.046465
492,0.025223,0.055966,0.270826
493,0.025223,0.055966,0.345613
494,0.025223,0.0367,0.30822
495,0.025223,0.0367,0.25213
496,0.008122,0.075232,-0.028322
497,-0.008979,0.017434,-0.121806
498,-0.043182,-0.078896,-0.27138
499,-0.077385,-0.117428,-0.290076
500,-0.008979,-0.05963,-0.290076
501,-0.008979,-0.098162,-0.551831
502,-0.026081,-0.136694,-0.495741
503,0.008122,-0.098162,-0.140502
504,0.008122,-0.001832,0.027769
505,0.059426,0.094498,0.233433
506,0.059426,0.152296,0.439097
507,0.025223,0.171562,0.233433
508,-0.008979,0.055966,0.158646
509,-0.043182,-0.136694,-0.233986
510,-0.026081,-0.05963,-0.159199
511,-0.008979,-0.001832,0.083859
512,0.008122,-0.021098,-0.009625
513,0.008122,-0.001832,-0.27138
514,0.008122,-0.021098,-0.103109
515,0.059426,0.113764,0.25213
516,0.093629,0.113764,0.121252
517,0.059426,0.055966,0.4204
518,-0.008979,0.075232,0.513884
519,-0.008979,-0.001832,0.139949
520,-0.043182,-0.05963,0.083859
521,-0.008979,-0.021098,-0.140502
522,-0.026081,-0.05963,-0.551831
523,-0.060283,-0.117428,-0.570528
524,-0.077385,-0.098162,-0.495741
525,-0.043182,-0.040364,-0.32747
526,0.008122,-0.040364,-0.065715
527,0.025223,0.0367,0.196039
528,0.059426,0.075232,0.233433
529,0.059426,0.055966,0.36431
530,0.076527,0.113764,0.439097
531,0.042325,0.13303,0.270826
532,-0.008979,0.0367,0.065162
533,-0.026081,-0.040364,-0.047018
534,-0.060283,-0.021098,-0.477044
535,-0.008979,-0.001832,-0.121806
536,-0.026081,-0.05963,-0.084412
537,-0.026081,-0.098162,-0.308773
538,0.008122,-0.040364,-0.028322
539,0.025223,-0.040364,0.009072
540,0.042325,-0.001832,0.065162
541,0.025223,-0.040364,0.383007
542,0.059426,-0.001832,0.569975
543,0.042325,-0.040364,0.700852
544,0.025223,0.113764,0.775639
545,0.025223,0.13303,0.289523
546,-0.008979,0.055966,-0.290076
547,-0.043182,-0.001832,-0.290076
548,-0.060283,-0.040364,-0.551831
549,-0.077385,-0.040364,-0.308773
550,-0.026081,-0.021098,-0.196593
551,-0.026081,-0.040364,-0.103109
552,-0.008979,-0.098162,-0.177896
553,0.025223,-0.136694,-0.140502
554,0.076527,0.017434,0.326917
555,0.059426,0.0367,0.233433
556,0.025223,0.0367,0.476491
557,0.008122,0.190828,0.551278
558,0.025223,0.248626,-0.233986
559,-0.026081,0.075232,-0.514437
560,-0.026081,-0.098162,-0.43965
561,-0.043182,-0.136694,-0.364863
562,-0.026081,-0.021098,-0.009625
563,-0.008979,-0.001832,-0.065715
564,0.025223,-0.021098,-0.103109
565,0.025223,-0.021098,0.027769
566,-0.008979,-0.078896,0.027769
567,0.008122,0.055966,0.158646
568,-0.026081,-0.05963,0.214736
569,-0.043182,-0.136694,0.439097
570,0.008122,-0.05963,0.4204
571,-0.008979,-0.05963,-0.364863
572,0.008122,0.075232,-0.720102
573,0.008122,0.152296,-0.233986
574,0.025223,0.210094,0.065162
575,0.042325,0.152296,0.177343
576,0.025223,0.075232,0.383007
577,-0.008979,-0.021098,0.214736
578,-0.043182,-0.098162,0.121252
579,-0.008979,-0.001832,-0.009625
580,-0.008979,0.017434,-0.028322
581,-0.043182,0.0367,-0.27138
582,-0.043182,0.017434,-0.121806
583,-0.008979,0.017434,-0.028322
584,0.008122,0.017434,-0.159199
585,-0.008979,-0.021098,-0.121806
586,0.008122,-0.040364,0.046465
587,0.025223,-0.05963,-0.047018
588,0.008122,-0.05963,-0.047018
589,0.025223,-0.021098,0.326917
590,0.008122,-0.001832,0.4204
591,0.025223,0.055966,0.495188
592,0.059426,0.190828,0.36431
593,0.025223,0.094498,-0.140502
594,0.008122,-0.001832,-0.32747
595,-0.026081,0.017434,-0.215289
596,-0.060283,-0.078896,-0.32747
597,-0.026081,-0.117428,-0.420954
598,-0.008979,-0.15596,-0.607921
599,-0.008979,-0.15596,-0.065715
600,0.008122,0.094498,0.626065
601,0.008122,0.017434,0.513884
602,-0.026081,0.0367,0.30822
603,-0.008979,0.171562,-0.196593
604,0.008122,0.055966,-0.402257
605,0.008122,-0.098162,-0.402257
606,-0.026081,-0.194492,-0.215289
607,-0.026081,-0.098162,-0.177896
608,-0.043182,-0.021098,0.121252
609,-0.008979,0.055966,0.214736
610,0.008122,0.113764,0.009072
611,0.042325,0.0367,0.046465
612,0.059426,0.075232,0.177343
613,0.042325,0.094498,0.495188
614,0.059426,0.055966,0.457794
615,0.042325,0.075232,0.36431
616,0.025223,0.017434,-0.065715
617,-0.043182,0.017434,-0.121806
618,-0.026081,0.075232,-0.065715
619,-0.008979,-0.021098,-0.589224
620,-0.060283,-0.136694,-0.607921
621,-0.060283,-0.15596,-0.252683
622,-0.026081,-0.098162,-0.252683
623,0.025223,0.0367,0.289523
624,0.025223,0.017434,0.158646
625,0.059426,0.094498,0.102556
626,0.093629,0.152296,0.233433
627,0.042325,0.094498,0.401704
628,-0.008979,0.017434,-0.028322
629,-0.060283,-0.117428,-0.27138
630,-0.043182,-0.136694,-0.103109
631,-0.026081,-0.098162,-0.028322
632,-0.026081,-0.040364,0.158646
633,-0.008979,-0.021098,-0.028322
634,-0.026081,-0.098162,-0.028322
635,-0.026081,-0.194492,-0.065715
636,0.025223,-0.136694,0.121252
637,0.042325,-0.05963,0.233433
638,0.008122,-0.05963,-0.140502
639,-0.008979,-0.040364,-0.346167
640,0.025223,-0.021098,-0.514437
641,0.042325,0.152296,-0.103109
642,0.076527,0.248626,0.009072
643,0.076527,0.248626,0.607368
644,0.025223,0.171562,0.457794
645,-0.026081,0.055966,0.009072
646,-0.026081,0.055966,0.214736
647,-0.043182,-0.05963,-0.009625
648,-0.060283,-0.021098,-0.233986
649,-0.026081,0.055966,-0.103109
650,0.008122,-0.001832,0.027769
651,0.059426,0.075232,0.270826
652,0.059426,0.094498,0.233433
653,0.025223,-0.001832,0.046465
654,-0.008979,-0.05963,-0.009625
655,-0.026081,-0.136694,-0.084412
656,-0.008979,-0.098162,-0.177896
657,-0.008979,-0.040364,-0.177896
658,0.025223,0.0367,-0.514437
659,-0.026081,-0.078896,-0.290076
660,-0.026081,-0.098162,-0.103109
661,-0.026081,-0.098162,-0.028322
662,0.008122,-0.001832,0.214736
663,-0.008979,0.094498,0.214736
664,-0.026081,0.055966,0.083859
665,-0.008979,-0.021098,-0.065715
666,0.008122,-0.001832,0.270826
667,0.008122,-0.001832,0.270826
668,0.008122,-0.001832,0.027769
669,0.025223,0.055966,-0.028322
670,0.008122,0.075232,0.046465
671,0.025223,0.094498,0.065162
672,0.059426,0.094498,-0.028322
673,0.042325,0.0367,-0.140502
674,-0.008979,-0.078896,-0.215289
675,-0.008979,-0.117428,-0.177896
676,-0.043182,-0.098162,0.009072
677,-0.026081,0.017434,0.270826
678,-0.043182,-0.001832,-0.065715
679,-0.043182,-0.021098,-0.308773
680,-0.008979,-0.05963,-0.402257
681,-0.026081,-0.078896,-0.121806
682,-0.008979,-0.021098,0.027769
683,0.042325,0.094498,0.289523
684,0.042325,0.055966,0.233433
685,0.042325,0.075232,0.270826
686,0.008122,-0.001832,0.158646
687,0.025223,0.017434,0.30822
688,0.025223,0.017434,0.25213
689,0.008122,-0.078896,-0.065715
690,-0.008979,-0.136694,-0.27138
691,0.008122,-0.040364,-0.047018
692,0.008122,0.055966,0.270826
693,0.042325,0.22936,0.25213
694,-0.043182,0.075232,-0.626618
695,-0.026081,0.017434,-0.514437
696,-0.060283,-0.021098,-0.290076
697,-0.043182,-0.05963,0.065162
698,-0.008979,-0.001832,0.196039
699,-0.008979,0.0367,-0.047018
700,-0.026081,-0.001832,0.009072
701,0.008122,0.094498,0.009072
702,0.008122,-0.040364,0.065162
703,0.025223,-0.040364,0.027769
704,0.008122,-0.040364,-0.065715
705,-0.008979,-0.001832,0.177343
706,0.059426,0.094498,0.439097
707,0.11073,0.13303,0.756942
708,0.076527,0.075232,0.046465
709,-0.008979,-0.05963,-0.43965
710,-0.060283,-0.078896,-0.27138
711,-0.043182,-0.05963,-0.084412
712,-0.026081,0.055966,-0.028322
713,-0.026081,-0.001832,-0.103109
714,-0.026081,-0.05963,-0.308773
715,-0.026081,-0.040364,-0.121806
716,-0.043182,-0.098162,-0.065715
717,-0.026081,-0.05963,-0.177896
718,-0.008979,-0.021098,-0.252683
719,0.008122,-0.05963,-0.215289
720,0.008122,-0.078896,-0.028322
721,0.025223,-0.05963,0.158646
722,0.008122,-0.05963,0.139949
723,0.042325,0.017434,0.177343
724,0.059426,0.267892,0.551278
725,0.093629,0.248626,0.196039
726,0.093629,0.171562,0.196039
727,-0.008979,0.017434,0.065162
728,-0.077385,-0.15596,-0.290076
729,-0.111587,-0.117428,-0.233986
730,-0.026081,-0.021098,-0.458347
731,-0.043182,-0.021098,-0.43965
732,0.008122,0.094498,0.196039
733,0.025223,-0.001832,0.083859
734,-0.008979,-0.136694,-0.084412
735,-0.043182,-0.15596,0.401704
736,0.008122,-0.021098,0.513884
737,0.025223,0.267892,0.700852
738,0.059426,0.306424,-0.028322
739,0.025223,0.13303,-0.196593
740,0.008122,0.055966,0.009072
741,0.008122,0.0367,0.121252
742,0.042325,0.055966,0.139949
743,0.008122,-0.001832,0.046465
744,-0.026081,-0.078896,-0.308773
745,-0.026081,-0.136694,-0.196593
746,-0.008979,-0.194492,0.046465
747,0.008122,-0.136694,0.270826
748,0.008122,0.0367,0.383007
749,-0.008979,0.13303,0.177343
750,-0.026081,0.113764,-0.308773
751,0.008122,-0.001832,-0.43965
752,-0.008979,-0.117428,-0.32747
753,0.008122,-0.001832,0.046465
754,-0.008979,0.075232,0.121252
755,-0.043182,-0.021098,0.214736
756,-0.026081,-0.021098,-0.140502
757,-0.008979,-0.001832,-0.32747
758,-0.026081,0.0367,-0.252683
759,0.008122,0.017434,-0.009625
760,0.008122,0.0367,0.158646
761,0.008122,-0.021098,-0.009625
762,0.008122,0.0367,-0.215289
763,-0.008979,-0.001832,-0.32747
764,0.025223,0.017434,-0.121806
765,0.008122,-0.021098,0.065162
766,-0.043182,-0.098162,0.083859
767,-0.008979,-0.05963,0.158646
768,0.025223,-0.001832,-0.084412
769,-0.008979,-0.021098,-0.121806
770,-0.043182,-0.05963,0.009072
771,-0.043182,-0.021098,0.139949
772,-0.026081,-0.021098,0.177343
773,0.008122,-0.001832,0.121252
774,-0.008979,-0.021098,0.139949
775,0.008122,0.055966,0.027769
776,0.008122,0.055966,0.046465
777,0.042325,0.113764,0.30822
778,0.025223,0.055966,0.027769
779,0.025223,-0.001832,-0.290076
780,0.008122,-0.040364,-0.27138
781,-0.026081,-0.136694,-0.346167
782,-0.026081,-0.098162,0.065162
783,-0.026081,-0.040364,-0.233986
784,-0.026081,-0.001832,0.046465
785,0.008122,0.0367,-0.103109
786,0.008122,0.017434,0.30822
787,0.042325,0.0367,0.214736
788,0.042325,0.094498,0.214736
789,0.076527,0.190828,0.121252
790,-0.008979,0.017434,-0.308773
791,-0.043182,-0.078896,-0.028322
792,-0.008979,-0.001832,0.401704
793,0.025223,0.094498,0.401704
794,0.008122,0.055966,-0.028322
795,-0.008979,-0.001832,-0.065715
796,-0.008979,0.0367,0.121252
797,0.008122,0.0367,0.009072
798,-0.026081,-0.001832,-0.065715
799,-0.008979,-0.078896,-0.065715
800,-0.043182,-0.098162,-0.346167
801,-0.043182,-0.05963,-0.38356
802,-0.026081,-0.078896,-0.159199
803,0.008122,-0.021098,0.009072
804,0.025223,-0.001832,0.214736
805,0.025223,0.017434,0.345613
806,0.059426,0.13303,0.233433
807,0.042325,0.075232,-0.028322
808,0.025223,0.017434,-0.196593
809,-0.008979,-0.001832,-0.27138
810,-0.026081,-0.021098,-0.215289
811,-0.060283,-0.05963,-0.084412
812,-0.026081,-0.05963,-0.121806
813,-0.008979,-0.05963,-0.159199
814,0.008122,-0.001832,-0.009625
815,0.008122,-0.001832,0.102556
816,0.008122,-0.021098,0.027769
817,-0.008979,-0.001832,0.027769
818,0.025223,-0.001832,0.027769
819,0.008122,-0.001832,-0.103109
820,0.008122,-0.040364,-0.047018
821,-0.008979,-0.001832,0.046465
822,0.008122,0.017434,0.233433
823,0.025223,-0.001832,0.270826
824,0.008122,-0.021098,0.102556
825,0.008122,-0.001832,-0.140502
826,0.008122,-0.001832,-0.084412
827,0.025223,0.055966,-0.028322
828,-0.008979,0.017434,-0.140502
829,0.008122,-0.021098,-0.159199
830,0.008122,-0.040364,-0.159199
831,0.008122,-0.05963,-0.084412
832,0.008122,-0.021098,0.121252
833,0.008122,-0.001832,0.196039
834,-0.008979,0.017434,0.233433
835,-0.008979,0.075232,0.139949
836,0.025223,0.075232,-0.047018
837,0.042325,0.055966,0.083859
838,0.042325,0.075232,0.233433
839,0.008122,0.094498,0.270826
840,-0.026081,0.017434,0.102556
841,0.008122,-0.001832,0.027769
842,0.008122,-0.040364,0.065162
843,-0.026081,-0.040364,0.158646
844,0.008122,-0.001832,-0.140502
845,0.025223,-0.001832,-0.196593
846,-0.008979,-0.021098,-0.196593
847,-0.026081,-0.021098,-0.252683
848,-0.026081,-0.05963,-0.121806
849,-0.008979,-0.021098,-0.103109
850,0.008122,-0.040364,-0.028322
851,0.008122,-0.001832,0.009072
852,0.025223,-0.001832,-0.047018
853,0.008122,-0.021098,-0.047018
854,-0.008979,-0.021098,-0.028322
855,-0.008979,-0.001832,-0.065715
856,0.008122,-0.001832,0.027769
857,-0.008979,-0.021098,0.027769
858,0.008122,-0.05963,0.065162
859,0.042325,-0.001832,0.065162
860,0.042325,0.0367,-0.103109
861,0.008122,0.094498,-0.065715
862,-0.008979,0.075232,-0.065715
863,0.008122,0.017434,0.065162
864,-0.026081,0.0367,0.139949
865,-0.026081,-0.001832,0.102556
866,-0.008979,0.017434,0.083859
867,0.008122,0.017434,0.102556
868,0.008122,-0.001832,0.046465
869,0.008122,0.0367,-0.028322
870,-0.008979,-0.021098,0.046465
871,-0.026081,-0.040364,-0.065715
872,-0.043182,-0.078896,-0.103109
873,-0.026081,-0.078896,-0.028322
874,-0.060283,-0.078896,-0.009625
875,-0.026081,-0.040364,0.009072
876,-0.043182,-0.021098,0.009072
877,-0.060283,-0.040364,-0.028322
878,-0.094486,-0.078896,-0.009625
879,0.008122,-0.098162,0.027769
880,0.042325,-0.078896,-0.028322
881,0.008122,-0.040364,0.027769
882,-0.008979,-0.001832,-0.009625
883,0.042325,0.075232,-0.009625
884,0.042325,0.113764,-0.009625
885,0.059426,0.113764,-0.028322
886,0.042325,0.113764,-0.028322
887,0.042325,0.13303,-0.028322
888,0.008122,0.113764,0.009072
889,0.042325,0.13303,-0.065715
890,0.093629,0.075232,0.009072
891,0.127831,0.055966,0.139949
892,0.093629,0.0367,0.158646
893,0.059426,-0.001832,0.065162
894,0.059426,0.055966,0.121252
895,0.059426,0.017434,0.046465
896,0.059426,0.017434,0.065162
897,-0.008979,-0.040364,-0.009625
898,-0.111587,-0.15596,-0.084412
899,-0.060283,-0.117428,-0.028322
900,-0.060283,-0.098162,-0.009625
901,-0.026081,-0.117428,-0.084412
902,-0.008979,-0.117428,-0.084412
903,-0.043182,-0.05963,-0.065715
904,-0.060283,-0.001832,-0.047018
905,-0.094486,0.017434,-0.028322
906,-0.111587,0.094498,0.046465
907,-0.077385,0.075232,0.009072
908,-0.060283,0.113764,0.046465
909,-0.026081,0.0367,0.027769
910,0.042325,-0.021098,-0.028322
911,0.093629,-0.040364,-0.047018
912,0.025223,0.017434,-0.028322
913,0.025223,0.075232,-0.009625
914,-0.008979,0.094498,-0.028322
915,0.076527,0.075232,-0.009625
916,0.127831,0.0367,-0.103109
917,0.093629,0.075232,-0.103109
918,0.093629,0.055966,-0.065715
919,0.059426,0.0367,0.009072
920,0.076527,0.075232,0.177343
921,0.059426,0.017434,0.139949
922,0.042325,-0.05963,0.046465
923,0.025223,-0.078896,0.065162
924,-0.008979,-0.040364,0.158646
925,-0.008979,-0.001832,0.046465
926,-0.026081,-0.021098,-0.009625
927,-0.008979,0.017434,-0.047018
928,-0.008979,0.017434,-0.140502
929,-0.008979,-0.040364,-0.028322
930,-0.026081,-0.021098,0.009072
931,0.008122,0.017434,0.027769
932,-0.026081,-0.021098,-0.028322
933,-0.026081,-0.05963,-0.009625
934,-0.008979,-0.078896,-0.028322
935,-0.026081,-0.001832,-0.028322
936,-0.026081,0.0367,-0.047018
937,-0.026081,0.055966,-0.028322
938,-0.008979,0.017434,-0.047018
939,-0.008979,-0.001832,0.046465
940,0.025223,0.017434,0.083859
941,0.025223,0.017434,0.027769
942,0.042325,0.0367,0.158646
943,0.042325,0.075232,0.083859
944,0.008122,0.017434,0.027769
945,0.008122,0.017434,0.027769
946,0.008122,-0.001832,-0.084412
947,0.008122,0.017434,-0.103109
948,0.008122,-0.001832,-0.121806
949,-0.026081,-0.021098,-0.065715
950,-0.008979,-0.021098,-0.103109
951,-0.008979,-0.040364,-0.009625
952,-0.026081,-0.040364,0.046465
953,-0.026081,-0.021098,0.027769
954,-0.008979,-0.021098,-0.009625
955,-0.026081,-0.040364,-0.047018
956,-0.043182,-0.098162,0.009072
957,-0.026081,-0.098162,0.009072
958,-0.008979,-0.021098,0.027769
959,0.008122,-0.05963,0.009072
960,-0.008979,-0.040364,0.009072
961,-0.008979,-0.021098,0.009072
962,0.008122,-0.021098,0.046465
963,-0.008979,-0.001832,-0.009625
964,0.008122,0.0367,0.027769
965,0.025223,0.055966,0.009072
966,0.025223,0.055966,-0.009625
967,-0.043182,0.0367,-0.009625
968,0.008122,0.0367,0.046465
969,0.025223,0.055966,-0.009625
970,0.008122,0.0367,-0.028322
971,0.008122,0.0367,-0.009625
972,0.025223,0.0367,-0.103109
973,0.008122,0.055966,0.177343
974,0.008122,0.017434,0.177343
975,-0.008979,-0.021098,0.009072
976,-0.026081,-0.098162,0.009072
977,-0.026081,-0.117428,-0.177896
978,-0.060283,-0.040364,-0.121806
979,-0.043182,-0.021098,-0.065715
980,-0.043182,-0.078896,0.009072
981,-0.077385,-0.05963,-0.009625
982,-0.060283,-0.05963,0.009072
983,-0.026081,-0.021098,0.009072
984,0.025223,-0.001832,0.009072
985,0.042325,0.017434,0.009072
986,-0.008979,0.0367,0.009072
987,-0.043182,-0.001832,-0.009625
988,-0.008979,-0.040364,-0.047018
989,0.059426,0.017434,0.009072
990,0.076527,0.075232,0.009072
991,0.042325,0.094498,0.009072
992,0.059426,0.113764,0.046465
993,0.025223,0.152296,0.046465
994,0.059426,0.152296,0.046465
995,0.059426,0.094498,0.027769
996,0.076527,0.017434,0.009072
997,0.093629,-0.001832,0.027769
998,0.076527,-0.001832,0.065162
999,-0.060283,-0.040364,0.027769
1000,-0.043182,-0.040364,-0.047018
1001,-0.026081,-0.05963,-0.065715
1002,0.008122,-0.117428,-0.084412
1003,0.008122,-0.117428,-0.047018
1004,-0.026081,-0.117428,0.009072
1005,-0.008979,-0.136694,0.065162
1006,-0.008979,-0.05963,0.046465
1007,0.008122,-0.021098,0.065162
1008,-0.008979,-0.040364,0.027769
1009,-0.043182,0.017434,-0.047018
1010,-0.077385,0.055966,-0.047018
1011,-0.060283,0.094498,-0.028322
1012,-0.077385,0.094498,-0.065715
1013,-0.043182,0.094498,-0.009625
1014,-0.026081,0.13303,-0.009625
1015,0.025223,0.094498,0.009072
1016,0.025223,0.13303,0.009072
1017,0.042325,0.094498,0.009072
1018,0.059426,0.113764,-0.009625
1019,0.093629,0.055966,-0.009625
1020,0.076527,0.017434,0.046465
1021,0.025223,-0.001832,-0.028322
1022,0.008122,-0.021098,-0.084412
1023,0.008122,0.017434,0.046465
1024,0.008122,-0.021098,-0.028322
1025,0.008122,-0.021098,-0.065715
1026,0.008122,-0.021098,0.009072
1027,0.025223,0.094498,0.121252
1028,0.042325,0.075232,0.083859
1029,0.025223,0.0367,0.102556
1030,0.008122,-0.001832,0.046465
1031,0.008122,0.017434,0.009072
1032,-0.008979,-0.001832,0.009072
1033,-0.008979,-0.021098,-0.028322
1034,-0.008979,-0.001832,-0.009625
1035,0.008122,-0.021098,-0.009625
1036,-0.043182,-0.078896,0.027769
1037,-0.026081,-0.098162,0.027769
1038,-0.026081,-0.078896,0.027769
1039,-0.008979,-0.040364,0.027769
1040,-0.008979,-0.040364,0.009072
1041,-0.008979,-0.001832,-0.009625
1042,0.008122,0.017434,-0.009625
1043,-0.008979,0.0367,-0.028322
1044,0.025223,0.055966,0.009072
1045,0.025223,0.055966,0.027769
1046,0.025223,0.055966,0.046465
1047,0.008122,0.017434,0.065162
1048,0.025223,-0.001832,0.083859
1049,0.025223,-0.021098,0.009072
1050,0.008122,-0.040364,-0.009625
1051,-0.026081,-0.021098,0.027769
1052,0.008122,-0.001832,0.009072
1053,0.008122,-0.021098,0.027769
1054,-0.008979,-0.05963,0.046465
1055,-0.008979,-0.040364,0.046465
1056,-0.060283,-0.040364,0.027769
1057,-0.026081,-0.117428,-0.047018
1058,-0.008979,-0.15596,-0.009625
1059,-0.008979,-0.098162,-0.065715
1060,0.008122,-0.078896,-0.047018
1061,0.008122,-0.05963,-0.047018
1062,-0.094486,-0.001832,-0.009625
1063,-0.008979,0.0367,0.009072
1064,0.076527,0.094498,-0.009625
1065,0.076527,0.152296,-0.009625
1066,0.042325,0.152296,-0.065715
1067,0.008122,0.094498,-0.065715
1068,0.008122,0.055966,-0.028322
1069,-0.043182,0.075232,-0.009625
1070,-0.060283,0.113764,0.009072
1071,0.025223,0.055966,-0.009625
1072,0.025223,-0.001832,0.009072
1073,0.025223,-0.021098,-0.009625
1074,-0.008979,-0.05963,0.009072
1075,0.008122,-0.117428,0.027769
1076,0.008122,-0.078896,-0.009625
1077,0.025223,-0.040364,0.027769
1078,0.025223,0.017434,0.083859
1079,0.008122,0.075232,0.046465
1080,0.008122,0.075232,0.009072
1081,-0.008979,0.075232,0.083859
1082,0.008122,-0.001832,0.065162
1083,-0.026081,-0.040364,-0.009625
1084,-0.008979,-0.078896,-0.065715
1085,0.025223,-0.098162,-0.047018
1086,0.008122,-0.05963,-0.103109
1087,-0.043182,-0.040364,-0.009625
1088,-0.094486,-0.021098,0.027769
1089,-0.077385,0.055966,-0.009625
1090,-0.077385,0.094498,-0.009625
1091,-0.043182,0.094498,0.009072
1092,0.059426,0.055966,0.009072
1093,0.127831,0.0367,0.009072
1094,0.162034,0.075232,0.009072
1095,0.11073,0.055966,-0.028322
1096,-0.060283,-0.021098,-0.028322
1097,-0.026081,-0.001832,0.027769
1098,0.008122,0.017434,0.046465
1099,0.093629,0.0367,0.083859
1100,0.076527,0.0367,0.046465
1101,0.025223,0.0367,0.009072
1102,0.025223,0.094498,0.065162
1103,0.008122,0.0367,0.009072
1104,0.008122,0.017434,-0.009625
1105,0.008122,-0.021098,-0.047018
1106,0.025223,-0.021098,0.009072
1107,-0.008979,-0.098162,0.009072
1108,-0.043182,-0.117428,-0.047018
1109,-0.043182,-0.05963,0.009072
1110,-0.026081,-0.078896,0.027769
1111,-0.008979,-0.117428,0.009072
1112,-0.008979,-0.078896,0.046465
1113,0.025223,-0.05963,-0.009625
1114,0.025223,0.094498,-0.047018
1115,0.008122,0.075232,-0.009625
1116,-0.043182,0.13303,-0.009625
1117,0.008122,0.113764,-0.028322
1118,0.025223,0.0367,0.009072
1119,-0.008979,0.075232,-0.009625
1120,-0.008979,0.055966,0.027769
1121,0.008122,0.017434,0.027769
1122,-0.008979,-0.021098,0.009072
1123,-0.008979,-0.001832,-0.009625
1124,-0.008979,-0.001832,0.009072
1125,-0.026081,-0.001832,-0.028322
1126,-0.008979,-0.021098,-0.028322
1127,-0.043182,-0.021098,-0.028322
1128,-0.043182,-0.001832,-0.028322
1129,-0.043182,0.017434,-0.028322
1130,-0.008979,0.055966,0.009072
1131,-0.008979,-0.021098,0.046465
1132,0.008122,-0.05963,-0.009625
1133,0.008122,-0.098162,-0.009625
1134,-0.008979,-0.117428,0.027769
1135,0.093629,-0.136694,0.009072
1136,0.076527,-0.136694,-0.009625
1137,-0.008979,-0.136694,0.027769
1138,0.008122,-0.098162,0.009072
1139,-0.008979,-0.078896,-0.009625
1140,-0.008979,-0.040364,-0.009625
1141,-0.128689,-0.040364,-0.047018
1142,-0.077385,0.055966,-0.009625
1143,-0.008979,0.0367,0.027769
1144,0.076527,0.0367,0.027769
1145,0.042325,0.0367,0.009072
1146,-0.008979,0.13303,0.027769
1147,0.042325,0.248626,-0.009625
1148,0.059426,0.210094,-0.009625
1149,0.076527,0.22936,-0.009625
1150,0.11073,0.210094,-0.028322
1151,-0.008979,0.171562,-0.009625
1152,0.076527,0.113764,0.009072
1153,0.11073,0.055966,-0.009625
1154,-0.043182,0.055966,-0.009625
1155,0.008122,0.017434,0.027769
1156,-0.008979,-0.021098,0.046465
1157,-0.008979,-0.021098,0.009072
1158,-0.026081,-0.040364,0.046465
1159,-0.026081,-0.040364,-0.009625
1160,-0.060283,-0.05963,-0.047018
1161,-0.060283,-0.117428,-0.009625
1162,-0.060283,-0.05963,0.009072
1163,-0.043182,0.017434,0.009072
1164,0.025223,0.075232,0.027769
1165,0.059426,-0.001832,0.027769
1166,0.042325,0.017434,0.009072
1167,0.042325,0.055966,0.009072
1168,0.076527,0.055966,0.009072
1169,0.059426,0.055966,0.027769
1170,0.059426,0.017434,0.027769
1171,0.008122,0.017434,0.046465
1172,-0.008979,0.017434,0.027769
1173,0.008122,-0.021098,-0.009625
1174,0.008122,-0.021098,-0.009625
1175,-0.008979,-0.001832,-0.009625
1176,-0.008979,-0.021098,0.009072
1177,-0.008979,-0.040364,0.027769
1178,0.008122,-0.117428,-0.047018
1179,0.008122,-0.098162,-0.028322
1180,0.008122,-0.136694,-0.009625
1181,0.025223,-0.078896,-0.009625
1182,-0.026081,-0.040364,-0.009625
1183,-0.060283,-0.021098,-0.028322
1184,-0.060283,-0.021098,-0.084412
1185,-0.043182,0.017434,-0.028322
1186,-0.14579,-0.021098,-0.009625
1187,-0.094486,-0.078896,-0.028322
1188,-0.077385,-0.05963,-0.028322
1189,0.042325,0.017434,-0.009625
1190,0.179135,0.055966,-0.009625
1191,0.196237,0.094498,-0.009625
1192,0.144933,0.13303,0.027769
1193,0.076527,0.113764,-0.009625
1194,0.042325,0.075232,0.009072
1195,-0.060283,0.055966,0.027769
1196,-0.077385,0.0367,0.027769
1197,-0.060283,-0.021098,0.027769
1198,-0.077385,-0.040364,0.065162
1199,-0.043182,-0.098162,0.046465
1200,0.025223,-0.15596,0.027769
1201,-0.008979,-0.15596,0.009072
1202,-0.026081,-0.233024,-0.028322
1203,-0.026081,-0.290821,-0.084412
1204,-0.008979,-0.310087,-0.047018
1205,-0.008979,-0.252289,-0.047018
1206,-0.026081,-0.271555,-0.084412
1207,-0.026081,-0.252289,0.027769
1208,0.042325,-0.15596,0.009072
1209,0.059426,-0.040364,-0.009625
1210,0.059426,0.113764,0.009072
1211,0.11073,0.32569,0.009072
1212,-0.077385,0.441286,0.009072
1213,-0.060283,0.479818,-0.028322
1214,0.008122,0.51835,0.009072
1215,0.059426,0.383488,-0.047018
1216,-0.026081,0.171562,-0.009625
1217,-0.008979,0.094498,0.027769
1218,0.076527,0.094498,0.009072
1219,0.093629,0.094498,0.009072
1220,0.076527,0.113764,-0.009625
1221,-0.008979,0.055966,-0.028322
1222,-0.043182,0.055966,-0.028322
1223,-0.008979,0.017434,0.009072
1224,0.042325,-0.05963,-0.009625
1225,0.008122,-0.021098,0.027769
1226,-0.026081,-0.040364,0.027769
1227,0.008122,0.017434,0.046465
1228,-0.008979,-0.021098,0.027769
1229,-0.008979,0.055966,0.046465
1230,-0.026081,-0.001832,0.009072
1231,0.059426,-0.05963,0.009072
1232,0.076527,-0.098162,-0.009625
1233,0.093629,-0.078896,-0.028322
1234,0.042325,-0.117428,-0.009625
1235,-0.060283,-0.117428,0.009072
1236,-0.094486,-0.05963,-0.047018
1237,-0.197094,-0.05963,-0.009625
1238,-0.214196,-0.021098,0.027769
1239,-0.060283,0.055966,0.009072
1240,0.059426,0.055966,-0.009625
1241,0.093629,0.017434,0.027769
1242,0.144933,0.017434,-0.009625
1243,0.127831,-0.001832,-0.028322
1244,0.076527,-0.021098,-0.047018
1245,0.008122,0.017434,-0.028322
1246,0.008122,0.055966,-0.009625
1247,-0.008979,0.113764,0.009072
1248,-0.026081,0.094498,0.065162
1249,-0.026081,0.017434,0.027769
1250,-0.008979,-0.001832,0.027769
1251,-0.008979,-0.021098,0.027769
1252,0.008122,-0.021098,-0.009625
1253,-0.008979,-0.001832,0.009072
1254,0.008122,-0.040364,0.027769
1255,-0.008979,-0.021098,-0.009625
1256,0.008122,-0.001832,0.009072
1257,-0.026081,-0.021098,-0.009625
1258,-0.026081,-0.021098,-0.009625
1259,0.008122,-0.040364,-0.047018
1260,-0.026081,-0.021098,-0.009625
1261,-0.043182,-0.021098,-0.028322
1262,-0.043182,0.017434,0.027769
1263,-0.026081,-0.021098,-0.028322
1264,-0.008979,-0.040364,-0.028322
1265,-0.026081,-0.040364,-0.028322
1266,0.008122,-0.040364,-0.009625
1267,0.008122,-0.021098,-0.028322
1268,0.025223,-0.001832,-0.009625
1269,0.042325,0.0367,0.027769
1270,0.025223,-0.001832,0.046465
1271,0.025223,0.0367,-0.009625
1272,0.008122,0.017434,0.009072
1273,0.008122,0.017434,-0.009625
1274,0.008122,0.017434,0.009072
1275,0.008122,-0.001832,0.027769
1276,-0.008979,-0.05963,0.027769
1277,-0.043182,-0.05963,0.009072
1278,-0.060283,-0.040364,-0.009625
1279,-0.060283,-0.040364,0.009072
1280,-0.026081,-0.021098,0.027769
1281,0.008122,-0.001832,0.046465
1282,0.042325,0.017434,0.009072
1283,0.059426,0.017434,-0.028322
1284,0.042325,-0.040364,-0.028322
1285,0.025223,-0.078896,-0.065715
1286,-0.008979,-0.040364,-0.047018
1287,-0.026081,-0.05963,-0.028322
1288,0.008122,-0.001832,-0.028322
1289,0.008122,-0.040364,-0.009625
1290,-0.008979,-0.001832,0.027769
1291,0.008122,0.055966,0.065162
1292,0.025223,0.055966,0.065162
1293,0.042325,-0.021098,0.065162
1294,0.059426,0.017434,0.046465
1295,0.025223,0.017434,0.046465
1296,0.025223,0.017434,0.046465
1297,0.059426,0.075232,0.046465
1298,0.093629,0.0367,-0.009625
1299,0.093629,0.113764,0.009072
1300,0.11073,0.113764,0.065162
1301,-0.026081,0.075232,0.009072
1302,-0.14579,0.0367,-0.009625
1303,-0.111587,0.0367,-0.009625
1304,-0.060283,-0.001832,-0.009625
1305,-0.060283,-0.05963,-0.047018
1306,-0.026081,-0.021098,-0.028322
1307,-0.043182,-0.040364,-0.028322
1308,-0.026081,-0.117428,-0.065715
1309,-0.026081,-0.194492,-0.103109
1310,-0.026081,-0.194492,-0.084412
1311,0.008122,-0.098162,-0.028322
1312,0.008122,-0.021098,0.027769
1313,0.008122,0.017434,0.009072
1314,-0.008979,0.0367,0.027769
1315,0.008122,0.13303,-0.047018
1316,0.025223,0.13303,-0.047018
1317,0.042325,0.055966,-0.047018
1318,0.025223,-0.021098,-0.028322
1319,0.008122,0.017434,-0.028322
1320,0.008122,-0.040364,0.009072
1321,0.025223,-0.040364,0.046465
1322,-0.008979,0.017434,0.046465
1323,0.008122,0.055966,0.046465
1324,0.025223,-0.040364,0.046465
1325,0.008122,-0.05963,0.009072
1326,0.025223,-0.021098,-0.009625
1327,0.008122,0.017434,-0.009625
1328,-0.008979,0.055966,-0.028322
1329,-0.008979,0.113764,0.009072
1330,0.025223,0.171562,0.027769
1331,0.025223,0.267892,0.065162
1332,-0.008979,0.113764,0.027769
1333,0.025223,0.0367,0.027769
1334,0.042325,-0.001832,-0.009625
1335,0.059426,-0.001832,-0.009625
1336,-0.026081,0.017434,0.027769
1337,-0.060283,0.017434,-0.009625
1338,-0.026081,-0.001832,-0.028322
1339,-0.026081,0.017434,-0.009625
1340,0.008122,-0.021098,-0.047018
1341,0.008122,-0.040364,-0.009625
1342,0.076527,-0.001832,0.027769
1343,0.144933,0.0367,0.027769
1344,0.11073,-0.05963,0.009072
1345,0.076527,-0.078896,0.046465
1346,0.008122,-0.021098,-0.009625
1347,-0.094486,-0.040364,-0.028322
1348,-0.128689,-0.001832,-0.028322
1349,-0.077385,-0.001832,0.009072
1350,-0.026081,0.0367,-0.028322
1351,-0.008979,0.055966,0.009072
1352,0.008122,0.075232,0.027769
1353,0.008122,0.017434,0.009072
1354,0.008122,-0.05963,0.065162
1355,0.008122,-0.136694,0.027769
1356,-0.026081,-0.136694,0.046465
1357,-0.008979,-0.117428,0.027769
1358,-0.008979,-0.098162,0.065162
1359,0.008122,-0.001832,0.046465
1360,0.008122,0.055966,-0.009625
1361,0.008122,0.13303,-0.047018
1362,0.042325,0.210094,-0.028322
1363,0.025223,0.152296,-0.028322
1364,-0.008979,0.055966,-0.028322
1365,-0.008979,-0.001832,-0.009625
1366,-0.026081,0.017434,-0.009625
1367,-0.008979,0.017434,-0.065715
1368,0.008122,0.017434,-0.065715
1369,0.025223,0.0367,-0.047018
1370,0.025223,0.0367,-0.009625
1371,0.025223,0.0367,-0.009625
1372,0.025223,0.0367,0.009072
1373,0.008122,-0.021098,0.065162
1374,-0.008979,-0.001832,0.083859
1375,-0.008979,-0.021098,0.083859
1376,0.008122,-0.040364,0.083859
1377,-0.008979,-0.021098,0.027769
1378,-0.008979,-0.021098,-0.028322
1379,0.025223,-0.021098,-0.103109
1380,-0.008979,0.017434,-0.103109
1381,-0.008979,-0.001832,-0.047018
1382,0.008122,-0.021098,-0.028322
1383,0.008122,-0.001832,0.009072
1384,0.008122,0.0367,0.009072
1385,0.008122,0.017434,-0.028322
1386,0.008122,0.017434,-0.028322
1387,-0.008979,-0.001832,-0.028322
1388,-0.026081,-0.05963,0.009072
1389,0.008122,-0.021098,0.009072
1390,0.008122,-0.078896,-0.028322
1391,-0.008979,-0.05963,0.009072
1392,-0.008979,-0.098162,-0.028322
1393,-0.026081,-0.117428,0.009072
1394,-0.026081,-0.136694,0.065162
1395,-0.026081,-0.117428,0.027769
1396,0.008122,-0.040364,-0.009625
1397,0.025223,0.094498,0.027769
1398,0.008122,0.0367,0.009072
1399,-0.008979,0.113764,0.009072
1400,0.008122,0.190828,0.009072
1401,0.025223,0.171562,0.027769
1402,0.025223,0.094498,0.009072
1403,0.008122,0.0367,0.027769
1404,0.008122,0.017434,0.046465
1405,0.008122,0.017434,0.046465
1406,0.025223,0.017434,0.027769
1407,-0.008979,-0.001832,-0.009625
1408,-0.008979,-0.040364,-0.009625
1409,-0.008979,-0.05963,0.027769
1410,-0.008979,-0.098162,0.065162
1411,-0.008979,-0.136694,-0.009625
1412,0.008122,-0.194492,-0.047018
1413,0.008122,-0.117428,0.009072
1414,-0.026081,-0.001832,-0.028322
1415,-0.043182,0.055966,0.009072
1416,-0.008979,0.017434,0.027769
1417,0.025223,0.075232,-0.009625
1418,0.042325,0.171562,-0.009625
1419,0.042325,0.190828,-0.047018
1420,-0.008979,0.017434,-0.065715
1421,-0.008979,0.017434,-0.028322
1422,0.025223,0.055966,0.027769
1423,0.025223,0.152296,-0.009625
1424,-0.008979,0.055966,0.027769
1425,-0.008979,-0.098162,0.046465
1426,-0.026081,-0.252289,0.027769
1427,0.008122,-0.367885,0.046465
1428,0.008122,-0.348619,0.065162
1429,0.025223,-0.348619,0.009072
1430,0.025223,-0.175226,-0.009625
1431,0.059426,0.055966,0.009072
1432,0.059426,0.210094,-0.009625
1433,-0.111587,0.402754,-0.047018
1434,-0.043182,0.402754,0.027769
1435,-0.008979,0.306424,0.009072
1436,0.008122,0.075232,-0.028322
1437,-0.008979,0.152296,0.009072
1438,-0.008979,0.075232,-0.028322
1439,-0.043182,0.075232,-0.047018
1440,-0.026081,0.075232,-0.009625
1441,0.025223,0.171562,-0.009625
1442,0.008122,0.113764,-0.009625
1443,0.008122,0.075232,0.009072
1444,0.008122,0.055966,-0.009625
1445,0.008122,0.0367,0.009072
1446,0.076527,-0.001832,0.027769
1447,0.076527,-0.021098,0.027769
1448,0.025223,-0.021098,-0.009625
1449,0.008122,-0.021098,0.027769
1450,0.008122,-0.021098,-0.009625
1451,0.008122,-0.040364,-0.028322
1452,0.008122,-0.078896,-0.028322
1453,-0.008979,-0.098162,-0.009625
1454,0.008122,-0.040364,-0.009625
1455,0.008122,-0.040364,0.027769
1456,0.025223,-0.040364,0.027769
1457,0.008122,0.017434,0.009072
1458,0.008122,0.0367,0.027769
1459,0.008122,0.0367,0.046465
1460,0.008122,0.017434,0.027769
1461,-0.008979,-0.021098,-0.009625
1462,-0.008979,-0.021098,0.046465
1463,0.008122,-0.040364,0.009072
1464,-0.008979,-0.021098,0.027769
1465,0.008122,-0.021098,0.027769
1466,0.025223,-0.021098,-0.028322
1467,-0.008979,-0.001832,0.027769
1468,0.008122,-0.001832,0.027769
1469,0.008122,-0.001832,-0.028322
1470,-0.008979,-0.001832,0.009072
1471,-0.008979,-0.040364,-0.065715
1472,0.008122,-0.05963,-0.121806
1473,0.008122,-0.001832,-0.065715
1474,0.008122,-0.021098,0.027769
1475,0.008122,-0.001832,-0.028322
1476,0.008122,0.017434,0.009072
1477,0.008122,-0.001832,0.027769
1478,0.008122,0.017434,0.046465
1479,-0.008979,0.017434,0.027769
1480,-0.026081,-0.001832,0.065162
1481,-0.008979,-0.021098,0.009072
1482,-0.026081,-0.001832,-0.028322
1483,-0.008979,-0.040364,-0.009625
1484,-0.008979,-0.021098,0.009072
1485,-0.008979,-0.001832,-0.009625
1486,0.025223,-0.021098,0.009072
1487,0.008122,-0.040364,0.046465
1488,0.025223,0.0367,0.027769
1489,-0.008979,-0.001832,0.027769
1490,-0.008979,-0.021098,-0.028322
1491,-0.008979,-0.05963,-0.103109
1492,-0.008979,-0.001832,-0.009625
1493,-0.008979,0.017434,-0.047018
1494,-0.008979,0.017434,-0.009625
1495,-0.008979,-0.001832,0.046465
1496,0.008122,0.017434,0.027769
1497,0.025223,-0.001832,0.065162
1498,0.008122,0.017434,0.027769
1499,-0.008979,-0.001832,-0.009625
1500,-0.008979,-0.001832,-0.028322
1501,-0.008979,-0.001832,-0.028322
1502,0.025223,-0.021098,-0.047018
1503,0.025223,-0.021098,-0.047018
1504,0.025223,-0.078896,-0.065715
1505,0.008122,-0.078896,-0.028322
1506,0.008122,-0.040364,-0.028322
1507,-0.008979,-0.001832,0.009072
1508,-0.008979,0.055966,0.027769
1509,-0.008979,0.094498,0.027769
1510,0.025223,0.094498,0.046465
1511,0.025223,0.113764,0.046465
1512,0.008122,0.075232,0.027769
1513,-0.026081,-0.040364,-0.009625
1514,-0.026081,-0.078896,0.009072
1515,-0.008979,-0.05963,-0.009625
1516,-0.008979,-0.078896,0.009072
1517,-0.008979,-0.15596,-0.009625
1518,-0.026081,-0.098162,-0.028322
1519,0.008122,-0.040364,-0.028322
1520,0.008122,0.017434,-0.028322
1521,0.008122,0.075232,-0.009625
1522,0.008122,0.075232,0.027769
1523,0.025223,0.152296,0.027769
1524,0.025223,0.171562,-0.009625
1525,0.008122,0.152296,-0.009625
1526,0.025223,0.075232,0.009072
1527,-0.008979,0.055966,0.009072
1528,-0.008979,0.017434,0.027769
1529,0.008122,-0.001832,0.027769
1530,0.008122,-0.021098,0.027769
1531,0.008122,-0.021098,0.009072
1532,0.025223,-0.021098,0.027769
1533,0.008122,-0.05963,0.027769
1534,-0.008979,-0.001832,-0.009625
1535,0.008122,0.017434,-0.009625
1536,0.025223,0.017434,0.009072
1537,0.008122,-0.021098,0.009072
1538,-0.026081,-0.05963,0.046465
1539,-0.008979,-0.078896,0.009072
1540,0.025223,-0.040364,-0.028322
1541,0.042325,0.017434,-0.009625
1542,0.042325,0.017434,-0.009625
1543,0.042325,0.055966,0.009072
1544,0.042325,0.094498,0.027769
1545,0.008122,0.094498,-0.009625
1546,-0.111587,0.017434,-0.009625
1547,-0.060283,0.0367,-0.009625
1548,-0.026081,0.0367,0.027769
1549,-0.008979,-0.001832,0.009072
1550,0.025223,-0.021098,0.027769
1551,0.042325,-0.001832,0.027769
1552,0.042325,-0.001832,0.027769
1553,0.025223,-0.040364,0.027769
1554,0.008122,0.017434,0.046465
1555,-0.026081,-0.021098,-0.009625
1556,-0.008979,-0.021098,-0.028322
1557,-0.008979,-0.001832,-0.009625
1558,-0.008979,0.017434,0.009072
1559,0.008122,0.017434,0.009072
1560,0.008122,-0.001832,0.027769
1561,-0.008979,-0.001832,0.065162
1562,-0.008979,-0.040364,0.027769
1563,-0.008979,-0.040364,0.027769
1564,-0.008979,-0.021098,-0.009625
1565,-0.008979,-0.040364,0.009072
1566,0.025223,-0.021098,0.046465
1567,0.008122,-0.021098,0.009072
1568,-0.008979,0.017434,-0.009625
1569,0.008122,0.055966,-0.009625
1570,0.025223,0.055966,-0.028322
1571,0.008122,-0.001832,-0.009625
1572,0.008122,-0.001832,-0.009625
1573,0.008122,-0.021098,-0.009625
1574,-0.008979,-0.001832,-0.028322
1575,-0.008979,-0.001832,-0.009625
1576,-0.008979,-0.001832,-0.065715
1577,-0.008979,-0.021098,-0.103109
1578,0.008122,-0.001832,-0.084412
1579,0.008122,-0.021098,-0.009625
1580,0.008122,-0.001832,-0.028322
1581,0.008122,0.0367,0.027769
1582,-0.008979,-0.001832,0.065162
1583,0.008122,0.017434,0.046465
1584,0.025223,-0.001832,0.027769
1585,0.008122,-0.021098,0.046465
1586,0.008122,-0.040364,0.009072
1587,-0.008979,-0.021098,-0.009625
1588,0.025223,0.017434,0.009072
1589,0.008122,-0.021098,-0.047018
1590,0.008122,0.017434,-0.047018
1591,0.008122,0.0367,-0.065715
1592,0.008122,0.017434,-0.065715
1593,-0.026081,-0.001832,0.009072
1594,-0.008979,-0.001832,0.046465
1595,0.008122,-0.040364,0.027769
1596,-0.008979,-0.001832,0.027769
1597,-0.008979,-0.001832,0.046465
1598,0.008122,-0.001832,0.009072
1599,0.008122,-0.001832,-0.009625
1600,0.008122,-0.001832,-0.009625
1601,0.008122,0.017434,-0.009625
1602,0.008122,-0.021098,-0.009625
1603,0.008122,-0.078896,0.009072
1604,-0.008979,-0.098162,0.027769
1605,-0.008979,-0.078896,-0.009625
1606,0.008122,-0.117428,0.027769
1607,0.008122,-0.136694,-0.028322
1608,-0.026081,-0.098162,-0.009625
1609,-0.008979,-0.021098,0.046465
1610,-0.008979,0.055966,0.009072
1611,0.008122,0.113764,0.027769
1612,-0.008979,0.171562,0.027769
1613,0.008122,0.171562,0.046465
1614,-0.008979,0.152296,0.009072
1615,0.008122,0.113764,0.009072
1616,0.008122,0.055966,0.009072
1617,0.008122,-0.001832,0.046465
1618,0.042325,-0.021098,0.083859
1619,0.008122,-0.040364,0.046465
1620,-0.026081,-0.001832,0.027769
1621,-0.008979,-0.001832,-0.028322
1622,0.008122,-0.040364,0.009072
1623,-0.008979,-0.001832,-0.047018
1624,0.008122,0.075232,-0.028322
1625,0.025223,0.055966,0.027769
1626,0.025223,0.094498,0.046465
1627,0.008122,0.055966,0.009072
1628,0.008122,0.017434,0.027769
1629,0.025223,0.055966,0.027769
1630,0.025223,0.055966,0.009072
1631,-0.026081,-0.040364,0.009072
1632,-0.026081,-0.021098,-0.028322
1633,0.008122,0.017434,-0.028322
1634,-0.008979,0.017434,0.009072
1635,0.008122,-0.001832,0.009072
1636,0.008122,-0.001832,-0.028322
1637,0.008122,-0.001832,0.009072
1638,0.008122,0.017434,0.027769
1639,0.008122,-0.001832,-0.009625
1640,0.025223,0.017434,0.027769
1641,0.008122,-0.001832,0.009072
1642,0.008122,-0.040364,-0.009625
1643,-0.008979,0.017434,-0.047018
1644,-0.008979,0.017434,-0.047018
1645,-0.008979,-0.021098,-0.047018
1646,-0.026081,-0.021098,-0.009625
1647,-0.008979,-0.021098,0.027769
1648,-0.008979,-0.040364,0.027769
1649,0.008122,-0.001832,0.065162
1650,-0.026081,0.0367,0.046465
1651,0.008122,0.0367,0.027769
1652,-0.008979,0.017434,0.009072
1653,-0.026081,-0.001832,-0.009625
1654,0.008122,-0.040364,-0.065715
1655,0.008122,-0.021098,-0.047018
1656,0.008122,0.017434,-0.065715
1657,0.008122,0.017434,-0.047018
1658,-0.008979,-0.001832,-0.009625
1659,-0.008979,0.017434,0.027769
1660,0.008122,-0.001832,-0.009625
1661,0.008122,0.017434,0.009072
1662,0.008122,0.0367,0.027769
1663,-0.008979,0.017434,0.027769
1664,0.008122,-0.001832,0.009072
1665,0.008122,-0.040364,-0.009625
1666,0.008122,-0.040364,-0.028322
1667,-0.008979,-0.001832,-0.009625
1668,-0.008979,-0.001832,-0.047018
1669,0.008122,0.0367,-0.028322
1670,-0.026081,-0.021098,-0.065715
1671,0.008122,-0.021098,0.009072
1672,-0.008979,-0.05963,0.009072
1673,-0.008979,-0.021098,0.009072
1674,-0.008979,-0.001832,-0.009625
1675,-0.008979,0.017434,0.009072
1676,-0.008979,0.017434,-0.028322
1677,0.008122,0.0367,-0.009625
1678,0.008122,-0.001832,0.027769
1679,-0.008979,-0.001832,0.046465
1680,-0.026081,-0.001832,0.027769
1681,-0.008979,-0.001832,0.009072
1682,-0.008979,-0.001832,-0.009625
1683,0.025223,0.017434,0.027769
1684,0.008122,-0.001832,-0.009625
1685,-0.008979,0.017434,-0.009625
1686,0.008122,-0.001832,0.009072
1687,0.025223,0.017434,0.009072
1688,0.008122,-0.021098,-0.047018
1689,0.008122,-0.001832,-0.009625
1690,0.042325,0.0367,0.027769
1691,0.008122,0.0367,0.027769
1692,0.008122,0.0367,0.027769
1693,0.008122,0.0367,0.027769
1694,-0.008979,-0.021098,0.046465
1695,-0.026081,-0.021098,0.027769
1696,0.008122,-0.040364,0.027769
1697,0.008122,-0.05963,-0.065715
1698,-0.008979,-0.040364,-0.009625
1699,0.008122,-0.05963,0.027769
1700,-0.008979,-0.021098,-0.009625
1701,0.008122,-0.021098,-0.047018
1702,-0.008979,0.017434,-0.009625
1703,-0.008979,0.017434,-0.028322
1704,-0.008979,0.017434,-0.009625
1705,0.008122,0.055966,0.027769
1706,0.025223,0.075232,0.009072
1707,0.008122,0.055966,-0.047018
1708,-0.008979,0.0367,-0.009625
1709,-0.008979,-0.021098,-0.009625
1710,-0.008979,0.017434,0.009072
1711,0.008122,0.017434,-0.009625
1712,0.008122,-0.001832,-0.009625
1713,0.008122,-0.040364,-0.028322
1714,0.008122,-0.05963,0.027769
1715,0.008122,-0.05963,-0.009625
1716,-0.008979,-0.05963,0.009072
1717,0.008122,-0.040364,0.009072
1718,0.008122,-0.040364,-0.009625
1719,0.008122,0.017434,0.009072
1720,0.008122,0.075232,0.027769
1721,0.008122,0.113764,0.083859
1722,-0.008979,0.094498,0.027769
1723,0.025223,0.094498,0.027769
1724,0.008122,0.075232,0.027769
1725,-0.026081,0.017434,0.009072
1726,0.008122,-0.040364,-0.009625
1727,0.025223,0.0367,0.009072
1728,0.008122,0.017434,0.009072
1729,0.008122,0.017434,0.009072
1730,0.008122,-0.001832,-0.047018
1731,-0.008979,-0.040364,-0.047018
1732,-0.008979,-0.001832,-0.009625
1733,-0.008979,0.017434,-0.009625
1734,0.008122,0.055966,-0.047018
1735,0.025223,0.017434,0.009072
1736,0.025223,-0.021098,-0.028322
1737,0.008122,0.017434,-0.028322
1738,0.008122,-0.021098,-0.047018
1739,0.008122,-0.040364,-0.009625
1740,0.008122,-0.001832,-0.009625
1741,0.008122,-0.040364,0.027769
1742,-0.008979,-0.021098,0.046465
1743,-0.008979,-0.05963,0.046465
1744,-0.008979,-0.001832,0.046465
1745,-0.008979,-0.001832,0.065162
1746,-0.026081,-0.021098,0.009072
1747,-0.026081,-0.040364,-0.028322
1748,-0.008979,-0.040364,-0.047018
1749,0.008122,-0.05963,-0.047018
1750,0.008122,-0.040364,-0.009625
1751,0.008122,0.0367,-0.028322
1752,-0.008979,0.055966,0.009072
1753,0.008122,0.13303,-0.009625
1754,0.025223,0.13303,0.027769
1755,0.025223,0.094498,0.009072
1756,0.008122,0.0367,-0.009625
1757,0.025223,0.0367,0.009072
1758,0.008122,-0.021098,0.027769
1759,0.008122,-0.021098,-0.009625
1760,0.025223,-0.021098,-0.009625
1761,0.025223,0.017434,-0.009625
1762,0.025223,0.0367,0.009072
1763,-0.008979,0.0367,0.027769
1764,-0.008979,0.017434,0.046465
1765,-0.026081,0.0367,0.046465
1766,-0.026081,0.0367,0.083859
1767,-0.026081,-0.001832,0.046465
1768,-0.008979,-0.021098,-0.009625
1769,0.008122,-0.040364,-0.028322
1770,0.008122,-0.021098,-0.065715
1771,-0.008979,-0.021098,-0.084412
1772,-0.026081,-0.040364,-0.028322
1773,-0.008979,-0.078896,0.009072
1774,0.059426,-0.078896,-0.028322
1775,0.059426,-0.040364,0.009072
1776,0.042325,-0.001832,0.009072
1777,0.008122,0.017434,0.027769
1778,-0.008979,-0.001832,0.009072
1779,-0.008979,0.075232,0.009072
1780,0.008122,0.113764,0.009072
1781,-0.008979,0.055966,-0.009625
1782,-0.008979,0.017434,0.027769
1783,0.025223,-0.001832,-0.047018
1784,0.025223,0.017434,-0.028322
1785,0.008122,-0.05963,0.027769
1786,0.008122,-0.001832,0.027769
1787,-0.008979,-0.040364,0.046465
1788,0.025223,-0.040364,0.009072
1789,0.008122,-0.05963,-0.028322
1790,-0.008979,-0.098162,-0.028322
1791,-0.008979,-0.05963,0.009072
1792,-0.008979,-0.021098,-0.028322
1793,-0.026081,0.017434,-0.028322
1794,-0.008979,0.055966,0.009072
1795,0.008122,0.075232,-0.009625
1796,0.008122,0.075232,0.027769
1797,0.025223,0.055966,0.009072
1798,-0.008979,0.017434,-0.028322
1799,-0.008979,-0.001832,-0.047018
1800,-0.026081,-0.001832,0.009072
1801,-0.008979,-0.021098,-0.009625
1802,-0.008979,-0.001832,0.009072
1803,-0.008979,-0.001832,0.027769
1804,0.008122,0.017434,0.065162
1805,-0.026081,-0.001832,0.046465
1806,0.025223,-0.001832,0.027769
1807,-0.008979,-0.021098,-0.047018
1808,0.008122,0.094498,-0.047018
1809,-0.008979,-0.001832,0.009072
1810,0.008122,0.017434,0.009072
1811,-0.008979,-0.001832,-0.028322
1812,0.008122,-0.040364,0.009072
1813,-0.026081,-0.021098,-0.047018
1814,0.008122,-0.001832,0.027769
1815,-0.008979,-0.021098,0.027769
1816,0.008122,0.017434,0.027769
1817,0.025223,0.017434,-0.028322
1818,-0.008979,-0.001832,0.027769
1819,0.008122,0.017434,0.009072
1820,0.008122,0.0367,-0.009625
1821,0.008122,0.0367,0.009072
1822,0.008122,-0.001832,0.027769
1823,-0.008979,-0.021098,0.027769
1824,0.008122,-0.05963,0.046465
1825,-0.008979,-0.05963,0.009072
1826,-0.008979,-0.021098,-0.009625
1827,-0.026081,0.017434,-0.009625
1828,-0.026081,0.0367,-0.028322
1829,0.008122,0.075232,-0.009625
1830,0.025223,0.075232,0.009072
1831,0.042325,0.017434,0.046465
1832,0.008122,-0.021098,-0.009625
1833,-0.008979,0.017434,0.009072
1834,0.008122,-0.001832,0.027769
1835,0.008122,-0.001832,-0.009625
1836,-0.008979,-0.001832,0.009072
1837,-0.008979,-0.001832,-0.028322
1838,-0.008979,0.017434,-0.103109
1839,-0.026081,-0.05963,0.009072
1840,0.008122,-0.078896,-0.028322
1841,0.008122,-0.098162,-0.028322
1842,0.008122,-0.117428,-0.047018
1843,0.008122,-0.117428,0.009072
1844,-0.008979,-0.05963,-0.009625
1845,-0.026081,-0.040364,0.046465
1846,-0.008979,0.0367,0.046465
1847,0.025223,0.094498,0.046465
1848,0.025223,0.152296,0.046465
1849,0.008122,0.113764,0.027769
1850,0.008122,0.094498,0.009072
1851,-0.008979,0.075232,-0.065715
1852,0.008122,0.094498,-0.065715
1853,0.008122,-0.001832,-0.047018
1854,0.008122,-0.021098,-0.028322
1855,0.008122,-0.05963,0.027769
1856,0.042325,-0.021098,0.046465
1857,0.025223,-0.021098,0.046465
1858,0.008122,-0.001832,0.065162
1859,-0.008979,0.017434,0.027769
1860,0.008122,0.075232,0.027769
1861,0.042325,0.075232,0.027769
1862,0.008122,0.055966,0.009072
1863,0.008122,0.055966,-0.028322
1864,0.008122,-0.001832,-0.009625
1865,-0.008979,0.017434,-0.028322
1866,0.008122,-0.001832,-0.009625
1867,-0.008979,0.017434,0.009072
1868,0.008122,-0.001832,0.009072
1869,0.008122,-0.021098,-0.009625
1870,0.008122,-0.001832,0.009072
1871,-0.026081,0.017434,-0.009625
1872,-0.008979,-0.021098,-0.028322
1873,-0.026081,0.017434,-0.028322
1874,-0.008979,0.017434,-0.028322
1875,0.008122,0.017434,-0.047018
1876,-0.008979,-0.021098,0.009072
1877,-0.008979,-0.001832,0.009072
1878,0.008122,-0.021098,-0.009625
1879,0.008122,-0.001832,0.027769
1880,0.008122,-0.001832,0.027769
1881,0.008122,-0.021098,0.027769
1882,-0.008979,-0.021098,-0.009625
1883,0.008122,0.017434,0.046465
1884,0.008122,-0.001832,0.027769
1885,-0.026081,0.017434,-0.009625
1886,0.025223,0.055966,0.027769
1887,-0.008979,0.017434,-0.028322
1888,0.008122,-0.021098,0.009072
1889,-0.008979,-0.040364,-0.009625
1890,-0.008979,-0.05963,-0.028322
1891,-0.043182,-0.021098,-0.047018
1892,-0.008979,0.017434,-0.009625
1893,0.008122,0.0367,-0.009625
1894,0.008122,0.075232,-0.009625
1895,0.008122,0.075232,-0.009625
1896,0.008122,0.017434,-0.009625
1897,0.008122,-0.040364,-0.009625
1898,-0.008979,-0.021098,0.027769
1899,-0.008979,-0.001832,0.027769
1900,0.008122,0.017434,0.009072
1901,0.008122,0.017434,0.027769
1902,0.008122,0.017434,0.009072
1903,-0.008979,-0.021098,-0.009625
1904,0.008122,-0.001832,0.009072
1905,-0.026081,-0.021098,-0.009625
1906,0.008122,0.017434,-0.009625
1907,-0.008979,-0.021098,-0.009625
1908,-0.008979,-0.05963,0.009072
1909,0.008122,-0.040364,-0.028322
1910,-0.008979,-0.021098,-0.009625
1911,-0.008979,-0.001832,0.027769
1912,0.008122,0.017434,0.027769
1913,-0.008979,-0.001832,0.046465
1914,0.008122,-0.001832,0.046465
1915,0.008122,-0.021098,-0.028322
1916,-0.008979,-0.021098,-0.047018
1917,-0.026081,-0.021098,0.009072
1918,-0.008979,-0.040364,-0.028322
1919,-0.026081,-0.021098,-0.009625
1920,0.008122,-0.040364,0.009072
1921,0.008122,-0.001832,0.009072
1922,-0.008979,-0.001832,0.009072
1923,0.008122,0.055966,0.027769
1924,0.025223,0.0367,0.009072
1925,0.008122,0.017434,-0.009625
1926,0.008122,-0.001832,0.027769
1927,0.008122,-0.040364,0.009072
1928,0.008122,-0.040364,0.009072
1929,0.008122,-0.001832,0.027769
1930,-0.008979,0.017434,0.027769
1931,0.008122,0.055966,0.027769
1932,0.008122,-0.001832,0.027769
1933,0.025223,0.017434,0.046465
1934,0.042325,0.017434,-0.028322
1935,-0.008979,0.017434,-0.028322
1936,-0.008979,-0.021098,-0.028322
1937,-0.008979,0.017434,-0.009625
1938,0.008122,0.055966,-0.009625
1939,0.008122,0.055966,0.009072
1940,-0.008979,-0.001832,-0.009625
1941,0.008122,-0.021098,0.009072
1942,0.008122,-0.001832,-0.009625
1943,-0.008979,0.017434,0.009072
1944,-0.008979,-0.001832,0.009072
1945,0.008122,0.017434,0.027769
1946,0.008122,0.017434,0.009072
1947,0.008122,-0.001832,0.009072
1948,-0.008979,-0.001832,0.027769
1949,-0.008979,-0.001832,-0.009625
1950,0.008122,-0.021098,-0.028322
1951,-0.008979,0.0367,0.009072
1952,0.008122,-0.001832,-0.028322
1953,0.008122,-0.001832,-0.028322
1954,0.008122,0.017434,-0.009625
1955,-0.008979,-0.001832,0.027769
1956,0.008122,-0.040364,-0.009625
1957,0.008122,-0.021098,0.046465
1958,-0.008979,0.0367,0.009072
1959,0.008122,0.075232,-0.009625
1960,0.008122,0.0367,0.009072
1961,-0.008979,0.017434,0.027769
1962,0.008122,0.017434,0.046465
1963,-0.008979,-0.021098,0.065162
1964,0.008122,-0.021098,0.065162
1965,0.008122,-0.001832,0.046465
1966,-0.008979,-0.021098,0.009072
1967,0.008122,-0.001832,-0.065715
1968,0.008122,-0.021098,-0.103109
1969,-0.008979,-0.021098,-0.065715
1970,-0.008979,0.0367,-0.028322
1971,0.025223,0.055966,-0.009625
1972,0.008122,0.017434,-0.028322
1973,0.008122,-0.001832,0.009072
1974,0.008122,-0.001832,-0.028322
1975,-0.008979,-0.001832,0.009072
1976,0.008122,-0.001832,0.009072
1977,0.008122,0.017434,0.009072
1978,-0.008979,-0.001832,0.027769
1979,0.008122,0.017434,0.027769
1980,-0.008979,0.017434,0.027769
1981,0.008122,-0.001832,0.009072
1982,0.008122,-0.001832,0.027769
1983,0.008122,-0.021098,-0.028322
1984,0.008122,-0.021098,-0.009625
1985,0.008122,-0.040364,0.009072
1986,0.008122,-0.021098,0.046465
1987,0.008122,-0.001832,-0.009625
1988,-0.008979,-0.001832,0.046465
1989,-0.008979,-0.001832,0.009072
1990,0.008122,0.017434,0.009072
1991,0.008122,0.075232,0.009072
1992,-0.008979,0.0367,0.009072
1993,0.008122,0.0367,0.009072
1994,0.008122,0.017434,0.027769
1995,-0.008979,-0.001832,0.046465
1996,-0.008979,-0.021098,0.009072
1997,0.008122,-0.05963,0.009072
1998,-0.008979,-0.040364,-0.009625
1999,-0.008979,-0.040364,-0.028322
2000,0.008122,-0.05963,0.009072
2001,-0.008979,-0.001832,-0.009625
2002,-0.008979,-0.021098,-0.009625
2003,0.025223,0.017434,-0.009625
2004,0.008122,0.0367,0.027769
2005,0.008122,-0.001832,0.009072
2006,0.008122,0.017434,0.046465
2007,0.008122,0.055966,0.046465
2008,-0.008979,0.0367,-0.009625
2009,0.008122,-0.021098,0.009072
2010,-0.008979,-0.117428,0.009072
2011,-0.008979,-0.136694,-0.028322
2012,-0.026081,-0.098162,-0.065715
2013,-0.008979,-0.098162,-0.009625
2014,-0.026081,-0.05963,-0.009625
2015,-0.026081,0.017434,-0.009625
2016,-0.008979,0.113764,0.009072
2017,0.008122,0.13303,-0.009625
2018,0.025223,0.152296,0.009072
2019,0.025223,0.113764,0.027769
2020,0.025223,0.055966,0.027769
2021,0.008122,0.055966,0.009072
2022,0.008122,0.0367,0.027769
2023,0.025223,0.017434,0.009072
2024,0.025223,-0.021098,-0.028322
2025,0.025223,-0.021098,-0.009625
2026,0.008122,-0.001832,-0.047018
2027,-0.026081,-0.05963,-0.065715
2028,-0.026081,0.017434,0.009072
2029,0.008122,0.055966,0.046465
2030,-0.008979,0.055966,-0.009625
2031,-0.008979,0.075232,0.009072
2032,0.008122,0.075232,-0.009625
2033,0.025223,0.017434,-0.028322
2034,0.008122,0.017434,-0.009625
2035,0.008122,-0.001832,-0.009625
2036,0.008122,0.0367,-0.047018
2037,0.008122,0.017434,0.009072
2038,-0.008979,-0.021098,0.027769
2039,-0.008979,-0.021098,0.027769
2040,-0.008979,-0.021098,0.027769
2041,0.025223,-0.021098,0.046465
2042,0.025223,-0.001832,0.009072
2043,-0.026081,-0.021098,0.027769
2044,-0.008979,0.017434,0.027769
2045,-0.008979,-0.001832,0.009072
2046,0.008122,0.0367,-0.009625
2047,0.025223,-0.001832,0.027769
2048,0.008122,-0.001832,-0.009625
2049,0.008122,-0.021098,0.027769
2050,-0.008979,-0.021098,0.046465
2051,-0.026081,-0.021098,0.027769
2052,-0.008979,-0.001832,0.009072
2053,0.008122,-0.021098,-0.009625
2054,0.008122,-0.001832,-0.047018
2055,-0.008979,-0.001832,-0.028322
2056,-0.008979,-0.001832,-0.009625
2057,-0.008979,-0.001832,-0.009625
2058,-0.008979,-0.021098,-0.028322
2059,0.025223,-0.001832,0.009072
2060,-0.008979,0.017434,0.027769
2061,-0.008979,-0.021098,0.009072
2062,-0.008979,-0.021098,0.009072
2063,-0.008979,-0.021098,-0.028322
2064,0.025223,-0.001832,-0.028322
2065,-0.008979,-0.001832,0.009072
2066,0.008122,-0.001832,-0.028322
2067,-0.008979,-0.001832,-0.028322
2068,0.008122,-0.001832,-0.009625
2069,-0.026081,-0.001832,-0.009625
2070,0.008122,-0.001832,0.027769
2071,0.008122,-0.021098,0.046465
2072,-0.008979,-0.001832,0.065162
2073,0.008122,-0.001832,0.009072
2074,0.008122,0.017434,0.009072
2075,-0.026081,-0.021098,-0.009625
2076,-0.008979,0.017434,0.009072
2077,0.008122,-0.001832,-0.009625
2078,0.008122,-0.001832,-0.009625
2079,-0.008979,-0.001832,-0.028322
2080,-0.026081,-0.021098,0.009072
2081,-0.026081,-0.001832,0.009072
2082,0.008122,-0.001832,0.009072
2083,-0.008979,-0.040364,0.046465
2084,-0.008979,-0.040364,0.046465
2085,-0.008979,-0.021098,0.027769
2086,0.008122,-0.001832,-0.009625
2087,0.008122,-0.001832,-0.103109
2088,0.008122,0.017434,-0.084412
2089,-0.008979,0.017434,-0.047018
2090,-0.008979,-0.001832,-0.047018
2091,0.008122,0.017434,-0.065715
2092,-0.008979,0.0367,-0.009625
2093,-0.008979,-0.001832,0.009072
2094,-0.026081,-0.021098,0.027769
2095,-0.008979,-0.021098,0.027769
2096,-0.008979,-0.021098,0.046465
2097,-0.026081,-0.001832,0.009072
2098,-0.008979,-0.021098,-0.009625
2099,-0.008979,-0.021098,-0.009625
2100,-0.008979,-0.021098,-0.009625
2101,0.008122,-0.040364,-0.009625
2102,0.008122,-0.078896,0.009072
2103,0.008122,-0.05963,0.027769
2104,0.008122,-0.040364,0.027769
2105,0.008122,-0.021098,0.027769
2106,0.008122,-0.001832,0.065162
2107,0.008122,0.075232,0.046465
2108,-0.008979,0.0367,0.065162
2109,0.008122,0.075232,0.027769
2110,-0.008979,0.0367,-0.028322
2111,0.025223,0.017434,0.009072
2112,0.008122,0.017434,-0.028322
2113,0.008122,0.0367,-0.065715
2114,-0.008979,-0.001832,-0.009625
2115,0.008122,-0.05963,0.027769
2116,-0.008979,-0.098162,-0.009625
2117,-0.008979,-0.117428,-0.009625
2118,-0.008979,-0.117428,-0.009625
2119,-0.008979,-0.021098,-0.009625
2120,-0.008979,0.0367,-0.047018
2121,-0.026081,0.075232,-0.009625
2122,0.025223,0.152296,-0.028322
2123,0.008122,0.075232,0.009072
2124,0.008122,0.0367,0.027769
2125,0.008122,0.055966,0.065162
2126,-0.008979,0.017434,0.009072
2127,0.008122,0.094498,0.046465
2128,0.025223,0.13303,0.046465
2129,0.025223,0.094498,0.027769
2130,0.025223,0.0367,0.027769
2131,0.008122,-0.001832,0.027769
2132,0.025223,0.017434,0.009072
2133,0.025223,0.0367,0.046465
2134,0.008122,0.017434,0.009072
2135,0.008122,-0.040364,0.009072
2136,0.008122,-0.040364,0.009072
2137,0.008122,-0.040364,0.009072
2138,0.008122,-0.021098,-0.028322
2139,-0.008979,-0.021098,-0.047018
2140,0.008122,-0.021098,-0.047018
2141,-0.008979,-0.001832,-0.047018
2142,-0.008979,0.094498,-0.065715
2143,-0.008979,-0.021098,-0.028322
2144,-0.008979,-0.021098,-0.028322
2145,-0.008979,-0.001832,0.009072
2146,0.008122,-0.001832,0.009072
2147,0.008122,0.0367,-0.009625
2148,0.008122,0.017434,0.027769
2149,0.008122,-0.040364,0.027769
2150,-0.008979,-0.001832,-0.009625
2151,-0.008979,0.017434,-0.009625
2152,-0.008979,-0.001832,0.009072
2153,0.008122,-0.001832,-0.009625
2154,-0.008979,-0.001832,-0.028322
2155,0.008122,-0.001832,0.009072
2156,0.008122,-0.021098,-0.028322
2157,-0.008979,-0.001832,0.009072
2158,-0.008979,0.017434,0.027769
2159,0.008122,-0.001832,0.046465
2160,-0.008979,-0.001832,0.027769
2161,-0.008979,-0.001832,0.046465
2162,0.008122,-0.001832,0.009072
2163,-0.008979,-0.001832,0.009072
2164,0.008122,0.017434,0.009072
2165,0.008122,-0.001832,0.046465
2166,-0.008979,-0.021098,0.027769
2167,-0.008979,-0.040364,0.065162
2168,0.008122,-0.021098,0.065162
2169,0.008122,-0.001832,0.009072
2170,0.008122,-0.001832,-0.028322
2171,-0.026081,-0.078896,-0.103109
2172,0.008122,-0.040364,-0.103109
2173,0.008122,-0.001832,-0.028322
2174,0.008122,0.017434,-0.028322
2175,0.008122,0.0367,-0.028322
2176,0.008122,0.0367,0.027769
2177,-0.008979,0.017434,0.046465
2178,0.025223,0.0367,0.009072
2179,0.008122,-0.001832,0.027769
2180,-0.008979,-0.001832,0.027769
2181,-0.008979,-0.021098,-0.028322
2182,0.008122,-0.021098,-0.047018
2183,-0.008979,0.017434,-0.009625
2184,0.008122,0.017434,0.009072
2185,-0.008979,0.017434,-0.009625
2186,-0.008979,0.017434,0.009072
2187,0.008122,0.017434,-0.028322
2188,-0.008979,0.017434,0.009072
2189,0.008122,-0.001832,0.046465
2190,0.008122,-0.040364,-0.009625
2191,0.025223,-0.021098,-0.047018
2192,0.008122,-0.021098,-0.009625
2193,0.025223,-0.021098,0.009072
2194,0.008122,-0.040364,-0.028322
2195,-0.008979,-0.001832,0.027769
2196,0.008122,-0.001832,-0.009625
2197,0.008122,0.075232,-0.047018
2198,-0.008979,0.055966,0.009072
2199,0.008122,0.017434,-0.028322
2200,0.008122,-0.021098,-0.009625
2201,0.008122,0.017434,-0.009625
2202,0.025223,-0.001832,0.027769
2203,0.008122,-0.001832,-0.009625
2204,0.008122,-0.021098,0.027769
2205,-0.008979,-0.001832,0.009072
2206,-0.008979,-0.001832,-0.009625
2207,0.008122,-0.001832,-0.028322
2208,0.008122,0.0367,-0.009625
2209,0.025223,0.017434,-0.009625
2210,0.008122,0.017434,0.009072
2211,-0.008979,0.017434,0.027769
2212,-0.008979,0.017434,0.027769
2213,-0.008979,-0.001832,0.027769
2214,-0.008979,-0.021098,0.046465
2215,-0.008979,-0.001832,0.009072
2216,0.008122,-0.001832,-0.009625
2217,0.025223,-0.001832,0.009072
2218,0.008122,0.017434,-0.009625
2219,-0.008979,-0.001832,-0.028322
2220,-0.008979,-0.021098,-0.028322
2221,-0.008979,-0.001832,-0.047018
2222,0.008122,0.017434,0.009072
2223,-0.008979,-0.021098,0.009072
2224,0.008122,-0.078896,-0.009625
2225,-0.008979,-0.040364,0.027769
2226,0.008122,-0.05963,0.046465
2227,0.008122,-0.021098,0.027769
2228,-0.008979,0.017434,-0.009625
2229,-0.008979,0.017434,-0.047018
2230,-0.026081,0.017434,-0.028322
2231,0.008122,0.075232,-0.028322
2232,-0.008979,0.017434,-0.028322
2233,0.008122,-0.021098,0.027769
2234,0.008122,-0.001832,0.009072
2235,-0.008979,-0.001832,0.027769
2236,0.008122,0.055966,0.009072
2237,0.008122,0.055966,-0.009625
2238,-0.008979,0.0367,0.046465
2239,0.008122,-0.001832,0.009072
2240,0.008122,-0.021098,-0.028322
2241,-0.008979,-0.040364,0.027769
2242,0.008122,-0.021098,0.027769
2243,-0.008979,-0.040364,-0.009625
2244,0.008122,-0.021098,-0.009625
2245,-0.008979,0.0367,0.009072
2246,0.008122,0.075232,-0.009625
2247,-0.026081,0.075232,0.009072
2248,-0.008979,0.055966,-0.028322
2249,0.008122,-0.001832,-0.047018
2250,0.008122,-0.001832,-0.065715
2251,0.008122,-0.001832,-0.009625
2252,0.008122,-0.001832,-0.028322
2253,0.008122,-0.001832,0.027769
2254,0.008122,-0.001832,0.046465
2255,0.025223,0.017434,0.046465
2256,0.008122,0.017434,0.065162
2257,0.008122,-0.001832,0.046465
2258,-0.008979,-0.001832,0.046465
2259,-0.008979,-0.040364,0.027769
2260,-0.008979,-0.001832,0.027769
2261,-0.026081,0.017434,0.009072
2262,-0.008979,-0.001832,-0.065715
2263,-0.008979,0.0367,-0.047018
2264,0.008122,0.0367,-0.047018
2265,0.025223,0.055966,-0.065715
2266,0.025223,0.055966,-0.028322
2267,0.025223,-0.001832,-0.009625
2268,0.008122,-0.001832,-0.009625
2269,0.008122,-0.021098,0.027769
2270,0.008122,-0.001832,0.027769
2271,-0.008979,0.017434,0.009072
2272,0.008122,-0.040364,0.009072
2273,0.008122,-0.078896,-0.028322
2274,0.008122,-0.05963,-0.065715
2275,-0.008979,-0.136694,-0.065715
2276,-0.026081,-0.098162,-0.047018
2277,-0.026081,-0.05963,-0.028322
2278,-0.008979,0.0367,0.009072
2279,0.008122,0.094498,0.027769
2280,0.008122,0.13303,-0.009625
2281,0.008122,0.190828,-0.009625
2282,0.008122,0.094498,0.009072
2283,-0.008979,0.0367,-0.028322
2284,0.008122,0.017434,-0.028322
2285,0.042325,0.055966,0.009072
2286,0.008122,0.0367,-0.009625
2287,0.025223,0.017434,0.009072
2288,-0.008979,0.017434,0.046465
2289,-0.008979,-0.001832,0.027769
2290,-0.008979,0.0367,0.027769
2291,0.008122,-0.021098,0.027769
2292,-0.008979,-0.001832,0.009072
2293,-0.008979,-0.021098,-0.028322
2294,0.008122,-0.001832,0.009072
2295,0.025223,-0.001832,0.009072
2296,0.008122,0.017434,-0.028322
2297,0.008122,0.017434,0.009072
2298,0.008122,-0.001832,0.027769
2299,-0.026081,-0.05963,-0.009625
2300,-0.008979,-0.040364,0.027769
2301,0.008122,-0.021098,0.027769
2302,-0.026081,-0.040364,0.009072
2303,0.008122,-0.001832,0.065162
2304,0.008122,-0.001832,0.046465
2305,0.008122,0.017434,0.046465
2306,0.008122,0.0367,0.009072
2307,0.008122,0.0367,-0.009625
2308,-0.026081,-0.001832,-0.047018
2309,0.008122,-0.001832,0.009072
2310,-0.008979,-0.021098,0.027769
2311,-0.026081,-0.001832,-0.028322
2312,0.008122,-0.001832,-0.028322
2313,0.008122,-0.001832,-0.028322
2314,0.008122,-0.021098,-0.047018
2315,-0.008979,-0.021098,-0.065715
2316,0.008122,-0.021098,-0.028322
2317,-0.008979,-0.001832,-0.047018
2318,0.008122,-0.001832,0.009072
2319,0.008122,-0.001832,0.009072
2320,0.008122,-0.001832,0.027769
2321,-0.008979,0.017434,0.009072
2322,0.025223,0.017434,0.027769
2323,0.025223,0.017434,0.027769
2324,0.008122,0.017434,-0.009625
2325,-0.008979,0.017434,0.009072
2326,0.008122,-0.001832,0.009072
2327,0.008122,-0.001832,0.009072
2328,-0.008979,-0.001832,0.009072
2329,0.008122,-0.021098,0.009072
2330,0.008122,-0.021098,0.027769
2331,-0.008979,0.017434,0.027769
2332,0.008122,-0.001832,0.027769
2333,0.008122,0.017434,-0.009625
2334,-0.008979,-0.021098,0.027769
2335,-0.008979,-0.001832,0.009072
2336,0.008122,0.017434,-0.065715
2337,0.008122,-0.001832,-0.047018
2338,0.008122,0.017434,-0.028322
2339,0.008122,0.017434,-0.009625
2340,0.008122,0.017434,0.065162
2341,-0.008979,0.0367,0.065162
2342,-0.008979,-0.001832,0.065162
2343,0.008122,-0.001832,0.027769
2344,-0.008979,-0.001832,0.046465
2345,0.008122,-0.021098,-0.028322
2346,-0.008979,-0.001832,-0.084412
2347,-0.008979,-0.021098,-0.084412
2348,0.008122,-0.001832,-0.047018
2349,-0.008979,-0.001832,-0.047018
2350,0.025223,-0.021098,0.009072
2351,0.025223,-0.001832,-0.028322
2352,-0.008979,-0.001832,0.009072
2353,0.008122,0.017434,-0.009625
2354,-0.008979,0.017434,0.009072
2355,0.025223,0.0367,-0.009625
2356,0.008122,0.017434,0.027769
2357,-0.008979,-0.001832,0.027769
2358,0.008122,-0.001832,0.009072
2359,0.025223,-0.001832,0.009072
2360,-0.008979,-0.001832,0.009072
2361,-0.008979,-0.001832,-0.009625
2362,0.008122,0.017434,0.009072
2363,-0.008979,0.017434,-0.009625
2364,-0.008979,0.017434,0.009072
2365,-0.008979,-0.001832,0.027769
2366,0.008122,0.017434,-0.009625
2367,-0.008979,0.017434,-0.028322
2368,0.008122,-0.001832,-0.009625
2369,-0.008979,-0.001832,-0.009625
2370,-0.008979,-0.021098,-0.028322
2371,-0.008979,-0.05963,-0.028322
2372,0.008122,-0.001832,0.027769
2373,0.025223,-0.001832,-0.009625
2374,0.008122,-0.001832,0.009072
2375,-0.008979,0.0367,0.027769
2376,0.008122,0.0367,0.046465
2377,-0.008979,-0.001832,0.046465
2378,0.025223,-0.001832,0.027769
2379,-0.008979,-0.021098,-0.009625
2380,0.008122,-0.021098,-0.028322
2381,0.008122,-0.001832,0.009072
2382,0.008122,-0.001832,-0.009625
2383,-0.008979,-0.040364,-0.009625
2384,0.008122,-0.040364,0.009072
2385,0.008122,-0.001832,0.027769
2386,0.008122,0.017434,0.046465
2387,0.008122,0.075232,0.046465
2388,-0.008979,0.075232,0.027769
2389,0.025223,0.075232,0.009072
2390,0.025223,0.0367,0.046465
2391,-0.008979,-0.021098,0.009072
2392,-0.026081,-0.05963,0.009072
2393,-0.008979,-0.05963,0.027769
2394,-0.008979,-0.040364,-0.009625
2395,-0.008979,-0.001832,0.009072
2396,-0.008979,0.0367,-0.009625
2397,0.008122,0.0367,0.027769
2398,0.025223,-0.05963,0.027769
2399,0.008122,-0.098162,0.027769
2400,0.025223,-0.040364,-0.009625
2401,0.025223,0.017434,0.009072
2402,-0.008979,-0.001832,-0.047018
2403,-0.043182,-0.001832,-0.084412
2404,-0.008979,0.152296,-0.065715
2405,0.025223,0.210094,-0.028322
2406,0.025223,0.171562,0.009072
2407,0.008122,0.094498,-0.047018
2408,0.008122,0.055966,0.009072
2409,-0.008979,0.017434,-0.009625
2410,0.008122,0.017434,-0.009625
2411,0.008122,-0.001832,-0.009625
2412,-0.008979,-0.001832,0.046465
2413,0.008122,-0.001832,-0.009625
2414,0.008122,-0.001832,-0.009625
2415,0.008122,0.017434,0.009072
2416,-0.008979,-0.040364,-0.047018
2417,0.025223,0.017434,0.009072
2418,0.008122,-0.021098,0.027769
2419,-0.008979,-0.001832,0.009072
2420,-0.008979,-0.021098,0.065162
2421,0.008122,0.017434,0.009072
2422,0.008122,-0.001832,-0.009625
2423,0.008122,-0.001832,-0.047018
2424,0.008122,0.017434,0.009072
2425,-0.008979,-0.001832,-0.009625
2426,-0.008979,-0.021098,0.027769
2427,-0.008979,-0.001832,0.046465
2428,-0.008979,-0.021098,0.065162
2429,-0.008979,-0.001832,0.027769
2430,-0.008979,-0.001832,0.065162
2431,-0.008979,-0.040364,0.009072
2432,0.008122,-0.040364,-0.047018
2433,-0.008979,-0.001832,-0.103109
2434,0.008122,-0.001832,-0.065715
2435,0.008122,-0.021098,-0.047018
2436,-0.008979,-0.021098,0.009072
2437,0.008122,-0.021098,0.009072
2438,-0.008979,0.017434,0.009072
2439,0.008122,-0.001832,0.009072
2440,0.008122,-0.001832,0.027769
2441,0.025223,0.017434,0.027769
2442,0.025223,-0.001832,0.046465
2443,-0.008979,-0.001832,0.009072
2444,-0.008979,-0.001832,-0.009625
2445,-0.008979,0.017434,-0.009625
2446,-0.008979,-0.001832,-0.009625
2447,-0.008979,-0.001832,-0.009625
2448,-0.008979,-0.021098,0.027769
2449,0.008122,-0.021098,0.046465
2450,-0.008979,0.017434,0.009072
2451,0.008122,-0.021098,0.027769
2452,0.008122,0.017434,0.027769
2453,-0.008979,-0.001832,-0.028322
2454,0.008122,0.094498,-0.084412
2455,-0.008979,-0.001832,-0.009625
2456,0.008122,-0.001832,-0.028322
2457,-0.008979,-0.021098,-0.028322
2458,-0.008979,-0.001832,0.027769
2459,-0.008979,-0.001832,0.009072
2460,-0.008979,0.017434,0.027769
2461,0.008122,0.017434,0.027769
2462,-0.008979,0.0367,0.046465
2463,-0.008979,-0.001832,-0.009625
2464,0.008122,0.017434,0.027769
2465,-0.008979,-0.021098,-0.028322
2466,-0.008979,-0.040364,-0.028322
2467,0.008122,-0.001832,-0.009625
2468,0.008122,-0.040364,-0.047018
2469,0.008122,-0.001832,-0.028322
2470,0.008122,0.017434,0.009072
2471,-0.008979,0.017434,0.046465
2472,0.008122,-0.001832,0.027769
2473,0.008122,-0.001832,0.027769
2474,-0.008979,-0.001832,0.009072
2475,0.008122,-0.021098,-0.009625
2476,-0.008979,-0.001832,-0.028322
2477,0.008122,0.017434,-0.028322
2478,0.008122,-0.001832,-0.028322
2479,0.008122,-0.001832,-0.028322
2480,0.008122,0.094498,0.009072
2481,0.008122,-0.001832,-0.028322
2482,0.008122,-0.021098,0.009072
2483,0.008122,-0.021098,0.027769
2484,-0.008979,-0.021098,0.027769
2485,-0.008979,-0.001832,0.046465
2486,0.025223,-0.040364,0.027769
2487,0.025223,-0.021098,-0.028322
2488,0.008122,-0.001832,-0.009625
2489,0.008122,0.0367,0.027769
2490,-0.008979,0.017434,0.009072
2491,-0.008979,-0.021098,0.009072
2492,-0.008979,-0.001832,0.027769
2493,-0.026081,-0.001832,0.027769
2494,-0.008979,-0.021098,0.065162
2495,0.008122,-0.001832,0.027769
2496,0.008122,0.017434,0.027769
2497,0.008122,0.0367,-0.009625
2498,0.008122,0.075232,-0.009625
2499,0.025223,-0.001832,-0.084412
2500,0.025223,-0.001832,-0.047018
2501,-0.008979,-0.040364,0.009072
2502,-0.008979,-0.078896,0.027769
2503,0.008122,-0.078896,0.027769
2504,-0.026081,-0.040364,0.046465
2505,-0.026081,-0.001832,0.027769
2506,-0.008979,0.055966,-0.009625
2507,-0.008979,0.075232,-0.009625
2508,-0.008979,0.094498,-0.047018
2509,0.025223,0.0367,-0.047018
2510,-0.008979,0.017434,0.046465
2511,-0.008979,0.017434,0.027769
2512,0.008122,-0.021098,0.046465
2513,0.025223,0.017434,0.046465
2514,-0.008979,-0.001832,0.065162
2515,0.008122,0.017434,0.009072
2516,0.008122,0.017434,-0.047018
2517,0.008122,0.0367,-0.065715
2518,0.008122,0.0367,-0.065715
2519,0.008122,0.055966,-0.047018
2520,0.008122,0.017434,-0.028322
2521,0.008122,-0.001832,-0.047018
2522,-0.008979,0.017434,0.009072
2523,0.008122,-0.001832,0.046465
2524,0.008122,0.017434,0.009072
2525,0.008122,0.017434,0.009072
2526,0.008122,-0.001832,0.027769
2527,0.008122,-0.021098,-0.009625
2528,-0.008979,0.017434,0.027769
2529,-0.008979,-0.001832,0.065162
2530,0.008122,-0.021098,0.027769
2531,0.025223,-0.001832,-0.009625
2532,-0.008979,-0.001832,0.009072
2533,0.008122,0.017434,-0.009625
2534,-0.008979,-0.021098,-0.028322
2535,-0.008979,-0.021098,-0.047018
2536,0.008122,-0.021098,-0.028322
2537,-0.008979,-0.001832,0.009072
2538,-0.008979,-0.001832,0.027769
2539,-0.008979,-0.001832,-0.009625
2540,0.008122,-0.001832,-0.009625
2541,-0.008979,-0.001832,-0.009625
2542,-0.008979,0.017434,0.009072
2543,-0.008979,-0.001832,0.027769
2544,-0.008979,-0.001832,0.009072
2545,-0.026081,-0.021098,0.027769
2546,-0.026081,-0.040364,0.009072
2547,0.008122,-0.001832,0.046465
2548,-0.008979,-0.001832,-0.009625
2549,-0.008979,-0.001832,-0.028322
2550,-0.008979,-0.001832,-0.028322
2551,-0.008979,-0.021098,-0.028322
2552,-0.008979,-0.021098,-0.028322
2553,-0.008979,-0.001832,0.009072
2554,0.008122,-0.021098,0.009072
2555,0.008122,0.017434,0.027769
2556,-0.026081,-0.001832,0.046465
2557,-0.008979,-0.001832,0.046465
2558,-0.008979,0.017434,0.009072
2559,0.008122,-0.001832,0.027769
2560,0.008122,-0.021098,0.027769
2561,-0.008979,-0.040364,0.009072
2562,0.008122,-0.040364,-0.009625
2563,0.008122,-0.021098,0.009072
2564,0.008122,-0.05963,-0.065715
2565,0.008122,-0.117428,-0.065715
2566,-0.008979,-0.040364,-0.028322
2567,-0.008979,-0.078896,-0.028322
2568,-0.026081,-0.040364,0.009072
2569,-0.008979,-0.040364,0.009072
2570,0.008122,0.0367,-0.028322
2571,0.025223,0.113764,-0.028322
2572,0.025223,0.113764,0.009072
2573,0.025223,0.094498,-0.009625
2574,0.008122,0.075232,-0.009625
2575,0.008122,0.094498,0.027769
2576,-0.008979,0.055966,-0.009625
2577,-0.008979,0.055966,0.027769
2578,0.008122,0.0367,0.046465
2579,0.008122,0.017434,0.009072
2580,0.008122,0.017434,-0.009625
2581,0.008122,0.017434,0.009072
2582,-0.008979,-0.040364,-0.009625
2583,0.008122,-0.021098,-0.009625
2584,-0.008979,-0.05963,0.009072
2585,-0.008979,-0.040364,-0.009625
2586,0.008122,-0.001832,-0.009625
2587,0.008122,-0.021098,0.046465
2588,0.008122,0.0367,0.065162
2589,0.008122,0.075232,0.065162
2590,0.008122,0.113764,0.065162
2591,-0.008979,0.094498,0.027769
2592,-0.008979,0.0367,-0.009625
2593,0.025223,0.0367,-0.084412
2594,0.008122,0.0367,-0.103109
2595,0.008122,-0.001832,-0.084412
2596,0.025223,0.017434,-0.009625
2597,0.008122,-0.021098,0.009072
2598,0.008122,-0.040364,-0.009625
2599,-0.008979,-0.021098,0.009072
2600,0.025223,-0.021098,0.009072
2601,0.008122,-0.021098,-0.009625
2602,0.008122,-0.021098,0.065162
2603,0.008122,-0.021098,0.009072
2604,0.008122,-0.001832,-0.028322
2605,0.008122,0.017434,-0.028322
2606,0.008122,0.055966,0.009072
2607,0.008122,0.0367,-0.009625
2608,0.008122,-0.001832,0.009072
2609,-0.026081,0.017434,0.027769
2610,-0.008979,-0.001832,0.027769
2611,0.008122,-0.001832,0.027769
2612,-0.008979,-0.021098,0.027769
2613,-0.008979,0.0367,0.009072
2614,0.008122,0.017434,0.009072
2615,-0.008979,-0.001832,0.027769
2616,-0.008979,-0.001832,-0.028322
2617,-0.008979,0.017434,-0.009625
2618,0.008122,0.017434,0.009072
2619,0.025223,-0.001832,0.027769
2620,-0.008979,-0.040364,0.009072
2621,0.008122,-0.001832,0.027769
2622,0.025223,-0.001832,0.009072
2623,0.008122,-0.001832,-0.009625
2624,0.008122,-0.001832,0.046465
2625,-0.008979,-0.001832,0.009072
2626,-0.026081,0.017434,0.009072
2627,0.008122,-0.001832,0.046465
2628,0.008122,0.0367,0.009072
2629,-0.008979,-0.001832,0.009072
2630,0.008122,0.017434,0.046465
2631,0.008122,-0.001832,0.027769
2632,0.008122,-0.001832,-0.028322
2633,0.008122,-0.05963,-0.028322
2634,-0.008979,-0.021098,-0.065715
2635,0.008122,-0.021098,-0.047018
2636,0.008122,0.017434,-0.065715
2637,0.008122,0.017434,-0.028322
2638,0.008122,-0.021098,-0.065715
2639,0.008122,-0.001832,-0.009625
2640,-0.008979,-0.001832,-0.009625
2641,0.008122,0.017434,-0.009625
2642,-0.008979,-0.021098,0.009072
2643,-0.008979,-0.001832,0.027769
2644,0.008122,-0.021098,0.027769
2645,-0.008979,-0.001832,0.009072
2646,0.008122,0.017434,0.009072
2647,0.008122,-0.021098,-0.009625
2648,-0.008979,-0.001832,-0.047018
2649,0.008122,0.017434,0.009072
2650,0.008122,-0.021098,-0.009625
2651,-0.008979,-0.001832,0.009072
2652,0.025223,-0.001832,0.027769
2653,0.008122,0.0367,0.065162
2654,0.025223,0.017434,0.027769
2655,0.008122,-0.001832,0.046465
2656,-0.008979,0.0367,0.009072
2657,-0.008979,0.017434,-0.047018
2658,-0.008979,-0.001832,-0.047018
2659,-0.008979,0.017434,-0.009625
2660,-0.008979,0.017434,0.009072
2661,-0.008979,-0.001832,0.009072
2662,-0.008979,-0.001832,0.027769
2663,0.008122,-0.001832,-0.009625
2664,0.008122,-0.040364,-0.028322
2665,-0.008979,-0.021098,-0.028322
2666,-0.008979,-0.021098,-0.028322
2667,0.008122,-0.040364,0.027769
2668,0.008122,-0.098162,-0.009625
2669,-0.008979,-0.098162,0.009072
2670,-0.008979,-0.040364,0.027769
2671,0.008122,-0.001832,0.065162
2672,0.008122,0.075232,0.027769
2673,0.008122,0.094498,0.046465
2674,0.008122,0.094498,0.027769
2675,0.008122,0.113764,-0.009625
2676,0.008122,0.075232,-0.028322
2677,-0.008979,0.017434,-0.028322
2678,-0.008979,0.055966,-0.009625
2679,-0.008979,0.017434,-0.009625
2680,-0.008979,-0.001832,0.009072
2681,0.008122,0.017434,-0.028322
2682,0.008122,-0.001832,-0.009625
2683,-0.008979,-0.040364,0.027769
2684,0.008122,-0.040364,0.027769
2685,0.008122,-0.040364,0.009072
2686,-0.008979,-0.040364,0.027769
2687,-0.026081,-0.040364,0.009072
2688,-0.008979,-0.040364,0.027769
2689,-0.026081,0.017434,0.046465
2690,-0.008979,0.0367,0.027769
2691,-0.008979,0.0367,0.009072
2692,0.008122,0.0367,0.027769
2693,0.008122,0.055966,0.009072
2694,0.008122,0.055966,-0.028322
2695,0.025223,0.055966,-0.065715
2696,0.008122,0.017434,-0.028322
2697,0.008122,-0.001832,-0.009625
2698,0.025223,-0.001832,0.027769
2699,0.008122,-0.001832,0.009072
2700,0.008122,-0.001832,-0.009625
2701,0.008122,-0.001832,-0.009625
2702,0.008122,0.0367,-0.009625
2703,0.008122,0.017434,-0.028322
2704,-0.008979,0.017434,0.009072
2705,-0.008979,-0.001832,0.027769
2706,-0.008979,-0.001832,-0.009625
2707,0.008122,0.017434,0.009072
2708,0.008122,0.017434,0.046465
2709,0.008122,0.017434,0.009072
2710,0.008122,0.017434,-0.009625
2711,-0.008979,0.0367,0.027769
2712,0.025223,0.017434,-0.009625
2713,0.025223,-0.001832,-0.047018
2714,0.025223,0.017434,-0.028322
2715,0.008122,-0.001832,-0.065715
2716,-0.008979,-0.021098,-0.009625
2717,-0.008979,-0.021098,0.009072
2718,-0.008979,-0.001832,0.027769
2719,0.008122,-0.001832,0.009072
2720,-0.008979,0.017434,0.065162
2721,-0.008979,-0.001832,0.027769
2722,-0.008979,0.017434,0.009072
2723,0.008122,-0.021098,-0.009625
2724,0.008122,-0.021098,-0.084412
2725,-0.008979,-0.040364,-0.047018
2726,-0.008979,-0.05963,-0.028322
2727,-0.026081,-0.040364,0.009072
2728,-0.008979,-0.040364,-0.009625
2729,0.008122,-0.021098,0.009072
2730,0.008122,-0.001832,-0.028322
2731,-0.008979,0.017434,0.009072
2732,0.025223,0.0367,0.046465
2733,0.008122,0.055966,-0.009625
2734,0.025223,0.0367,-0.028322
2735,0.008122,0.017434,0.027769
2736,-0.008979,-0.021098,0.046465
2737,-0.008979,0.017434,-0.009625
2738,0.008122,0.017434,0.046465
2739,0.008122,0.0367,0.027769
2740,-0.008979,-0.001832,0.027769
2741,0.008122,0.017434,0.046465
2742,0.008122,0.017434,0.027769
2743,0.008122,-0.001832,-0.028322
2744,-0.008979,-0.021098,-0.009625
2745,-0.008979,0.017434,-0.028322
2746,-0.008979,-0.001832,-0.009625
2747,0.008122,-0.001832,-0.009625
2748,-0.008979,-0.001832,0.009072
2749,0.025223,-0.001832,-0.009625
2750,-0.008979,-0.021098,0.027769
2751,0.008122,-0.078896,0.009072
2752,-0.008979,-0.040364,0.027769
2753,0.008122,-0.05963,-0.009625
2754,-0.008979,-0.040364,0.009072
2755,0.008122,0.055966,0.009072
2756,0.008122,0.0367,0.009072
2757,0.008122,0.0367,0.009072
2758,-0.008979,0.075232,-0.009625
2759,0.008122,0.017434,0.009072
2760,0.008122,-0.001832,0.027769
2761,0.008122,-0.001832,0.009072
2762,0.008122,-0.021098,0.009072
2763,0.008122,-0.021098,0.009072
2764,-0.008979,-0.021098,-0.009625
2765,-0.008979,-0.001832,-0.047018
2766,-0.008979,0.055966,-0.009625
2767,0.008122,0.0367,-0.047018
2768,0.008122,0.017434,-0.009625
2769,0.025223,0.017434,0.027769
2770,0.008122,0.017434,0.009072
2771,-0.008979,0.0367,-0.009625
2772,0.008122,0.017434,0.046465
2773,-0.008979,0.017434,0.009072
2774,0.008122,-0.001832,0.009072
2775,0.042325,0.017434,0.009072
2776,0.008122,0.017434,-0.009625
2777,0.008122,-0.021098,-0.009625
2778,-0.008979,-0.021098,0.009072
2779,-0.008979,-0.001832,0.009072
2780,0.025223,-0.001832,0.027769
2781,-0.026081,-0.021098,0.046465
2782,-0.008979,-0.040364,0.046465
2783,0.008122,-0.001832,0.027769
2784,0.008122,-0.021098,0.027769
2785,0.008122,0.017434,0.027769
2786,-0.008979,0.017434,-0.009625
2787,-0.008979,0.017434,-0.009625
2788,-0.008979,0.017434,-0.009625
2789,-0.008979,-0.021098,0.009072
2790,0.008122,0.017434,0.046465
2791,0.008122,-0.001832,0.046465
2792,0.008122,0.017434,0.009072
2793,0.008122,0.055966,0.027769
2794,-0.008979,-0.001832,-0.028322
2795,-0.008979,0.017434,-0.028322
2796,0.008122,-0.001832,-0.047018
2797,0.008122,0.017434,-0.047018
2798,0.008122,-0.021098,-0.065715
2799,-0.008979,-0.040364,-0.009625
2800,-0.008979,-0.021098,0.009072
2801,-0.008979,0.017434,-0.009625
2802,-0.008979,-0.001832,-0.009625
2803,-0.008979,-0.040364,0.009072
2804,-0.008979,-0.021098,-0.009625
2805,-0.008979,-0.021098,-0.009625
2806,0.008122,-0.001832,0.009072
2807,0.008122,0.017434,0.009072
2808,-0.008979,0.0367,-0.009625
2809,-0.008979,-0.001832,-0.009625
2810,-0.026081,0.055966,-0.009625
2811,-0.008979,0.017434,0.009072
2812,-0.008979,0.017434,-0.047018
2813,-0.008979,0.017434,-0.028322
2814,0.025223,-0.001832,-0.009625
2815,0.025223,-0.001832,0.027769
2816,0.008122,-0.001832,0.009072
2817,0.025223,-0.001832,0.009072
2818,-0.008979,0.017434,0.027769
2819,0.008122,-0.001832,-0.009625
2820,0.008122,0.017434,-0.047018
2821,0.008122,0.017434,-0.009625
2822,-0.008979,-0.021098,-0.009625
2823,0.008122,-0.001832,-0.028322
2824,-0.008979,-0.001832,-0.028322
2825,0.008122,-0.021098,-0.009625
2826,0.008122,0.017434,-0.028322
2827,0.008122,-0.021098,-0.047018
2828,0.008122,-0.001832,0.009072
2829,0.008122,-0.021098,0.027769
2830,0.008122,-0.001832,-0.028322
2831,-0.008979,-0.021098,0.027769
2832,-0.008979,0.0367,-0.028322
2833,0.025223,0.017434,0.046465
2834,0.025223,-0.001832,0.027769
2835,0.008122,-0.021098,-0.028322
2836,0.008122,-0.001832,0.009072
2837,0.025223,0.017434,0.009072
2838,0.008122,0.017434,-0.028322
2839,-0.008979,-0.001832,-0.009625
2840,-0.008979,-0.040364,0.027769
2841,0.008122,0.017434,0.009072
2842,0.008122,-0.001832,-0.009625
2843,-0.008979,-0.001832,0.009072
2844,0.025223,0.017434,0.046465
2845,0.008122,-0.001832,0.009072
2846,0.008122,-0.021098,0.027769
2847,0.008122,-0.001832,0.009072
2848,0.008122,-0.040364,-0.028322
2849,0.008122,-0.040364,-0.009625
2850,-0.008979,-0.021098,0.009072
2851,0.008122,-0.021098,-0.028322
2852,0.025223,-0.001832,0.009072
2853,0.008122,-0.001832,0.027769
2854,0.008122,0.0367,0.009072
2855,0.008122,0.0367,0.065162
2856,0.008122,0.055966,0.065162
2857,0.008122,0.017434,0.027769
2858,-0.008979,-0.021098,0.065162
2859,-0.008979,-0.021098,0.046465
2860,-0.008979,-0.001832,0.009072
2861,0.008122,0.017434,-0.009625
2862,-0.008979,-0.001832,-0.047018
2863,0.008122,0.017434,-0.047018
2864,0.008122,-0.001832,-0.009625
2865,-0.008979,-0.040364,0.009072
2866,-0.008979,-0.098162,-0.028322
2867,-0.008979,-0.117428,-0.009625
2868,0.008122,-0.194492,-0.065715
2869,-0.008979,-0.098162,-0.047018
2870,0.008122,-0.001832,-0.028322
2871,-0.008979,0.075232,0.009072
2872,0.008122,0.094498,-0.028322
2873,-0.008979,0.13303,-0.009625
2874,0.025223,0.094498,0.046465
2875,0.042325,0.094498,-0.047018
2876,0.025223,0.094498,-0.028322
2877,0.008122,0.0367,0.027769
2878,-0.008979,0.0367,0.009072
2879,0.025223,0.0367,0.009072
2880,0.025223,0.055966,0.009072
2881,0.008122,0.017434,-0.009625
2882,0.008122,-0.001832,0.009072
2883,0.008122,-0.001832,0.009072
2884,0.008122,0.0367,-0.009625
2885,0.008122,-0.001832,0.009072
2886,-0.008979,-0.001832,-0.009625
2887,-0.008979,-0.001832,0.009072
2888,0.008122,-0.021098,-0.009625
2889,0.008122,-0.05963,0.046465
2890,-0.008979,-0.040364,0.027769
2891,0.008122,-0.05963,-0.009625
2892,-0.043182,-0.040364,-0.028322
2893,-0.008979,-0.001832,-0.009625
2894,0.008122,0.0367,-0.047018
2895,-0.008979,0.0367,-0.009625
2896,0.008122,0.0367,0.009072
2897,0.008122,0.0367,0.027769
2898,0.008122,0.075232,0.065162
2899,0.008122,0.075232,0.065162
2900,0.008122,0.0367,0.027769
2901,-0.008979,-0.001832,0.046465
2902,0.008122,-0.021098,0.027769
2903,0.008122,0.017434,-0.047018
2904,0.008122,0.017434,-0.047018
2905,0.008122,-0.001832,-0.047018
2906,0.025223,-0.05963,-0.009625
2907,0.008122,-0.040364,0.009072
2908,0.008122,-0.05963,0.027769
2909,0.008122,-0.040364,0.009072
2910,0.008122,-0.021098,-0.009625
2911,-0.008979,0.017434,-0.028322
2912,-0.008979,0.017434,-0.009625
2913,-0.008979,0.075232,-0.028322
2914,0.008122,0.055966,0.009072
2915,0.025223,-0.001832,0.009072
2916,-0.008979,0.017434,0.046465
2917,0.008122,-0.040364,0.065162
2918,0.008122,0.0367,0.065162
2919,0.008122,-0.001832,0.046465
2920,-0.008979,-0.001832,0.027769
2921,0.008122,0.0367,-0.047018
2922,0.008122,-0.001832,-0.084412
2923,-0.008979,-0.001832,-0.028322
2924,-0.008979,-0.001832,-0.028322
2925,-0.008979,-0.001832,-0.028322
2926,0.008122,0.017434,-0.028322
2927,0.008122,-0.001832,0.009072
2928,-0.026081,-0.021098,0.027769
2929,-0.008979,0.017434,0.009072
2930,-0.008979,-0.001832,-0.028322
2931,-0.008979,-0.021098,-0.028322
2932,-0.008979,0.017434,0.009072
2933,0.008122,-0.040364,0.009072
2934,0.025223,0.0367,-0.009625
2935,-0.008979,-0.001832,0.009072
2936,0.025223,0.017434,-0.009625
2937,0.025223,-0.001832,0.027769
2938,0.025223,0.0367,0.065162
2939,0.008122,0.017434,0.065162
2940,-0.008979,-0.001832,0.009072
2941,-0.043182,-0.001832,0.027769
2942,-0.008979,0.017434,0.009072
2943,-0.008979,-0.021098,-0.009625
2944,0.008122,-0.021098,-0.009625
2945,0.042325,0.017434,-0.009625
2946,-0.008979,0.017434,-0.009625
2947,0.008122,-0.001832,-0.009625
2948,0.008122,0.017434,-0.028322
2949,-0.008979,-0.001832,-0.065715
2950,0.008122,-0.040364,-0.028322
2951,-0.008979,-0.021098,-0.009625
2952,-0.008979,-0.021098,-0.028322
2953,-0.008979,0.017434,-0.009625
2954,0.008122,0.017434,-0.009625
2955,-0.008979,0.017434,-0.028322
2956,0.025223,0.017434,-0.028322
2957,0.008122,0.017434,-0.009625
2958,-0.008979,-0.001832,-0.009625
2959,-0.008979,-0.001832,0.027769
2960,-0.008979,-0.001832,0.027769
2961,-0.008979,-0.021098,0.046465
2962,0.008122,-0.001832,0.065162
2963,-0.008979,-0.021098,0.046465
2964,-0.008979,-0.001832,0.027769
2965,-0.008979,0.017434,0.009072
2966,-0.008979,-0.001832,0.027769
2967,0.008122,-0.001832,-0.084412
2968,0.008122,-0.040364,-0.065715
2969,-0.008979,0.017434,-0.009625
2970,0.008122,0.017434,0.027769
2971,0.008122,0.017434,0.009072
2972,0.025223,-0.001832,0.009072
2973,0.025223,0.0367,-0.009625
2974,-0.008979,-0.021098,-0.028322
2975,-0.008979,0.017434,0.009072
2976,-0.008979,0.017434,-0.009625
2977,-0.026081,0.017434,-0.028322
2978,-0.008979,-0.001832,-0.009625
2979,-0.008979,-0.001832,0.046465
2980,0.008122,-0.001832,0.027769
2981,0.008122,-0.001832,0.065162
2982,-0.008979,-0.021098,0.065162
2983,0.008122,-0.001832,0.027769
2984,0.008122,-0.001832,0.065162
2985,-0.008979,-0.040364,0.009072
2986,0.008122,-0.040364,-0.028322
2987,-0.008979,-0.021098,-0.028322
2988,-0.008979,-0.001832,-0.047018
2989,0.008122,-0.001832,-0.009625
2990,0.025223,-0.001832,0.009072
2991,0.025223,-0.040364,0.009072
2992,0.008122,-0.001832,-0.009625
2993,0.008122,0.017434,-0.009625
2994,0.008122,0.0367,-0.028322
2995,0.008122,0.017434,-0.047018
2996,0.008122,0.0367,-0.009625
2997,-0.008979,0.055966,-0.009625
2998,-0.008979,0.0367,-0.028322
2999,0.008122,0.017434,0.027769
3000,0.008122,-0.001832,0.046465
3001,0.008122,-0.001832,0.009072
3002,0.025223,0.017434,0.027769
3003,-0.008979,-0.001832,0.009072
3004,0.008122,-0.001832,-0.028322
3005,0.008122,0.055966,-0.028322
3006,-0.008979,0.0367,0.046465
3007,-0.008979,0.017434,0.027769
3008,0.008122,-0.001832,0.009072
3009,-0.026081,-0.05963,0.009072
3010,-0.008979,-0.078896,0.009072
3011,-0.008979,-0.098162,0.027769
3012,-0.008979,-0.098162,-0.028322
3013,0.008122,-0.098162,-0.028322
3014,-0.008979,-0.05963,0.009072
3015,0.008122,-0.040364,-0.009625
3016,0.008122,-0.001832,-0.028322
3017,0.025223,0.055966,-0.047018
3018,0.008122,0.055966,-0.009625
3019,-0.008979,0.113764,-0.065715
3020,-0.008979,0.113764,-0.009625
3021,0.008122,0.13303,0.046465
3022,0.042325,0.152296,0.046465
3023,0.008122,0.094498,0.065162
3024,0.025223,0.017434,0.046465
3025,-0.008979,0.017434,0.027769
3026,0.008122,0.017434,0.009072
3027,-0.008979,0.017434,0.009072
3028,0.008122,0.017434,-0.065715
3029,0.008122,-0.001832,-0.065715
3030,-0.026081,0.017434,-0.047018
3031,-0.026081,0.017434,-0.028322
3032,0.025223,-0.021098,-0.009625
3033,0.008122,-0.021098,0.027769
3034,0.008122,-0.040364,0.009072
3035,-0.008979,-0.021098,0.009072
3036,0.008122,-0.040364,0.027769
3037,0.008122,-0.021098,0.009072
3038,0.008122,-0.001832,-0.009625
3039,0.008122,0.017434,0.009072
3040,-0.026081,-0.001832,-0.028322
3041,0.008122,-0.001832,0.009072
3042,-0.008979,-0.001832,0.027769
3043,-0.008979,-0.021098,0.027769
3044,-0.008979,-0.021098,-0.028322
3045,0.008122,-0.001832,0.009072
3046,0.025223,-0.040364,-0.009625
3047,0.008122,-0.021098,-0.028322
3048,0.008122,0.017434,0.009072
3049,-0.008979,0.017434,-0.009625
3050,0.008122,-0.001832,-0.009625
3051,-0.008979,0.017434,0.027769
3052,-0.008979,-0.021098,0.046465
3053,0.008122,-0.001832,0.009072
3054,0.008122,-0.001832,0.046465
3055,-0.008979,0.017434,0.046465
3056,0.008122,0.0367,0.027769
3057,0.008122,0.0367,0.027769
3058,0.008122,0.017434,0.027769
3059,-0.008979,-0.021098,0.009072
3060,-0.008979,0.0367,0.009072
3061,0.008122,-0.001832,-0.028322
3062,0.008122,-0.001832,-0.121806
3063,-0.008979,-0.021098,-0.047018
3064,-0.008979,-0.021098,0.046465
3065,0.008122,-0.001832,0.009072
3066,-0.008979,-0.040364,0.027769
3067,0.008122,-0.021098,0.009072
3068,0.008122,-0.001832,-0.009625
3069,-0.008979,-0.021098,-0.065715
3070,-0.043182,-0.021098,-0.047018
3071,-0.026081,-0.001832,-0.065715
3072,-0.008979,-0.001832,-0.009625
3073,0.008122,-0.001832,0.027769
3074,0.008122,0.017434,0.046465
3075,0.008122,-0.001832,0.027769
3076,-0.008979,-0.021098,0.009072
3077,-0.008979,-0.021098,-0.009625
3078,-0.008979,-0.001832,-0.047018
3079,-0.008979,-0.001832,0.009072
3080,0.008122,-0.001832,-0.009625
3081,0.008122,0.017434,-0.028322
3082,-0.008979,0.017434,0.009072
3083,0.008122,-0.001832,0.027769
3084,-0.008979,0.017434,0.009072
3085,-0.008979,0.017434,0.027769
3086,0.008122,0.017434,0.027769
3087,0.008122,0.0367,-0.009625
3088,-0.008979,0.017434,0.027769
3089,0.008122,0.017434,0.009072
3090,0.008122,-0.001832,0.009072
3091,-0.008979,-0.001832,0.009072
3092,-0.008979,-0.001832,0.027769
3093,0.008122,0.017434,0.009072
3094,0.008122,0.0367,0.009072
3095,0.008122,0.017434,0.009072
3096,0.008122,-0.001832,0.009072
3097,-0.008979,-0.001832,0.009072
3098,0.008122,0.017434,-0.009625
3099,-0.008979,-0.040364,-0.028322
3100,0.008122,-0.05963,-0.009625
3101,0.008122,-0.05963,0.009072
3102,-0.008979,-0.05963,0.009072
3103,-0.008979,-0.001832,0.065162
3104,-0.008979,0.017434,0.065162
3105,0.008122,0.055966,0.065162
3106,0.008122,0.075232,0.065162
3107,0.008122,0.075232,0.009072
3108,0.025223,0.0367,-0.065715
3109,-0.008979,-0.001832,-0.121806
3110,-0.008979,-0.001832,-0.103109
3111,-0.008979,-0.001832,-0.065715
3112,0.008122,-0.001832,-0.028322
3113,0.025223,-0.021098,-0.009625
3114,0.008122,-0.021098,-0.028322
3115,0.025223,0.017434,0.027769
3116,0.008122,-0.001832,0.009072
3117,0.008122,0.017434,0.009072
3118,0.008122,0.017434,-0.009625
3119,0.008122,-0.001832,0.009072
3120,0.008122,0.017434,-0.028322
3121,0.008122,-0.001832,-0.028322
3122,-0.008979,-0.021098,-0.028322
3123,-0.008979,0.0367,-0.009625
3124,0.008122,-0.001832,0.009072
3125,-0.008979,0.017434,0.046465
3126,0.008122,0.0367,0.046465
3127,0.008122,0.017434,0.027769
3128,0.008122,-0.001832,0.046465
3129,-0.008979,-0.001832,0.009072
3130,-0.026081,-0.021098,-0.028322
3131,-0.008979,0.017434,0.009072
3132,0.008122,0.017434,0.009072
3133,0.008122,-0.001832,0.009072
3134,-0.008979,-0.001832,0.027769
3135,0.008122,-0.001832,0.046465
3136,0.008122,0.017434,0.009072
3137,0.008122,-0.001832,0.009072
3138,-0.008979,-0.001832,-0.028322
3139,0.008122,-0.001832,-0.009625
3140,-0.008979,0.0367,0.027769
3141,0.008122,0.017434,0.009072
3142,0.008122,0.017434,-0.028322
3143,-0.008979,-0.021098,-0.009625
3144,0.008122,-0.021098,0.009072
3145,-0.008979,-0.021098,-0.009625
3146,-0.026081,-0.040364,-0.009625
3147,-0.008979,-0.021098,-0.009625
3148,0.008122,-0.001832,-0.009625
3149,-0.008979,0.017434,0.009072
3150,0.025223,0.0367,-0.009625
3151,0.008122,0.0367,-0.009625
3152,0.008122,0.0367,-0.009625
3153,0.042325,0.017434,0.009072
3154,-0.026081,-0.021098,0.009072
3155,0.008122,-0.040364,0.009072
3156,0.025223,-0.001832,0.027769
3157,0.008122,-0.001832,0.009072
3158,-0.026081,-0.001832,0.009072
3159,-0.008979,0.017434,-0.009625
3160,-0.008979,0.017434,-0.028322
3161,-0.008979,0.0367,-0.028322
3162,0.008122,0.017434,-0.009625
3163,-0.008979,-0.001832,-0.009625
3164,0.008122,-0.021098,-0.028322
3165,-0.008979,-0.021098,-0.028322
3166,0.008122,0.017434,-0.009625
3167,0.008122,-0.001832,0.027769
3168,0.025223,0.017434,0.065162
3169,-0.008979,0.0367,0.046465
3170,-0.026081,0.017434,0.046465
3171,-0.008979,-0.001832,0.046465
3172,0.025223,-0.021098,0.009072
3173,-0.008979,-0.001832,0.009072
3174,-0.008979,0.017434,0.009072
3175,0.008122,-0.021098,-0.084412
3176,0.008122,-0.021098,-0.047018
3177,0.008122,-0.001832,-0.028322
3178,-0.008979,-0.021098,-0.028322
3179,-0.008979,-0.001832,-0.047018
3180,-0.008979,-0.001832,0.009072
3181,0.008122,0.017434,0.009072
3182,0.008122,0.017434,0.009072
3183,0.008122,-0.001832,0.009072
3184,-0.008979,0.0367,0.009072
3185,0.008122,-0.021098,-0.009625
3186,-0.008979,-0.040364,0.027769
3187,0.008122,-0.021098,0.009072
3188,0.008122,-0.021098,-0.009625
3189,-0.008979,-0.021098,0.009072
3190,-0.008979,-0.001832,0.027769
3191,-0.008979,0.017434,0.009072
3192,0.008122,0.017434,0.046465
3193,0.008122,-0.001832,-0.009625
3194,-0.008979,0.0367,-0.009625
3195,0.008122,0.017434,-0.009625
3196,0.008122,0.017434,-0.028322
3197,-0.026081,0.017434,-0.028322
3198,0.008122,-0.001832,0.027769
3199,0.008122,-0.040364,0.027769
3200,0.008122,-0.040364,0.027769
3201,-0.008979,-0.021098,0.046465
3202,0.008122,-0.001832,0.027769
3203,-0.008979,0.017434,-0.009625
3204,0.025223,0.055966,-0.009625
3205,-0.008979,0.075232,0.009072
3206,0.025223,0.113764,-0.009625
3207,0.008122,0.0367,0.009072
3208,0.025223,0.017434,0.027769
3209,0.008122,-0.001832,0.046465
3210,-0.026081,-0.040364,0.009072
3211,-0.026081,-0.098162,0.027769
3212,-0.008979,-0.098162,0.009072
3213,0.008122,-0.098162,-0.028322
3214,-0.026081,-0.078896,0.009072
3215,-0.008979,-0.040364,-0.028322
3216,0.008122,0.0367,-0.028322
3217,0.008122,0.0367,0.009072
3218,0.008122,0.13303,-0.047018
3219,0.008122,0.152296,-0.028322
3220,0.025223,0.152296,-0.028322
3221,0.025223,0.075232,0.009072
3222,0.008122,0.055966,0.009072
3223,0.008122,0.055966,0.027769
3224,-0.008979,-0.001832,0.009072
3225,-0.008979,-0.001832,-0.009625
3226,-0.008979,-0.001832,0.009072
3227,0.008122,0.017434,0.009072
3228,0.008122,-0.001832,0.027769
3229,0.008122,-0.001832,0.009072
3230,0.008122,0.017434,0.027769
3231,0.008122,0.017434,0.009072
3232,0.008122,-0.001832,0.009072
3233,0.008122,-0.021098,-0.028322
3234,-0.008979,-0.001832,-0.028322
3235,0.008122,-0.040364,-0.009625
3236,-0.008979,-0.001832,0.009072
3237,-0.008979,0.017434,-0.009625
3238,-0.008979,0.017434,0.027769
3239,0.008122,-0.001832,0.046465
3240,0.008122,-0.001832,-0.009625
3241,-0.008979,-0.040364,-0.009625
3242,-0.008979,0.017434,0.046465
3243,0.008122,-0.040364,0.009072
3244,-0.008979,-0.001832,0.009072
3245,-0.008979,-0.021098,-0.028322
3246,-0.008979,-0.021098,-0.028322
3247,-0.008979,-0.001832,-0.009625
3248,0.008122,-0.001832,0.009072
3249,0.008122,-0.021098,-0.028322
3250,0.008122,-0.021098,-0.009625
3251,0.008122,-0.021098,0.027769
3252,0.008122,0.017434,-0.009625
3253,0.008122,-0.001832,0.027769
3254,-0.008979,-0.001832,0.027769
3255,0.008122,-0.001832,0.009072
3256,-0.008979,-0.001832,-0.009625
3257,-0.008979,-0.001832,0.046465
3258,0.008122,-0.021098,0.009072
3259,-0.008979,-0.001832,-0.047018
3260,-0.008979,-0.001832,-0.009625
3261,-0.008979,-0.001832,0.027769
3262,0.008122,-0.001832,0.027769
3263,0.008122,0.0367,0.027769
3264,-0.008979,0.017434,-0.009625
3265,0.008122,0.017434,-0.047018
3266,-0.008979,-0.001832,-0.047018
3267,-0.008979,-0.05963,-0.047018
3268,-0.008979,-0.021098,-0.047018
3269,-0.008979,-0.021098,0.009072
3270,-0.008979,-0.021098,0.009072
3271,0.008122,-0.040364,0.009072
3272,-0.008979,-0.001832,0.027769
3273,0.008122,0.017434,0.046465
3274,-0.008979,0.017434,0.046465
3275,0.008122,0.0367,0.046465
3276,0.025223,0.017434,0.027769
3277,-0.008979,0.017434,-0.009625
3278,0.008122,0.0367,-0.028322
3279,-0.008979,0.0367,-0.009625
3280,-0.008979,0.017434,-0.028322
3281,0.008122,0.0367,0.009072
3282,0.008122,-0.001832,0.046465
3283,0.008122,-0.001832,0.009072
3284,-0.008979,-0.001832,0.009072
3285,0.008122,-0.001832,0.027769
3286,0.008122,0.094498,0.009072
3287,0.008122,-0.001832,-0.028322
3288,0.008122,0.017434,0.027769
3289,-0.008979,-0.021098,0.046465
3290,-0.008979,0.0367,0.009072
3291,0.008122,-0.001832,0.027769
3292,0.008122,-0.001832,-0.009625
3293,-0.008979,0.0367,0.009072
3294,-0.008979,-0.040364,0.009072
3295,-0.008979,-0.001832,-0.028322
3296,-0.008979,-0.021098,0.027769
3297,-0.008979,-0.001832,0.046465
3298,-0.008979,-0.021098,0.009072
3299,-0.008979,0.017434,-0.009625
3300,0.008122,0.017434,-0.009625
3301,0.025223,-0.001832,-0.047018
3302,0.008122,-0.001832,-0.065715
3303,0.008122,0.0367,-0.065715
3304,0.008122,-0.021098,0.009072
3305,0.025223,0.017434,0.009072
3306,-0.026081,-0.021098,0.046465
3307,-0.008979,-0.021098,0.009072
3308,0.008122,-0.001832,-0.009625
3309,-0.026081,-0.021098,-0.047018
3310,-0.008979,-0.021098,-0.028322
3311,-0.008979,-0.021098,-0.028322
3312,-0.008979,-0.040364,-0.009625
3313,0.008122,-0.001832,0.009072
3314,-0.008979,-0.001832,-0.009625
3315,0.008122,0.0367,-0.009625
3316,0.008122,0.0367,0.027769
3317,-0.026081,-0.001832,-0.009625
3318,0.008122,0.0367,0.046465
3319,0.008122,0.017434,0.027769
3320,0.008122,-0.021098,-0.009625
3321,0.008122,-0.040364,-0.009625
3322,0.008122,-0.001832,0.009072
3323,0.008122,-0.001832,-0.009625
3324,0.008122,-0.001832,0.009072
3325,0.008122,0.017434,0.027769
3326,0.025223,0.055966,0.009072
3327,0.008122,0.0367,0.046465
3328,0.008122,0.017434,0.046465
3329,-0.008979,-0.001832,0.046465
3330,-0.008979,-0.021098,-0.009625
3331,-0.008979,-0.001832,0.046465
3332,0.008122,-0.001832,0.009072
3333,0.008122,-0.001832,-0.047018
3334,-0.026081,-0.021098,-0.028322
3335,-0.008979,0.017434,-0.047018
3336,0.008122,0.0367,0.009072
3337,0.008122,0.017434,-0.009625
3338,0.008122,0.017434,-0.009625
3339,-0.008979,0.0367,-0.028322
3340,0.025223,0.017434,-0.009625
3341,0.025223,0.017434,0.009072
3342,0.008122,-0.040364,0.009072
3343,-0.008979,-0.021098,0.027769
3344,-0.008979,-0.021098,0.027769
3345,-0.008979,0.017434,0.046465
3346,0.008122,0.017434,0.027769
3347,0.008122,0.017434,-0.009625
3348,0.008122,0.017434,-0.065715
3349,0.008122,-0.021098,-0.028322
3350,-0.008979,-0.021098,-0.009625
3351,-0.008979,-0.001832,-0.009625
3352,-0.008979,-0.001832,-0.009625
3353,0.008122,0.017434,-0.028322
3354,-0.008979,-0.001832,-0.028322
3355,0.008122,-0.001832,-0.009625
3356,-0.008979,0.017434,0.027769
3357,0.008122,-0.021098,0.009072
3358,-0.008979,-0.001832,-0.009625
3359,-0.008979,-0.001832,0.009072
3360,0.008122,-0.021098,-0.009625
3361,0.008122,-0.001832,0.027769
3362,0.008122,-0.021098,0.027769
3363,0.025223,-0.001832,-0.028322
3364,-0.008979,0.0367,-0.009625
3365,-0.008979,-0.001832,0.009072
3366,-0.008979,0.017434,-0.028322
3367,-0.008979,-0.001832,0.009072
3368,0.008122,-0.021098,0.065162
3369,0.008122,0.017434,0.009072
3370,0.008122,-0.001832,0.027769
3371,0.008122,0.017434,0.009072
3372,-0.008979,0.017434,0.027769
3373,0.008122,0.017434,-0.009625
3374,-0.008979,-0.001832,-0.009625
3375,0.008122,0.017434,-0.028322
3376,-0.008979,0.017434,0.027769
3377,-0.008979,-0.001832,-0.009625
3378,0.008122,-0.021098,0.027769
3379,-0.008979,-0.021098,0.009072
3380,-0.008979,-0.021098,-0.009625
3381,-0.008979,-0.021098,-0.009625
3382,0.008122,-0.021098,-0.028322
3383,0.008122,-0.040364,-0.028322
3384,-0.008979,-0.040364,-0.009625
3385,-0.008979,-0.021098,-0.047018
3386,0.008122,0.017434,-0.009625
3387,0.008122,0.0367,0.009072
3388,0.008122,0.0367,0.046465
3389,-0.008979,0.0367,0.065162
3390,0.008122,0.017434,0.083859
3391,-0.008979,-0.021098,0.046465
3392,-0.008979,0.017434,0.046465
3393,-0.008979,-0.001832,0.009072
3394,0.008122,0.017434,-0.065715
3395,-0.008979,-0.001832,-0.047018
3396,0.008122,-0.001832,-0.028322
3397,0.008122,-0.001832,-0.028322
3398,-0.008979,0.017434,0.009072
3399,-0.008979,-0.021098,0.009072
3400,0.008122,-0.001832,0.009072
3401,0.008122,0.017434,0.027769
3402,0.008122,0.017434,0.009072
3403,-0.008979,-0.001832,-0.009625
3404,-0.008979,0.0367,-0.009625
3405,-0.008979,0.017434,0.009072
3406,0.008122,0.017434,-0.009625
3407,-0.008979,0.0367,0.027769
3408,-0.008979,-0.001832,0.027769
3409,0.008122,0.017434,0.009072
3410,0.008122,0.017434,0.009072
3411,0.008122,-0.001832,0.027769
3412,0.025223,0.017434,0.009072
3413,-0.008979,0.017434,0.046465
3414,0.008122,0.017434,-0.009625
3415,0.008122,-0.001832,0.009072
3416,0.008122,-0.021098,0.009072
3417,0.008122,-0.001832,0.027769
3418,0.008122,-0.001832,-0.009625
3419,-0.008979,0.017434,-0.009625
3420,-0.008979,0.017434,0.027769
3421,0.008122,0.0367,0.009072
3422,0.008122,0.017434,-0.009625
3423,-0.008979,-0.001832,0.009072
3424,0.008122,-0.021098,-0.009625
3425,0.008122,-0.021098,-0.009625
3426,-0.008979,-0.001832,-0.009625
3427,-0.008979,0.017434,-0.028322
3428,-0.008979,0.017434,0.009072
3429,0.008122,0.017434,0.009072
3430,-0.008979,-0.001832,0.009072
3431,-0.008979,0.017434,0.027769
3432,-0.008979,-0.021098,0.027769
3433,0.008122,-0.001832,-0.009625
3434,0.008122,-0.001832,0.009072
3435,0.008122,-0.021098,0.027769
3436,0.008122,-0.001832,0.009072
3437,0.008122,0.017434,0.009072
3438,-0.008979,0.017434,0.046465
3439,0.008122,0.0367,-0.009625
3440,0.008122,0.0367,0.027769
3441,-0.008979,-0.001832,0.009072
3442,0.008122,-0.001832,-0.028322
3443,0.008122,-0.040364,-0.065715
3444,-0.026081,-0.021098,-0.028322
3445,-0.008979,-0.021098,-0.028322
3446,0.008122,-0.021098,-0.065715
3447,-0.008979,-0.001832,-0.047018
3448,0.008122,-0.001832,-0.028322
3449,-0.008979,0.017434,-0.009625
3450,0.008122,-0.001832,-0.009625
3451,0.025223,-0.001832,0.027769
3452,0.008122,-0.021098,0.027769
3453,0.008122,-0.001832,0.046465
3454,0.008122,0.017434,0.027769
3455,0.008122,-0.001832,-0.009625
3456,0.008122,-0.001832,-0.047018
3457,0.008122,0.0367,-0.084412
3458,0.008122,-0.021098,-0.047018
3459,0.008122,-0.001832,-0.009625
3460,0.008122,0.017434,0.009072
3461,0.008122,-0.001832,0.009072
3462,-0.008979,0.017434,0.046465
3463,0.008122,-0.040364,0.027769
3464,0.008122,-0.001832,0.009072
3465,0.008122,-0.021098,-0.028322
3466,-0.008979,-0.001832,0.009072
3467,0.008122,-0.021098,0.009072
3468,-0.008979,0.017434,-0.009625
3469,0.008122,0.0367,0.027769
3470,0.025223,0.017434,-0.047018
3471,0.008122,0.017434,0.009072
3472,0.008122,-0.001832,0.027769
3473,-0.008979,-0.021098,-0.009625
3474,-0.043182,-0.021098,0.027769
3475,-0.008979,-0.021098,0.027769
3476,-0.008979,-0.021098,-0.009625
3477,0.008122,-0.001832,-0.009625
3478,-0.008979,-0.001832,-0.009625
3479,0.008122,0.017434,-0.028322
3480,0.025223,0.017434,-0.028322
3481,0.025223,0.017434,0.009072
3482,0.008122,-0.001832,0.027769
3483,0.008122,-0.001832,-0.009625
3484,-0.008979,-0.001832,0.009072
3485,0.008122,0.017434,-0.009625
3486,0.008122,-0.001832,-0.028322
3487,0.008122,0.017434,0.009072
3488,0.008122,-0.001832,0.009072
3489,-0.008979,-0.001832,-0.009625
3490,0.008122,0.017434,0.009072
3491,0.008122,-0.021098,0.027769
3492,-0.008979,0.017434,0.009072
3493,-0.026081,-0.001832,0.027769
3494,-0.026081,-0.001832,0.027769
3495,-0.008979,-0.001832,0.009072
3496,0.008122,0.017434,0.027769
3497,-0.008979,-0.021098,0.009072
3498,-0.008979,-0.001832,-0.028322
3499,-0.008979,-0.078896,-0.009625
3500,0.008122,-0.021098,-0.009625
3501,0.025223,0.055966,-0.009625
3502,0.025223,0.055966,-0.009625
3503,0.025223,0.0367,0.027769
3504,0.008122,0.0367,0.009072
3505,0.008122,0.075232,0.009072
3506,-0.008979,0.075232,0.009072
3507,0.008122,0.055966,-0.009625
3508,-0.008979,0.017434,-0.028322
3509,-0.008979,-0.001832,-0.009625
3510,-0.026081,-0.021098,-0.009625
3511,0.008122,0.0367,0.009072
3512,-0.008979,-0.001832,0.009072
3513,0.008122,0.017434,-0.009625
3514,0.008122,0.0367,0.009072
3515,0.008122,0.017434,0.046465
3516,0.008122,0.017434,-0.009625
3517,0.008122,-0.001832,-0.028322
3518,0.025223,0.017434,-0.009625
3519,0.008122,-0.001832,-0.009625
3520,-0.008979,-0.001832,-0.028322
3521,0.008122,-0.001832,-0.028322
3522,-0.008979,-0.021098,-0.028322
3523,-0.008979,0.017434,0.027769
3524,-0.008979,-0.001832,0.027769
3525,0.008122,-0.001832,-0.009625
3526,0.008122,-0.001832,0.027769
3527,0.008122,-0.001832,0.009072
3528,-0.008979,0.017434,-0.009625
3529,0.008122,0.017434,-0.028322
3530,0.008122,-0.001832,-0.009625
3531,0.008122,0.017434,-0.009625
3532,0.008122,-0.001832,0.009072
3533,-0.008979,-0.001832,0.046465
3534,0.008122,0.017434,0.065162
3535,-0.008979,-0.001832,0.046465
3536,-0.008979,-0.021098,0.083859
3537,-0.008979,-0.001832,0.083859
3538,-0.008979,-0.001832,0.046465
3539,-0.008979,-0.021098,-0.009625
3540,0.008122,0.017434,-0.009625
3541,0.008122,0.017434,-0.009625
3542,0.008122,-0.021098,-0.047018
3543,-0.008979,-0.021098,-0.103109
3544,-0.008979,0.0367,-0.121806
3545,0.008122,0.094498,-0.047018
3546,0.008122,0.017434,-0.009625
3547,0.008122,-0.001832,-0.028322
3548,0.008122,-0.001832,-0.009625
3549,0.008122,0.017434,-0.009625
3550,0.008122,-0.001832,-0.009625
3551,0.008122,0.0367,0.027769
3552,-0.008979,0.017434,0.046465
3553,0.008122,0.0367,0.027769
3554,0.008122,-0.001832,0.009072
3555,-0.008979,-0.001832,0.046465
3556,0.008122,0.017434,0.027769
3557,0.008122,0.017434,0.046465
3558,0.008122,0.017434,0.027769
3559,0.008122,0.017434,-0.009625
3560,0.008122,-0.021098,-0.047018
3561,-0.008979,-0.021098,-0.047018
3562,-0.008979,-0.001832,-0.047018
3563,-0.008979,-0.001832,0.009072
3564,0.008122,0.017434,0.009072
3565,0.008122,-0.040364,0.009072
3566,0.025223,0.017434,0.009072
3567,0.025223,0.017434,0.009072
3568,-0.008979,-0.001832,-0.009625
3569,0.008122,0.017434,-0.028322
3570,0.025223,0.017434,-0.009625
3571,-0.008979,0.017434,-0.028322
3572,0.008122,-0.021098,-0.009625
3573,-0.008979,-0.021098,0.027769
3574,-0.008979,0.017434,0.027769
3575,-0.008979,0.017434,0.046465
3576,-0.008979,-0.021098,0.046465
3577,0.008122,-0.021098,0.009072
3578,0.008122,-0.001832,-0.047018
3579,0.008122,-0.021098,-0.009625
3580,0.025223,-0.001832,-0.103109
3581,-0.008979,0.017434,-0.065715
3582,0.008122,0.017434,0.009072
3583,-0.008979,-0.021098,-0.028322
3584,0.008122,-0.001832,0.027769
3585,0.008122,0.017434,0.027769
3586,0.008122,0.017434,0.009072
3587,0.008122,-0.001832,0.027769
3588,0.008122,0.017434,0.009072
3589,0.008122,-0.001832,-0.009625
3590,0.008122,-0.021098,-0.009625
3591,0.008122,-0.001832,0.027769
3592,0.025223,-0.040364,0.009072
3593,0.008122,-0.021098,0.009072
3594,0.008122,-0.001832,0.009072
3595,0.008122,-0.001832,0.009072
3596,0.008122,-0.021098,0.027769
3597,0.008122,-0.040364,0.027769
3598,-0.008979,-0.078896,0.009072
3599,0.008122,-0.05963,-0.009625
3600,0.008122,-0.05963,0.009072
3601,0.008122,-0.040364,0.009072
3602,-0.008979,-0.001832,-0.028322
3603,0.008122,0.075232,-0.009625
3604,0.008122,0.094498,-0.009625
3605,-0.008979,0.0367,0.009072
3606,0.008122,0.094498,0.027769
3607,0.008122,0.055966,0.009072
3608,0.008122,0.055966,-0.028322
3609,0.008122,0.055966,0.027769
3610,0.008122,-0.001832,-0.009625
3611,-0.008979,-0.001832,-0.009625
3612,0.008122,0.017434,-0.009625
3613,0.008122,0.017434,-0.047018
3614,0.008122,0.017434,0.009072
3615,-0.008979,0.017434,0.009072
3616,-0.008979,0.0367,0.046465
3617,0.008122,0.0367,0.027769
3618,0.025223,0.017434,0.046465
3619,0.008122,0.017434,0.027769
3620,0.025223,0.017434,0.009072
3621,0.025223,0.017434,0.027769
3622,0.025223,-0.001832,-0.065715
3623,-0.008979,-0.021098,-0.065715
3624,-0.008979,-0.021098,-0.009625
3625,-0.008979,-0.001832,0.027769
3626,-0.008979,-0.001832,0.027769
3627,0.008122,-0.040364,0.046465
3628,-0.026081,0.017434,0.027769
3629,-0.008979,-0.001832,0.009072
3630,0.008122,-0.001832,-0.047018
3631,-0.008979,0.0367,-0.047018
