# Requested Sampling Rate (Hz):,1000
# Actual Sampling Rate (Hz):,999.039
# Requested Duration (s):,5.0
# Actual Duration (s):,5.043
# REST Calibration:,831.5250689655151,832.0950689655182,831.5147931034478
# MAX Calibration:,890.0000,884.0000,885.0000
# Normalization: MVC-based  (x_norm = (x - REST) / (MAX - REST))
sample_idx,EMG1,EMG2,EMG3
0,-0.008979,0.0367,-0.009625
1,0.008122,-0.021098,-0.009625
2,0.008122,-0.021098,-0.009625
3,-0.008979,-0.040364,-0.047018
4,0.008122,-0.040364,-0.009625
5,0.008122,-0.05963,-0.028322
6,0.008122,-0.098162,-0.009625
7,-0.008979,-0.078896,0.027769
8,0.008122,-0.05963,0.009072
9,-0.008979,-0.05963,0.009072
10,-0.008979,-0.021098,0.009072
11,0.008122,-0.021098,-0.009625
12,0.008122,0.017434,0.009072
13,0.008122,0.055966,0.027769
14,0.025223,0.094498,0.009072
15,-0.008979,0.075232,0.009072
16,-0.008979,0.0367,0.027769
17,-0.008979,0.055966,-0.028322
18,0.025223,0.0367,-0.028322
19,-0.008979,0.017434,0.009072
20,-0.008979,-0.001832,0.027769
21,-0.008979,-0.001832,0.009072
22,0.008122,-0.001832,-0.028322
23,-0.008979,-0.078896,0.009072
24,0.008122,-0.05963,0.009072
25,-0.008979,-0.05963,-0.047018
26,-0.026081,-0.05963,-0.028322
27,0.008122,-0.05963,-0.028322
28,0.008122,-0.040364,-0.028322
29,0.008122,-0.040364,-0.009625
30,0.008122,-0.040364,-0.009625
31,-0.008979,-0.021098,-0.009625
32,0.025223,0.017434,-0.009625
33,0.008122,-0.001832,0.009072
34,0.008122,-0.001832,-0.009625
35,0.008122,0.017434,0.046465
36,0.025223,0.075232,0.027769
37,0.008122,0.0367,-0.009625
38,0.008122,0.0367,0.009072
39,0.008122,0.017434,0.009072
40,0.025223,0.055966,0.009072
41,0.025223,0.0367,-0.047018
42,0.025223,-0.001832,-0.009625
43,0.008122,-0.021098,0.027769
44,0.008122,-0.021098,0.009072
45,0.008122,-0.001832,0.027769
46,-0.008979,-0.021098,0.046465
47,-0.008979,-0.021098,-0.009625
48,-0.008979,-0.040364,0.046465
49,-0.008979,-0.040364,0.009072
50,-0.008979,-0.021098,0.027769
51,-0.026081,-0.040364,0.009072
52,-0.008979,-0.05963,0.027769
53,-0.008979,-0.021098,0.009072
54,-0.026081,-0.021098,0.009072
55,-0.008979,-0.001832,-0.065715
56,0.008122,0.017434,-0.047018
57,0.025223,-0.001832,0.027769
58,0.008122,-0.001832,0.027769
59,0.025223,-0.021098,0.027769
60,0.025223,-0.021098,0.009072
61,0.025223,-0.021098,-0.009625
62,0.008122,-0.040364,-0.065715
63,0.008122,-0.078896,0.009072
64,0.008122,-0.078896,0.027769
65,0.008122,-0.021098,0.009072
66,0.008122,-0.001832,0.065162
67,0.008122,0.0367,0.009072
68,0.008122,0.075232,0.009072
69,0.008122,0.075232,0.027769
70,-0.026081,0.017434,0.027769
71,-0.008979,-0.021098,-0.065715
72,-0.008979,-0.05963,-0.065715
73,-0.008979,-0.040364,-0.028322
74,-0.008979,-0.05963,0.009072
75,0.008122,-0.05963,0.009072
76,0.008122,-0.05963,0.027769
77,0.008122,-0.001832,0.027769
78,0.008122,0.0367,-0.009625
79,0.008122,-0.021098,0.027769
80,0.008122,0.017434,-0.028322
81,0.008122,-0.001832,-0.065715
82,0.008122,-0.021098,-0.065715
83,0.025223,-0.05963,-0.028322
84,0.008122,-0.078896,-0.009625
85,0.008122,-0.078896,-0.028322
86,-0.008979,-0.098162,-0.047018
87,-0.008979,-0.040364,-0.009625
88,-0.008979,0.017434,-0.028322
89,-0.008979,0.0367,-0.009625
90,0.008122,0.094498,0.009072
91,0.008122,0.113764,0.009072
92,0.025223,0.075232,-0.009625
93,0.025223,0.017434,-0.047018
94,0.025223,-0.001832,-0.009625
95,0.008122,-0.001832,0.009072
96,0.008122,-0.021098,0.027769
97,-0.008979,-0.040364,0.009072
98,-0.008979,-0.078896,0.046465
99,-0.008979,-0.040364,0.027769
100,-0.008979,0.017434,0.027769
101,0.008122,-0.021098,0.009072
102,0.008122,-0.021098,-0.009625
103,0.008122,0.017434,-0.028322
104,-0.008979,-0.021098,0.027769
105,0.008122,-0.001832,0.027769
106,-0.026081,-0.040364,0.046465
107,-0.008979,-0.05963,0.009072
108,-0.008979,-0.078896,0.009072
109,0.025223,-0.05963,-0.009625
110,0.025223,-0.078896,-0.028322
111,0.008122,-0.001832,0.027769
112,0.008122,0.055966,-0.028322
113,0.008122,0.055966,-0.028322
114,-0.008979,0.055966,-0.028322
115,0.008122,0.055966,0.027769
116,-0.008979,-0.001832,0.046465
117,0.008122,-0.021098,0.083859
118,0.008122,-0.040364,0.083859
119,0.008122,-0.021098,0.065162
120,0.008122,-0.001832,-0.009625
121,0.008122,-0.001832,-0.047018
122,0.008122,-0.021098,-0.121806
123,-0.008979,-0.05963,-0.103109
124,0.008122,-0.021098,-0.009625
125,0.008122,-0.001832,0.009072
126,-0.008979,-0.021098,-0.047018
127,-0.008979,-0.001832,-0.028322
128,0.008122,0.055966,-0.009625
129,0.025223,0.0367,-0.009625
130,0.025223,0.017434,-0.009625
131,0.008122,0.017434,0.027769
132,0.008122,-0.001832,0.083859
133,-0.008979,0.017434,0.065162
134,-0.008979,-0.001832,0.083859
135,0.008122,-0.001832,0.046465
136,-0.008979,-0.001832,0.046465
137,0.008122,-0.040364,0.046465
138,0.008122,-0.040364,0.009072
139,0.025223,-0.040364,-0.028322
140,-0.008979,-0.040364,-0.065715
141,0.008122,-0.040364,-0.009625
142,-0.008979,-0.021098,-0.028322
143,0.008122,-0.001832,0.009072
144,0.008122,-0.021098,0.027769
145,0.008122,-0.021098,0.027769
146,-0.008979,-0.001832,-0.047018
147,-0.026081,-0.021098,-0.103109
148,0.008122,-0.021098,-0.047018
149,0.008122,-0.021098,0.009072
150,0.008122,-0.021098,-0.009625
151,0.008122,-0.001832,0.027769
152,-0.008979,-0.040364,-0.009625
153,-0.008979,-0.05963,-0.065715
154,-0.008979,-0.05963,-0.009625
155,-0.008979,-0.040364,-0.009625
156,0.008122,-0.021098,-0.028322
157,-0.008979,-0.021098,-0.009625
158,-0.008979,-0.001832,0.009072
159,0.008122,0.0367,0.009072
160,0.008122,0.055966,0.027769
161,0.025223,0.075232,0.046465
162,0.008122,0.017434,0.009072
163,0.008122,-0.021098,-0.009625
164,0.025223,-0.021098,0.009072
165,0.008122,-0.040364,0.009072
166,0.008122,-0.040364,0.009072
167,-0.008979,-0.021098,0.027769
168,0.008122,-0.001832,0.009072
169,0.008122,-0.040364,0.027769
170,-0.008979,-0.001832,0.027769
171,-0.008979,-0.021098,0.046465
172,0.008122,-0.021098,0.027769
173,0.008122,-0.021098,0.046465
174,0.008122,0.017434,0.027769
175,0.025223,-0.001832,-0.009625
176,-0.008979,-0.021098,-0.084412
177,-0.008979,-0.021098,-0.065715
178,0.008122,0.017434,-0.047018
179,0.008122,-0.001832,-0.009625
180,0.008122,0.0367,0.027769
181,0.025223,0.017434,0.027769
182,0.008122,-0.001832,0.065162
183,0.008122,0.017434,0.065162
184,0.008122,-0.021098,0.027769
185,0.025223,-0.001832,-0.065715
186,-0.026081,-0.05963,-0.009625
187,-0.008979,-0.021098,0.027769
188,-0.008979,-0.021098,-0.009625
189,-0.008979,-0.040364,-0.047018
190,0.008122,-0.021098,-0.009625
191,0.008122,-0.021098,0.009072
192,-0.008979,-0.001832,0.009072
193,0.008122,-0.040364,0.027769
194,-0.008979,-0.078896,0.027769
195,0.008122,-0.078896,-0.009625
196,-0.008979,-0.098162,0.027769
197,-0.008979,-0.078896,0.027769
198,-0.008979,-0.040364,0.009072
199,0.008122,-0.001832,0.027769
200,0.008122,-0.021098,-0.047018
201,0.008122,-0.001832,-0.065715
202,-0.008979,-0.040364,-0.028322
203,-0.026081,-0.001832,-0.028322
204,-0.008979,0.017434,-0.009625
205,0.025223,-0.001832,0.009072
206,0.008122,0.017434,-0.009625
207,-0.008979,0.0367,0.009072
208,-0.008979,0.094498,-0.009625
209,0.025223,0.113764,0.027769
210,0.008122,0.094498,0.009072
211,0.042325,0.055966,0.009072
212,0.042325,0.094498,0.027769
213,0.008122,-0.001832,0.009072
214,0.008122,-0.05963,-0.009625
215,0.008122,0.017434,-0.028322
216,0.008122,-0.021098,0.009072
217,-0.008979,-0.040364,-0.009625
218,-0.008979,0.017434,0.009072
219,-0.026081,-0.05963,0.009072
220,0.008122,-0.021098,0.027769
221,0.025223,0.017434,0.027769
222,0.008122,-0.021098,0.046465
223,0.008122,-0.021098,0.027769
224,0.008122,-0.001832,0.009072
225,-0.008979,-0.05963,0.027769
226,0.008122,-0.040364,-0.009625
227,0.008122,-0.021098,-0.047018
228,0.008122,-0.021098,-0.084412
229,-0.026081,-0.021098,-0.009625
230,-0.008979,-0.021098,-0.028322
231,-0.008979,-0.021098,0.009072
232,0.008122,0.017434,0.065162
233,0.008122,0.017434,0.065162
234,-0.008979,0.017434,0.065162
235,0.008122,-0.001832,0.065162
236,0.008122,-0.001832,-0.009625
237,0.025223,-0.021098,-0.065715
238,0.008122,-0.040364,-0.047018
239,0.008122,-0.05963,-0.047018
240,0.008122,-0.078896,-0.028322
241,0.008122,-0.021098,0.009072
242,0.025223,-0.021098,0.027769
243,0.008122,-0.001832,0.009072
244,-0.008979,-0.040364,0.027769
245,-0.008979,0.0367,-0.009625
246,0.008122,0.055966,0.027769
247,0.025223,0.055966,0.027769
248,0.008122,0.017434,0.027769
249,-0.008979,-0.001832,0.027769
250,0.008122,0.0367,0.009072
251,0.008122,0.017434,-0.028322
252,0.008122,-0.001832,-0.047018
253,0.008122,-0.001832,-0.047018
254,-0.008979,-0.05963,-0.009625
255,0.008122,-0.001832,0.046465
256,-0.008979,-0.021098,-0.028322
257,-0.026081,-0.05963,-0.009625
258,-0.008979,-0.05963,-0.009625
259,0.025223,-0.021098,-0.065715
260,0.008122,-0.021098,-0.065715
261,0.025223,-0.001832,-0.009625
262,0.008122,-0.001832,-0.028322
263,0.025223,-0.001832,-0.028322
264,0.008122,-0.001832,-0.009625
265,-0.008979,-0.021098,-0.028322
266,-0.008979,-0.001832,-0.009625
267,-0.008979,-0.001832,0.009072
268,-0.008979,0.017434,0.027769
269,-0.008979,0.017434,-0.009625
270,0.008122,-0.001832,0.009072
271,0.008122,-0.001832,0.009072
272,0.008122,-0.040364,0.009072
273,0.008122,-0.001832,-0.009625
274,0.008122,-0.021098,0.027769
275,0.008122,-0.001832,-0.009625
276,0.025223,-0.040364,-0.009625
277,0.008122,-0.05963,-0.009625
278,0.025223,-0.040364,-0.028322
279,0.008122,-0.078896,-0.028322
280,-0.008979,-0.117428,-0.009625
281,-0.026081,-0.098162,0.046465
282,-0.026081,-0.05963,0.009072
283,-0.043182,-0.040364,0.009072
284,-0.008979,-0.001832,0.027769
285,-0.008979,-0.021098,-0.009625
286,0.008122,0.017434,-0.028322
287,0.008122,0.075232,0.009072
288,0.025223,0.0367,0.009072
289,0.008122,0.0367,0.009072
290,0.025223,0.075232,0.027769
291,0.025223,0.075232,-0.009625
292,0.025223,0.094498,0.009072
293,0.025223,0.017434,0.009072
294,0.008122,-0.098162,0.009072
295,0.008122,-0.05963,0.009072
296,0.008122,-0.040364,0.009072
297,0.025223,-0.021098,-0.009625
298,0.008122,0.017434,0.009072
299,-0.008979,0.0367,-0.009625
300,-0.008979,0.0367,0.009072
301,0.008122,0.075232,-0.009625
302,0.008122,-0.001832,-0.009625
303,0.008122,-0.040364,0.009072
304,0.008122,0.017434,0.009072
305,0.008122,-0.001832,-0.028322
306,-0.026081,-0.001832,0.009072
307,-0.026081,0.075232,0.065162
308,0.025223,0.017434,0.027769
309,0.025223,0.017434,0.046465
310,0.008122,-0.040364,0.046465
311,-0.026081,-0.001832,0.009072
312,0.008122,-0.001832,-0.047018
313,0.008122,-0.021098,-0.065715
314,0.008122,-0.040364,-0.047018
315,0.008122,-0.078896,-0.028322
316,-0.026081,-0.117428,0.009072
317,-0.026081,-0.05963,0.046465
318,-0.008979,-0.040364,0.009072
319,-0.008979,-0.021098,0.009072
320,0.008122,0.017434,0.027769
321,0.008122,-0.001832,-0.009625
322,-0.008979,-0.001832,0.009072
323,0.008122,-0.021098,0.009072
324,-0.008979,-0.021098,-0.009625
325,0.008122,-0.021098,-0.028322
326,-0.008979,-0.021098,0.009072
327,0.008122,-0.040364,-0.009625
328,0.008122,0.0367,-0.028322
329,-0.008979,0.017434,-0.028322
330,0.025223,-0.001832,0.009072
331,0.025223,0.0367,-0.009625
332,0.008122,-0.040364,0.009072
333,0.025223,-0.040364,0.009072
334,0.025223,-0.040364,0.009072
335,0.025223,-0.05963,0.046465
336,-0.026081,-0.021098,0.009072
337,-0.008979,-0.001832,0.009072
338,-0.008979,0.0367,-0.028322
339,0.042325,0.113764,0.027769
340,0.059426,0.075232,0.065162
341,0.059426,0.075232,0.083859
342,0.042325,-0.001832,0.121252
343,0.042325,-0.040364,0.102556
344,0.025223,-0.05963,0.009072
345,-0.008979,-0.05963,-0.140502
346,-0.026081,-0.098162,-0.121806
347,-0.026081,-0.117428,-0.121806
348,-0.026081,-0.098162,-0.084412
349,0.008122,-0.117428,0.009072
350,-0.008979,-0.05963,-0.009625
351,-0.060283,0.017434,-0.047018
352,-0.008979,-0.001832,0.027769
353,-0.043182,0.017434,-0.047018
354,0.025223,0.055966,-0.047018
355,0.144933,0.113764,-0.009625
356,0.144933,0.152296,0.046465
357,0.11073,0.113764,0.009072
358,0.076527,0.094498,0.027769
359,-0.008979,0.113764,0.009072
360,-0.060283,0.055966,-0.009625
361,-0.094486,0.075232,-0.009625
362,-0.094486,0.0367,0.009072
363,-0.111587,0.0367,-0.009625
364,-0.043182,0.017434,0.027769
365,0.042325,-0.040364,0.027769
366,0.059426,-0.05963,-0.028322
367,0.042325,-0.040364,-0.028322
368,0.042325,-0.021098,0.009072
369,0.042325,-0.05963,0.009072
370,-0.008979,-0.040364,-0.009625
371,-0.026081,-0.040364,0.027769
372,0.008122,-0.021098,0.027769
373,-0.043182,-0.040364,-0.009625
374,-0.060283,-0.098162,-0.047018
375,-0.077385,-0.098162,0.009072
376,-0.060283,-0.098162,-0.009625
377,-0.008979,-0.05963,-0.009625
378,0.025223,-0.021098,-0.009625
379,-0.008979,-0.05963,-0.047018
380,0.093629,-0.001832,-0.028322
381,0.11073,0.0367,0.027769
382,0.076527,0.0367,0.027769
383,0.042325,0.0367,0.027769
384,0.008122,0.0367,0.027769
385,0.008122,0.017434,-0.009625
386,0.042325,-0.021098,-0.009625
387,0.042325,-0.001832,-0.028322
388,0.059426,0.017434,0.009072
389,0.093629,0.0367,-0.028322
390,0.11073,0.017434,-0.009625
391,0.076527,-0.001832,0.027769
392,-0.026081,-0.040364,0.009072
393,-0.060283,-0.021098,0.009072
394,-0.077385,-0.040364,0.027769
395,-0.060283,-0.040364,0.027769
396,0.025223,-0.021098,0.009072
397,0.042325,0.017434,0.046465
398,0.042325,0.017434,0.009072
399,0.025223,0.0367,-0.047018
400,0.025223,-0.021098,-0.047018
401,-0.008979,-0.001832,-0.009625
402,-0.026081,-0.098162,-0.028322
403,-0.043182,-0.136694,0.009072
404,-0.043182,-0.117428,0.009072
405,-0.026081,-0.078896,0.009072
406,0.025223,-0.001832,0.009072
407,0.008122,0.017434,0.027769
408,-0.043182,0.017434,-0.028322
409,-0.043182,0.094498,-0.028322
410,-0.043182,0.075232,-0.028322
411,-0.026081,0.0367,-0.028322
412,-0.026081,0.017434,0.009072
413,-0.026081,0.017434,0.046465
414,-0.008979,0.017434,0.027769
415,0.008122,0.017434,-0.009625
416,0.025223,0.017434,0.009072
417,0.008122,0.017434,0.046465
418,-0.008979,-0.021098,-0.047018
419,-0.008979,-0.078896,-0.009625
420,-0.043182,-0.098162,0.009072
421,-0.008979,-0.040364,0.009072
422,-0.026081,-0.021098,0.009072
423,-0.026081,-0.001832,0.027769
424,-0.008979,-0.001832,-0.009625
425,-0.008979,-0.001832,-0.028322
426,0.008122,0.017434,-0.028322
427,0.008122,0.0367,-0.009625
428,0.008122,-0.001832,-0.028322
429,0.008122,-0.05963,-0.047018
430,0.008122,-0.078896,0.009072
431,0.025223,-0.078896,0.027769
432,0.042325,-0.05963,0.046465
433,0.008122,-0.040364,0.027769
434,-0.008979,-0.001832,0.046465
435,-0.026081,0.055966,-0.009625
436,0.008122,0.113764,-0.028322
437,0.059426,0.13303,-0.065715
438,0.076527,0.075232,-0.065715
439,0.059426,-0.001832,-0.028322
440,0.093629,-0.001832,-0.028322
441,0.127831,-0.001832,-0.009625
442,0.008122,-0.021098,-0.009625
443,-0.094486,0.0367,0.027769
444,0.008122,0.017434,-0.009625
445,0.025223,0.0367,0.027769
446,-0.008979,-0.001832,0.027769
447,-0.008979,-0.021098,0.009072
448,-0.026081,0.017434,0.027769
449,-0.008979,0.017434,0.065162
450,-0.043182,-0.001832,0.046465
451,-0.060283,-0.05963,-0.047018
452,-0.043182,-0.117428,-0.103109
453,0.008122,-0.098162,-0.028322
454,0.059426,-0.05963,-0.009625
455,0.076527,-0.001832,-0.009625
456,0.076527,-0.001832,0.009072
457,0.059426,-0.040364,0.027769
458,0.008122,-0.098162,0.009072
459,-0.077385,-0.175226,0.027769
460,-0.094486,-0.15596,0.009072
461,-0.077385,-0.078896,-0.009625
462,-0.008979,-0.098162,-0.009625
463,0.042325,-0.040364,-0.028322
464,0.076527,0.075232,-0.028322
465,0.144933,0.171562,0.009072
466,0.127831,0.190828,0.027769
467,0.162034,0.094498,-0.009625
468,0.11073,0.075232,0.009072
469,0.042325,0.0367,0.009072
470,-0.111587,-0.021098,0.009072
471,-0.077385,-0.040364,-0.009625
472,-0.094486,-0.021098,-0.009625
473,-0.060283,-0.021098,-0.009625
474,0.025223,-0.021098,-0.047018
475,0.076527,-0.001832,0.009072
476,0.076527,-0.021098,-0.009625
477,0.059426,0.017434,0.027769
478,0.025223,-0.021098,0.046465
479,-0.043182,-0.021098,0.046465
480,-0.231297,0.055966,0.027769
481,-0.14579,-0.001832,0.027769
482,-0.043182,-0.040364,0.027769
483,0.008122,-0.05963,0.009072
484,0.042325,-0.021098,-0.028322
485,0.076527,-0.078896,-0.028322
486,0.025223,-0.098162,-0.065715
487,-0.008979,0.017434,-0.084412
488,0.008122,0.094498,0.027769
489,0.076527,0.094498,0.009072
490,0.025223,0.0367,-0.009625
491,0.025223,0.0367,0.027769
492,0.059426,0.0367,0.027769
493,0.042325,-0.001832,0.027769
494,0.008122,-0.078896,0.046465
495,-0.026081,-0.05963,0.027769
496,-0.026081,-0.001832,0.009072
497,-0.043182,-0.021098,-0.009625
498,0.008122,-0.001832,-0.028322
499,0.008122,-0.001832,-0.009625
500,-0.026081,-0.001832,-0.047018
501,-0.077385,-0.05963,0.009072
502,-0.128689,-0.098162,0.009072
503,-0.043182,-0.136694,0.046465
504,-0.043182,-0.233024,0.065162
505,-0.043182,-0.15596,0.027769
506,0.008122,-0.078896,-0.028322
507,0.025223,-0.021098,-0.047018
508,0.11073,0.094498,-0.065715
509,0.144933,0.113764,-0.047018
510,0.213338,0.210094,-0.047018
511,0.11073,0.210094,-0.009625
512,0.144933,0.152296,0.009072
513,0.042325,0.075232,-0.009625
514,-0.111587,0.0367,0.027769
515,-0.026081,0.0367,0.083859
516,0.008122,0.017434,0.046465
517,0.025223,0.017434,0.009072
518,0.042325,-0.001832,-0.028322
519,0.059426,-0.021098,-0.009625
520,0.025223,-0.001832,0.027769
521,0.025223,-0.021098,0.027769
522,0.008122,-0.021098,0.009072
523,-0.008979,-0.040364,-0.047018
524,0.008122,-0.05963,-0.028322
525,0.008122,-0.05963,-0.047018
526,-0.008979,-0.078896,-0.065715
527,-0.008979,-0.040364,-0.009625
528,-0.026081,-0.05963,0.046465
529,-0.060283,-0.021098,0.065162
530,-0.111587,-0.001832,0.065162
531,-0.043182,-0.001832,0.027769
532,-0.026081,0.017434,-0.028322
533,0.008122,0.0367,-0.028322
534,-0.060283,0.017434,-0.047018
535,-0.026081,-0.001832,-0.009625
536,0.059426,-0.040364,-0.009625
537,0.059426,-0.05963,0.009072
538,0.008122,-0.136694,-0.009625
539,-0.043182,-0.098162,-0.028322
540,-0.043182,-0.021098,0.065162
541,0.059426,0.055966,0.046465
542,0.11073,0.13303,-0.009625
543,0.144933,0.13303,-0.009625
544,0.162034,0.113764,0.027769
545,0.144933,0.075232,-0.028322
546,0.025223,-0.040364,-0.047018
547,-0.094486,-0.15596,-0.028322
548,-0.060283,-0.15596,-0.009625
549,-0.077385,-0.136694,-0.009625
550,-0.197094,-0.213758,0.009072
551,-0.179993,-0.175226,0.009072
552,-0.077385,-0.040364,0.065162
553,-0.077385,-0.001832,0.009072
554,-0.008979,-0.05963,0.009072
555,0.076527,-0.05963,-0.009625
556,0.144933,-0.05963,-0.047018
557,0.213338,0.0367,-0.009625
558,0.11073,0.152296,-0.028322
559,-0.077385,0.094498,-0.028322
560,0.008122,0.113764,0.027769
561,-0.008979,0.171562,0.009072
562,-0.060283,0.113764,-0.028322
563,0.042325,0.017434,0.027769
564,0.042325,0.055966,-0.009625
565,0.025223,0.171562,0.009072
566,0.025223,0.13303,0.009072
567,0.025223,0.0367,0.046465
568,-0.008979,-0.040364,-0.009625
569,0.025223,-0.078896,-0.009625
570,-0.008979,-0.117428,-0.009625
571,-0.026081,-0.194492,0.027769
572,-0.043182,-0.194492,0.027769
573,-0.094486,-0.213758,-0.009625
574,-0.179993,-0.194492,0.009072
575,-0.060283,-0.136694,0.009072
576,0.093629,-0.117428,0.046465
577,0.127831,-0.078896,-0.047018
578,0.144933,-0.136694,-0.047018
579,0.298845,-0.098162,-0.028322
580,0.230439,-0.021098,0.027769
581,-0.008979,0.113764,-0.009625
582,-0.026081,0.248626,0.009072
583,0.059426,0.364222,0.027769
584,0.076527,0.383488,0.009072
585,0.093629,0.32569,0.009072
586,-0.077385,0.306424,0.009072
587,-0.162891,0.190828,-0.028322
588,-0.14579,0.13303,0.009072
589,-0.111587,0.0367,0.046465
590,-0.111587,-0.001832,0.009072
591,-0.094486,-0.05963,0.027769
592,-0.060283,-0.05963,0.027769
593,0.008122,-0.040364,0.009072
594,0.059426,-0.078896,-0.047018
595,0.025223,-0.136694,0.009072
596,0.025223,-0.233024,0.046465
597,0.11073,-0.271555,0.027769
598,-0.008979,-0.310087,-0.028322
599,-0.043182,-0.252289,-0.009625
600,0.093629,-0.175226,-0.028322
601,0.093629,-0.001832,-0.028322
602,0.042325,0.248626,-0.028322
603,0.315946,0.248626,-0.047018
604,0.144933,0.113764,-0.028322
605,0.008122,-0.001832,-0.047018
606,-0.008979,-0.001832,-0.047018
607,-0.094486,0.094498,-0.047018
608,-0.299702,0.152296,0.009072
609,-0.043182,0.152296,0.027769
610,0.008122,0.171562,0.009072
611,0.042325,0.210094,0.027769
612,0.059426,0.075232,0.009072
613,-0.008979,0.0367,0.009072
614,-0.043182,0.017434,0.027769
615,-0.026081,0.017434,0.027769
616,-0.008979,-0.021098,0.027769
617,0.025223,-0.040364,0.009072
618,0.059426,-0.040364,0.027769
619,0.042325,-0.05963,-0.009625
620,-0.026081,-0.040364,-0.009625
621,-0.043182,-0.021098,0.046465
622,-0.008979,-0.021098,-0.028322
623,-0.060283,-0.05963,-0.103109
624,-0.060283,-0.05963,-0.047018
625,-0.043182,-0.098162,-0.028322
626,0.008122,0.0367,0.027769
627,0.042325,-0.021098,0.027769
628,-0.008979,-0.05963,0.046465
629,-0.094486,-0.117428,0.009072
630,-0.077385,-0.078896,-0.009625
631,-0.128689,-0.040364,-0.009625
632,-0.026081,-0.021098,-0.028322
633,-0.026081,-0.001832,-0.047018
634,-0.077385,-0.078896,-0.028322
635,0.093629,-0.098162,-0.009625
636,0.213338,-0.213758,0.027769
637,0.213338,-0.348619,0.009072
638,0.11073,-0.329353,-0.009625
639,0.059426,-0.290821,-0.028322
640,-0.043182,-0.136694,0.009072
641,-0.111587,0.075232,0.009072
642,0.093629,0.306424,-0.009625
643,0.076527,0.42202,0.027769
644,0.093629,0.22936,0.027769
645,0.076527,0.13303,0.009072
646,0.093629,0.13303,-0.009625
647,-0.094486,0.094498,-0.009625
648,-0.060283,0.055966,0.027769
649,0.008122,-0.001832,0.027769
650,0.008122,-0.05963,0.009072
651,-0.008979,-0.15596,0.009072
652,-0.026081,-0.271555,-0.009625
653,-0.060283,-0.290821,0.009072
654,0.008122,-0.117428,-0.028322
655,-0.043182,0.055966,0.009072
656,-0.008979,0.017434,0.009072
657,0.076527,0.13303,0.009072
658,0.144933,0.287158,0.065162
659,0.162034,0.306424,0.102556
660,0.059426,0.22936,0.027769
661,0.042325,0.094498,0.009072
662,-0.008979,0.075232,-0.028322
663,0.093629,0.0367,0.027769
664,0.042325,-0.136694,0.009072
665,-0.197094,-0.290821,0.009072
666,-0.316804,-0.329353,0.009072
667,-0.060283,-0.310087,-0.028322
668,-0.043182,-0.213758,-0.028322
669,-0.060283,0.017434,0.009072
670,0.042325,0.267892,0.009072
671,-0.043182,0.248626,0.046465
672,-0.043182,0.152296,0.027769
673,0.127831,0.13303,0.009072
674,0.11073,0.0367,0.027769
675,0.093629,0.017434,0.046465
676,0.042325,0.0367,-0.065715
677,0.008122,0.017434,-0.103109
678,-0.026081,-0.001832,-0.084412
679,0.042325,-0.078896,-0.084412
680,0.042325,-0.05963,-0.047018
681,0.076527,0.017434,-0.028322
682,-0.077385,0.0367,-0.009625
683,-0.162891,0.075232,-0.028322
684,0.042325,0.094498,0.027769
685,0.162034,0.017434,0.009072
686,0.11073,-0.078896,-0.047018
687,-0.060283,-0.213758,-0.028322
688,-0.14579,-0.136694,-0.009625
689,-0.299702,-0.213758,-0.009625
690,-0.043182,-0.329353,0.027769
691,-0.043182,-0.387151,0.027769
692,-0.043182,-0.367885,-0.009625
693,0.025223,-0.252289,-0.009625
694,0.059426,-0.098162,-0.028322
695,0.042325,0.344956,-0.009625
696,0.196237,0.460552,-0.028322
697,0.162034,0.441286,0.027769
698,0.059426,0.344956,0.046465
699,-0.043182,0.13303,0.027769
700,0.008122,0.055966,0.027769
701,0.093629,-0.021098,0.009072
702,0.162034,-0.05963,-0.047018
703,-0.008979,-0.05963,-0.065715
704,0.059426,0.017434,-0.009625
705,0.264642,0.094498,0.009072
706,0.059426,0.152296,-0.009625
707,0.093629,0.113764,-0.028322
708,0.042325,0.094498,-0.028322
709,-0.282601,0.210094,0.009072
710,-0.231297,0.190828,0.046465
711,-0.060283,0.075232,0.065162
712,0.076527,-0.05963,0.027769
713,0.179135,-0.15596,-0.009625
714,0.281743,-0.213758,-0.028322
715,-0.14579,-0.15596,-0.009625
716,-0.111587,-0.252289,0.009072
717,-0.111587,-0.310087,-0.009625
718,-0.111587,-0.290821,-0.028322
719,0.042325,0.055966,-0.028322
720,0.025223,0.0367,0.027769
721,-0.026081,-0.021098,0.027769
722,-0.008979,-0.078896,-0.009625
723,0.025223,-0.213758,-0.009625
724,-0.008979,-0.175226,-0.009625
725,-0.14579,-0.252289,-0.047018
726,-0.2655,-0.213758,-0.028322
727,-0.231297,-0.098162,-0.009625
728,0.076527,0.075232,0.065162
729,0.179135,-0.05963,0.027769
730,0.162034,0.13303,0.009072
731,0.144933,0.402754,0.009072
732,0.11073,0.556882,0.027769
733,0.042325,0.364222,0.065162
734,0.042325,0.42202,-0.028322
735,0.144933,0.364222,-0.009625
736,0.213338,0.306424,0.009072
737,0.127831,0.171562,-0.028322
738,-0.14579,0.0367,-0.047018
739,-0.299702,-0.117428,0.027769
740,-0.179993,-0.117428,-0.028322
741,-0.026081,-0.078896,-0.065715
742,0.076527,-0.05963,-0.047018
743,0.144933,-0.290821,0.009072
744,0.093629,-0.252289,-0.028322
745,0.144933,-0.310087,0.027769
746,0.162034,-0.348619,0.046465
747,0.093629,-0.252289,0.065162
748,-0.060283,0.22936,0.009072
749,-0.2655,0.344956,0.027769
750,-0.026081,0.306424,0.009072
751,0.127831,0.13303,-0.009625
752,0.179135,0.017434,-0.009625
753,0.025223,-0.05963,-0.028322
754,-0.179993,0.055966,-0.028322
755,-0.111587,0.055966,-0.009625
756,0.076527,-0.021098,-0.009625
757,0.179135,0.094498,0.009072
758,0.162034,0.094498,0.027769
759,0.042325,-0.001832,0.065162
760,-0.436513,0.017434,0.083859
761,-0.299702,-0.098162,0.065162
762,-0.060283,-0.406417,0.027769
763,0.042325,-0.560545,-0.028322
764,0.025223,-0.483481,-0.047018
765,0.059426,-0.464215,-0.065715
766,0.36725,-0.290821,-0.084412
767,0.298845,0.441286,-0.047018
768,0.315946,0.768808,-0.047018
769,-0.128689,0.499084,-0.047018
770,-0.299702,0.402754,-0.028322
771,-0.299702,0.075232,-0.009625
772,-0.14579,-0.175226,-0.047018
773,-0.008979,-0.252289,-0.028322
774,0.008122,-0.040364,-0.009625
775,0.059426,0.094498,0.046465
776,0.025223,0.13303,0.009072
777,0.025223,0.210094,-0.028322
778,0.162034,0.152296,0.027769
779,0.162034,0.0367,0.027769
780,0.36725,-0.078896,0.046465
781,0.162034,-0.271555,-0.009625
782,-0.197094,-0.483481,-0.028322
783,-0.179993,-0.252289,-0.009625
784,0.179135,-0.136694,0.009072
785,0.008122,0.0367,0.027769
786,-0.214196,0.22936,0.009072
787,-0.162891,0.210094,-0.047018
788,-0.111587,0.13303,-0.028322
789,-0.060283,0.190828,0.009072
790,-0.077385,0.094498,0.009072
791,0.076527,0.113764,-0.028322
792,0.11073,0.190828,0.009072
793,0.059426,0.152296,-0.028322
794,-0.008979,0.152296,-0.009625
795,-0.128689,0.0367,0.009072
796,-0.077385,-0.117428,-0.009625
797,-0.14579,-0.290821,0.046465
798,-0.128689,-0.502747,0.009072
799,0.127831,-0.522013,0.027769
800,0.213338,-0.329353,0.009072
801,0.042325,0.13303,0.046465
802,-0.162891,0.210094,0.009072
803,0.042325,0.152296,0.009072
804,0.179135,0.017434,-0.028322
805,0.469858,-0.329353,-0.084412
806,0.384352,-0.599077,-0.103109
807,0.025223,-0.406417,-0.047018
808,-0.179993,-0.040364,-0.028322
809,-0.316804,0.364222,-0.028322
810,0.042325,0.287158,0.027769
811,0.144933,0.248626,0.009072
812,0.025223,0.306424,0.009072
813,-0.179993,0.364222,-0.009625
814,0.059426,0.364222,-0.009625
815,0.025223,0.075232,-0.009625
816,0.162034,-0.078896,0.009072
817,0.025223,0.075232,0.027769
818,0.093629,0.22936,0.065162
819,-0.077385,0.152296,0.009072
820,-0.077385,0.306424,-0.009625
821,-0.043182,0.017434,0.009072
822,-0.2655,-0.387151,-0.047018
823,-0.248398,-0.406417,-0.047018
824,-0.316804,-0.367885,0.009072
825,-0.060283,-0.213758,-0.047018
826,0.042325,0.0367,-0.047018
827,0.076527,0.22936,0.046465
828,0.076527,-0.117428,0.009072
829,-0.060283,-0.271555,0.046465
830,-0.128689,-0.05963,0.009072
831,0.127831,0.075232,-0.028322
832,0.452757,0.113764,-0.028322
833,0.640872,0.094498,-0.009625
834,0.401453,0.113764,0.009072
835,-0.060283,0.055966,0.009072
836,-0.453614,-0.021098,0.009072
837,-0.2655,-0.05963,0.046465
838,0.025223,-0.021098,0.046465
839,0.162034,-0.098162,0.009072
840,0.093629,-0.001832,-0.028322
841,-0.385209,0.383488,-0.028322
842,-0.043182,0.51835,-0.009625
843,-0.060283,0.42202,0.009072
844,-0.111587,0.171562,0.027769
845,0.144933,-0.040364,0.027769
846,0.572466,-0.175226,0.046465
847,0.521162,-0.290821,-0.009625
848,0.179135,-0.348619,-0.009625
849,0.127831,-0.444949,-0.047018
850,-0.128689,-0.15596,-0.047018
851,-0.2655,-0.021098,-0.084412
852,0.264642,0.13303,-0.009625
853,0.093629,0.210094,0.027769
854,-0.40231,0.075232,-0.028322
855,-0.385209,-0.290821,0.009072
856,-0.282601,-0.271555,0.027769
857,-0.14579,-0.194492,0.046465
858,-0.094486,-0.078896,-0.009625
859,-0.043182,0.210094,0.065162
860,-0.128689,0.672478,0.121252
861,-0.008979,0.460552,0.121252
862,0.162034,0.113764,0.102556
863,0.162034,-0.175226,0.065162
864,0.11073,-0.252289,0.027769
865,0.042325,-0.271555,-0.121806
866,0.315946,-0.194492,-0.159199
867,0.418554,0.055966,-0.140502
868,-0.128689,-0.136694,-0.084412
869,-0.111587,-0.348619,-0.084412
870,-0.026081,-0.329353,-0.047018
871,0.059426,0.113764,-0.047018
872,-0.026081,0.499084,0.009072
873,-0.197094,0.499084,0.027769
874,-0.14579,0.344956,0.065162
875,-0.111587,0.306424,0.046465
876,-0.026081,0.152296,0.027769
877,0.093629,0.017434,0.046465
878,0.213338,-0.271555,0.046465
879,-0.026081,-0.599077,0.027769
880,0.196237,-0.637609,-0.009625
881,0.555365,-0.329353,-0.047018
882,0.589568,-0.001832,-0.047018
883,0.11073,0.499084,0.027769
884,-0.214196,0.51835,-0.028322
885,-0.179993,0.42202,0.009072
886,-0.316804,0.152296,0.027769
887,-0.419412,-0.444949,0.009072
888,-0.40231,-0.791737,-0.009625
889,-0.214196,-0.733939,0.009072
890,-0.094486,-0.522013,-0.084412
891,-0.008979,0.306424,-0.047018
892,0.11073,0.942202,0.009072
893,0.127831,0.90367,0.027769
894,-0.008979,0.633946,-0.009625
895,-0.026081,0.383488,0.027769
896,-0.026081,0.171562,0.046465
897,-0.077385,-0.05963,0.009072
898,-0.043182,-0.367885,0.027769
899,-0.094486,-0.444949,-0.009625
900,-0.060283,-0.425683,0.009072
901,-0.026081,-0.464215,-0.028322
902,0.247541,-0.136694,0.046465
903,0.384352,-0.290821,0.009072
904,0.076527,-0.406417,0.009072
905,-0.573324,-0.599077,-0.028322
906,-0.248398,-1.119259,-0.084412
907,-0.094486,-1.022929,-0.065715
908,0.811885,-0.444949,-0.028322
909,1.034203,-0.021098,-0.121806
910,0.982899,1.0,-0.065715
911,0.521162,2.194492,0.065162
912,-0.52202,1.655044,0.083859
913,-0.949553,0.633946,0.121252
914,-0.453614,0.094498,0.083859
915,-0.333905,-0.194492,0.083859
916,-0.248398,-0.387151,0.009072
917,-0.162891,-0.252289,0.009072
918,0.230439,-0.194492,0.046465
919,0.333048,-0.233024,0.009072
920,0.281743,-0.001832,-0.028322
921,-0.14579,-0.194492,-0.084412
922,0.127831,0.0367,-0.084412
923,0.025223,0.306424,-0.121806
924,-0.077385,0.287158,-0.009625
925,0.196237,0.576148,0.046465
926,0.36725,0.749542,0.046465
927,0.008122,0.287158,0.027769
928,-0.419412,0.0367,0.027769
929,-0.2655,-0.001832,-0.028322
930,-0.299702,-0.021098,-0.047018
931,-0.368108,-0.078896,0.009072
932,-0.026081,-0.15596,-0.009625
933,0.230439,-0.406417,0.046465
934,0.213338,-0.656875,0.009072
935,-0.214196,-0.425683,0.046465
936,0.384352,0.017434,0.009072
937,0.606669,0.094498,-0.028322
938,0.127831,0.171562,-0.009625
939,-0.162891,-0.040364,-0.047018
940,-0.316804,-0.348619,-0.028322
941,-0.282601,-0.175226,0.027769
942,-0.248398,0.267892,0.027769
943,-0.179993,0.267892,0.065162
944,-0.077385,0.094498,0.065162
945,0.076527,-0.05963,-0.047018
946,0.179135,-0.117428,-0.103109
947,0.127831,-0.001832,-0.009625
948,-0.214196,-0.078896,0.046465
949,-0.094486,-0.05963,0.065162
950,-0.060283,0.094498,0.065162
951,-0.248398,0.055966,0.065162
952,-0.14579,-0.05963,-0.084412
953,0.264642,-0.213758,-0.047018
954,0.196237,-0.637609,-0.047018
955,-0.094486,-0.753205,-0.009625
956,-0.060283,-0.252289,0.009072
957,0.418554,-0.021098,-0.009625
958,0.504061,0.402754,-0.028322
959,0.333048,0.556882,-0.009625
960,0.093629,0.267892,0.027769
961,-0.214196,-0.213758,0.027769
962,-0.539121,-0.348619,0.027769
963,-0.693033,-0.233024,0.065162
964,-0.179993,0.113764,0.065162
965,0.230439,0.730276,0.046465
966,0.247541,0.826606,0.065162
967,0.059426,0.402754,0.027769
968,0.025223,0.152296,0.009072
969,0.076527,-0.021098,-0.009625
970,0.059426,-0.348619,-0.047018
971,0.042325,-0.733939,-0.084412
972,0.042325,-0.984397,-0.084412
973,0.350149,-0.849535,-0.121806
974,0.504061,-0.233024,-0.047018
975,0.179135,0.479818,0.009072
976,0.042325,0.672478,0.065162
977,0.144933,0.556882,0.027769
978,-0.179993,0.537616,0.009072
979,-0.52202,0.499084,0.046465
980,-0.419412,0.287158,0.027769
981,-0.2655,-0.040364,0.046465
982,-0.197094,-0.406417,-0.009625
983,-0.14579,-0.406417,-0.009625
984,-0.162891,-0.098162,-0.047018
985,-0.111587,0.248626,0.009072
986,-0.026081,0.267892,0.083859
987,0.076527,0.13303,0.102556
988,0.11073,-0.021098,0.065162
989,0.11073,-0.213758,-0.009625
990,-0.2655,-0.078896,-0.047018
991,0.025223,-0.175226,-0.084412
992,0.504061,-0.233024,-0.047018
993,0.504061,-0.290821,-0.103109
994,-0.2655,0.075232,-0.065715
995,-0.026081,0.730276,0.027769
996,-0.111587,0.460552,-0.009625
997,-0.197094,-0.021098,-0.047018
998,-0.162891,-0.290821,-0.047018
999,-0.197094,-0.406417,-0.009625
1000,-0.111587,-0.367885,0.046465
1001,-0.111587,-0.233024,0.065162
1002,0.059426,-0.175226,0.065162
1003,0.076527,-0.310087,-0.028322
1004,0.179135,0.113764,-0.084412
1005,0.042325,0.364222,-0.047018
1006,0.264642,0.749542,-0.028322
1007,0.059426,0.556882,0.009072
1008,-0.077385,0.306424,0.027769
1009,-0.14579,0.152296,0.009072
1010,-0.111587,0.055966,0.009072
1011,-0.077385,0.0367,0.046465
1012,-0.043182,0.017434,0.065162
1013,0.059426,-0.001832,0.009072
1014,0.059426,-0.001832,0.046465
1015,-0.026081,-0.05963,0.009072
1016,-0.077385,-0.05963,0.009072
1017,-0.094486,-0.05963,-0.009625
1018,-0.077385,-0.040364,0.009072
1019,-0.026081,-0.040364,-0.028322
1020,0.008122,-0.05963,0.009072
1021,0.093629,-0.05963,0.009072
1022,0.076527,-0.021098,0.009072
1023,0.042325,-0.05963,0.009072
1024,0.008122,-0.05963,0.009072
1025,0.008122,-0.098162,-0.009625
1026,0.008122,-0.098162,-0.009625
1027,-0.026081,-0.078896,0.027769
1028,-0.008979,-0.040364,0.027769
1029,0.008122,-0.021098,-0.028322
1030,-0.008979,-0.001832,0.009072
1031,-0.026081,-0.021098,0.009072
1032,-0.026081,-0.136694,0.009072
1033,-0.026081,-0.213758,0.027769
1034,-0.008979,-0.098162,0.027769
1035,-0.008979,-0.117428,-0.009625
1036,-0.008979,-0.021098,-0.047018
1037,0.008122,0.13303,-0.047018
1038,0.025223,0.171562,-0.028322
1039,0.008122,0.055966,-0.028322
1040,0.008122,0.075232,0.009072
1041,-0.008979,0.055966,-0.028322
1042,0.008122,0.017434,-0.009625
1043,-0.008979,-0.040364,-0.009625
1044,0.008122,-0.040364,-0.047018
1045,-0.026081,-0.05963,-0.065715
1046,-0.026081,-0.040364,-0.028322
1047,0.008122,-0.021098,0.027769
1048,-0.026081,-0.05963,0.009072
1049,-0.043182,-0.15596,0.065162
1050,0.008122,-0.348619,0.009072
1051,0.213338,-0.252289,-0.047018
1052,0.315946,-0.252289,-0.009625
1053,0.196237,-0.15596,-0.009625
1054,0.059426,0.22936,-0.009625
1055,-0.043182,0.306424,0.009072
1056,0.025223,0.094498,0.065162
1057,-0.111587,-0.406417,0.009072
1058,-0.316804,-0.714673,-0.009625
1059,-0.299702,-0.811003,-0.009625
1060,-0.214196,-0.271555,0.046465
1061,-0.060283,0.210094,0.009072
1062,0.076527,0.61468,0.009072
1063,0.093629,0.90367,-0.009625
1064,0.213338,0.768808,-0.009625
1065,0.162034,0.499084,-0.028322
1066,0.042325,0.190828,-0.009625
1067,0.042325,0.113764,-0.028322
1068,-0.060283,0.171562,0.009072
1069,-0.14579,0.248626,0.046465
1070,-0.094486,0.248626,-0.009625
1071,-0.008979,0.152296,0.009072
1072,0.042325,0.094498,-0.009625
1073,0.025223,0.055966,-0.009625
1074,-0.026081,0.017434,0.027769
1075,0.025223,-0.001832,0.027769
1076,0.025223,-0.117428,0.046465
1077,-0.043182,-0.252289,0.027769
1078,-0.026081,-0.271555,0.009072
1079,-0.077385,-0.290821,-0.047018
1080,-0.162891,-0.021098,-0.084412
1081,-0.094486,0.152296,-0.103109
1082,0.025223,0.171562,-0.121806
1083,0.093629,0.0367,-0.084412
1084,0.144933,0.0367,0.009072
1085,0.093629,0.0367,0.009072
1086,0.008122,-0.001832,0.009072
1087,-0.026081,0.017434,0.046465
1088,0.042325,0.017434,0.046465
1089,0.076527,0.017434,0.065162
1090,0.025223,0.017434,0.046465
1091,0.093629,-0.05963,0.046465
1092,0.076527,-0.05963,0.027769
1093,0.008122,-0.078896,0.121252
1094,-0.094486,-0.078896,0.196039
1095,-0.060283,-0.098162,0.196039
1096,-0.060283,-0.078896,0.177343
1097,-0.060283,-0.078896,0.196039
1098,-0.043182,-0.040364,0.177343
1099,-0.026081,-0.05963,0.102556
1100,-0.026081,-0.021098,0.027769
1101,-0.008979,0.017434,-0.084412
1102,0.008122,0.055966,-0.215289
1103,0.008122,-0.001832,-0.233986
1104,0.008122,-0.001832,-0.233986
1105,0.008122,-0.001832,-0.233986
1106,0.008122,0.017434,-0.196593
1107,0.008122,-0.001832,-0.121806
1108,0.008122,-0.021098,-0.065715
1109,0.025223,-0.001832,-0.028322
1110,0.008122,-0.001832,0.009072
1111,0.008122,-0.001832,0.027769
1112,0.008122,-0.001832,0.065162
1113,0.008122,-0.040364,0.046465
1114,-0.008979,-0.117428,0.027769
1115,0.008122,-0.136694,0.027769
1116,-0.008979,-0.15596,0.027769
1117,-0.026081,-0.213758,0.009072
1118,-0.008979,-0.136694,0.009072
1119,-0.026081,0.0367,0.027769
1120,-0.008979,0.094498,0.046465
1121,0.042325,0.267892,0.083859
1122,0.042325,0.402754,0.121252
1123,0.025223,0.210094,0.121252
1124,0.025223,0.055966,0.083859
1125,-0.008979,-0.021098,0.046465
1126,-0.008979,-0.040364,0.065162
1127,-0.008979,-0.05963,0.027769
1128,-0.008979,-0.05963,-0.009625
1129,0.008122,-0.194492,-0.009625
1130,-0.008979,-0.233024,0.065162
1131,-0.008979,-0.117428,0.102556
1132,-0.043182,0.075232,0.158646
1133,0.008122,0.32569,0.177343
1134,0.008122,0.075232,0.027769
1135,-0.026081,-0.233024,0.009072
1136,-0.043182,-0.367885,-0.028322
1137,-0.060283,-0.367885,-0.084412
1138,-0.043182,-0.290821,-0.140502
1139,0.008122,-0.05963,-0.177896
1140,0.042325,0.113764,-0.196593
1141,-0.026081,0.055966,-0.196593
1142,-0.026081,0.13303,-0.159199
1143,-0.008979,0.402754,-0.159199
1144,0.042325,0.364222,-0.121806
1145,0.076527,0.287158,-0.065715
1146,0.059426,0.190828,-0.028322
1147,0.127831,0.094498,-0.028322
1148,-0.026081,0.248626,0.027769
1149,-0.008979,0.306424,0.009072
1150,-0.043182,0.190828,-0.009625
1151,0.008122,0.055966,-0.047018
1152,0.008122,-0.040364,-0.009625
1153,-0.008979,-0.098162,-0.028322
1154,-0.008979,-0.136694,0.009072
1155,-0.008979,-0.078896,0.027769
1156,-0.008979,0.017434,0.046465
1157,-0.026081,0.075232,0.083859
1158,0.008122,0.055966,0.102556
1159,-0.008979,-0.05963,0.065162
1160,0.008122,-0.001832,0.046465
1161,-0.026081,-0.001832,0.102556
1162,-0.008979,0.0367,0.083859
1163,0.025223,-0.001832,0.083859
1164,0.025223,-0.021098,0.065162
1165,-0.008979,-0.05963,0.027769
1166,-0.043182,-0.040364,0.009072
1167,-0.008979,-0.05963,0.046465
1168,-0.008979,-0.040364,0.046465
1169,-0.026081,-0.078896,0.009072
1170,0.008122,-0.078896,0.065162
1171,0.008122,-0.05963,0.158646
1172,0.008122,-0.05963,0.158646
1173,0.008122,-0.05963,0.121252
1174,0.025223,-0.05963,0.083859
1175,0.008122,-0.098162,0.009072
1176,0.008122,-0.021098,-0.047018
1177,0.008122,0.0367,-0.028322
1178,0.008122,0.055966,-0.159199
1179,0.008122,0.0367,-0.252683
1180,0.008122,0.075232,-0.177896
1181,-0.008979,0.017434,-0.159199
1182,-0.026081,-0.078896,-0.140502
1183,-0.043182,-0.15596,-0.084412
1184,-0.026081,-0.194492,-0.009625
1185,-0.008979,-0.194492,-0.028322
1186,-0.008979,-0.05963,-0.047018
1187,0.025223,0.190828,0.009072
1188,0.059426,0.248626,-0.065715
1189,0.042325,0.210094,-0.009625
1190,0.008122,0.075232,0.121252
1191,-0.008979,-0.021098,0.36431
1192,-0.026081,-0.040364,0.495188
1193,-0.026081,-0.040364,0.476491
1194,-0.026081,-0.040364,0.4204
1195,-0.026081,-0.040364,0.326917
1196,0.008122,-0.021098,0.25213
1197,0.008122,0.017434,0.009072
1198,0.008122,0.075232,-0.233986
1199,0.042325,0.113764,-0.458347
1200,0.042325,-0.136694,-0.533134
1201,0.008122,-0.637609,-0.458347
1202,-0.060283,-0.984397,-0.32747
1203,-0.162891,-0.945865,-0.233986
1204,-0.162891,-0.502747,-0.27138
1205,0.042325,0.576148,-0.140502
1206,0.162034,1.231192,-0.047018
1207,0.144933,1.019266,-0.028322
1208,0.076527,0.556882,0.009072
1209,0.059426,0.267892,0.027769
1210,0.025223,0.171562,0.027769
1211,0.025223,0.13303,-0.009625
1212,0.025223,0.13303,-0.028322
1213,0.042325,0.248626,0.027769
1214,0.008122,0.113764,0.027769
1215,-0.008979,0.0367,0.046465
1216,0.008122,-0.021098,0.046465
1217,0.008122,-0.001832,0.046465
1218,0.008122,0.055966,0.046465
1219,0.008122,0.0367,0.065162
1220,-0.008979,0.017434,0.046465
1221,0.008122,-0.001832,0.083859
1222,0.008122,-0.001832,0.102556
1223,0.008122,-0.05963,0.027769
1224,-0.008979,-0.15596,-0.028322
1225,-0.043182,-0.233024,-0.047018
1226,-0.026081,-0.175226,-0.047018
1227,-0.026081,-0.15596,-0.028322
1228,-0.008979,-0.194492,-0.009625
1229,-0.008979,-0.136694,0.009072
1230,-0.026081,-0.040364,0.009072
1231,0.008122,0.055966,0.009072
1232,0.025223,0.22936,0.027769
1233,0.042325,0.22936,-0.028322
1234,-0.008979,-0.040364,-0.047018
1235,-0.026081,-0.213758,-0.047018
1236,-0.043182,-0.175226,-0.028322
1237,-0.060283,-0.213758,-0.065715
1238,-0.026081,-0.040364,-0.065715
1239,0.076527,0.190828,-0.047018
1240,0.025223,0.287158,-0.028322
1241,0.008122,0.190828,0.009072
1242,0.008122,0.055966,0.027769
1243,0.008122,0.017434,0.009072
1244,0.008122,-0.001832,-0.009625
1245,0.008122,-0.001832,0.046465
1246,0.025223,-0.001832,0.139949
1247,-0.008979,-0.040364,0.196039
1248,-0.008979,-0.05963,0.214736
1249,-0.008979,-0.078896,0.214736
1250,-0.008979,-0.078896,0.121252
1251,-0.008979,-0.078896,0.083859
1252,-0.026081,-0.136694,0.046465
1253,-0.026081,-0.233024,-0.065715
1254,0.008122,-0.213758,-0.196593
1255,0.008122,-0.15596,-0.215289
1256,-0.026081,-0.117428,-0.177896
1257,0.008122,0.113764,-0.121806
1258,0.076527,0.287158,-0.121806
1259,0.059426,0.248626,-0.121806
1260,0.008122,0.017434,-0.065715
1261,0.008122,0.075232,0.009072
1262,-0.008979,0.017434,-0.009625
1263,-0.008979,-0.078896,0.046465
1264,-0.043182,-0.040364,0.083859
1265,-0.026081,0.13303,0.121252
1266,0.008122,0.075232,0.139949
1267,0.025223,0.094498,0.139949
1268,0.008122,0.0367,0.139949
1269,-0.008979,0.017434,0.046465
1270,0.008122,0.094498,-0.065715
1271,0.008122,0.094498,-0.177896
1272,-0.008979,-0.021098,-0.196593
1273,-0.008979,-0.078896,-0.177896
1274,0.008122,-0.078896,-0.121806
1275,0.025223,-0.078896,-0.047018
1276,-0.008979,-0.05963,-0.028322
1277,-0.026081,-0.117428,0.009072
1278,-0.026081,-0.136694,0.027769
1279,0.008122,-0.117428,0.065162
1280,0.008122,-0.15596,0.083859
1281,-0.026081,-0.136694,0.083859
1282,-0.008979,-0.040364,0.046465
1283,0.008122,0.017434,0.046465
1284,0.025223,0.113764,0.009072
1285,0.042325,0.075232,-0.009625
1286,-0.008979,-0.001832,-0.103109
1287,0.008122,0.017434,-0.159199
1288,0.042325,0.306424,0.027769
1289,0.076527,0.22936,0.121252
1290,0.025223,0.055966,0.083859
1291,-0.008979,-0.001832,0.065162
1292,0.008122,-0.05963,0.027769
1293,-0.026081,-0.021098,0.102556
1294,-0.060283,-0.001832,0.083859
1295,-0.026081,0.055966,-0.009625
1296,-0.008979,0.017434,-0.065715
1297,0.025223,0.017434,-0.103109
1298,0.025223,-0.001832,-0.103109
1299,0.025223,-0.040364,-0.028322
1300,0.008122,-0.040364,0.009072
1301,0.025223,0.075232,-0.047018
1302,0.042325,0.075232,-0.065715
1303,0.025223,0.055966,-0.028322
1304,0.025223,0.094498,-0.065715
1305,0.008122,0.075232,-0.009625
1306,0.008122,0.0367,-0.047018
1307,0.008122,-0.021098,-0.047018
1308,0.008122,-0.05963,0.009072
1309,-0.008979,-0.05963,0.065162
1310,0.008122,-0.078896,0.009072
1311,0.008122,-0.098162,0.027769
1312,-0.008979,-0.117428,0.027769
1313,0.008122,-0.136694,0.046465
1314,0.008122,-0.271555,-0.047018
1315,-0.043182,-0.348619,-0.047018
1316,-0.060283,-0.213758,-0.084412
1317,-0.026081,-0.021098,-0.009625
1318,0.025223,0.248626,0.046465
1319,0.059426,0.479818,0.102556
1320,0.059426,0.42202,0.102556
1321,0.025223,0.171562,0.139949
1322,0.008122,0.113764,0.139949
1323,-0.008979,0.0367,0.102556
1324,-0.008979,0.055966,0.065162
1325,0.025223,0.017434,0.121252
1326,0.025223,-0.021098,0.083859
1327,0.025223,-0.078896,0.046465
1328,0.008122,-0.098162,0.009072
1329,-0.008979,-0.078896,-0.103109
1330,-0.026081,-0.05963,-0.140502
1331,-0.043182,-0.136694,-0.215289
1332,-0.026081,-0.021098,-0.177896
1333,-0.043182,-0.021098,-0.121806
1334,-0.008979,-0.098162,-0.084412
1335,-0.008979,-0.040364,-0.047018
1336,0.008122,0.017434,-0.009625
1337,-0.008979,-0.040364,-0.047018
1338,-0.008979,0.0367,-0.047018
1339,0.042325,0.113764,-0.065715
1340,-0.008979,-0.078896,-0.084412
1341,-0.008979,-0.098162,-0.028322
1342,0.025223,-0.021098,0.027769
1343,-0.008979,0.075232,0.065162
1344,-0.008979,0.094498,0.083859
1345,-0.026081,-0.021098,0.102556
1346,-0.008979,-0.040364,0.046465
1347,0.008122,-0.098162,0.009072
1348,0.008122,-0.078896,-0.009625
1349,-0.026081,-0.078896,0.027769
1350,-0.026081,-0.001832,-0.084412
1351,-0.008979,0.055966,-0.065715
1352,-0.026081,0.0367,-0.065715
1353,0.008122,0.113764,-0.103109
1354,0.042325,0.152296,-0.047018
1355,0.025223,0.152296,-0.009625
1356,0.059426,0.13303,-0.009625
1357,0.042325,0.075232,-0.009625
1358,0.025223,0.0367,0.027769
1359,0.025223,-0.040364,0.046465
1360,0.008122,-0.021098,0.046465
1361,-0.008979,-0.021098,0.009072
1362,-0.008979,-0.001832,0.065162
1363,-0.008979,-0.021098,0.046465
1364,-0.008979,-0.05963,0.083859
1365,-0.008979,-0.021098,0.065162
1366,-0.008979,0.055966,0.027769
1367,0.008122,0.0367,0.009072
1368,0.008122,0.0367,-0.009625
1369,0.008122,0.055966,-0.028322
1370,0.008122,-0.040364,-0.047018
1371,-0.008979,-0.15596,-0.028322
1372,0.008122,-0.252289,-0.028322
1373,0.008122,-0.367885,-0.028322
1374,-0.026081,-0.310087,-0.047018
1375,-0.026081,-0.175226,-0.065715
1376,-0.008979,0.017434,-0.047018
1377,-0.026081,0.171562,0.083859
1378,-0.008979,0.267892,0.102556
1379,0.008122,0.267892,0.102556
1380,0.025223,0.113764,0.065162
1381,0.008122,0.171562,0.046465
1382,0.008122,0.171562,0.046465
1383,0.008122,0.13303,0.027769
1384,0.008122,0.094498,0.009072
1385,0.008122,0.0367,0.046465
1386,0.008122,-0.021098,-0.028322
1387,-0.026081,-0.040364,0.046465
1388,-0.008979,-0.040364,0.009072
1389,-0.008979,-0.021098,-0.103109
1390,0.008122,0.017434,-0.065715
1391,-0.008979,-0.001832,-0.047018
1392,0.008122,-0.040364,-0.047018
1393,0.008122,-0.021098,-0.028322
1394,-0.008979,-0.040364,-0.140502
1395,-0.008979,-0.001832,-0.159199
1396,0.042325,-0.001832,-0.084412
1397,0.025223,-0.001832,-0.009625
1398,0.008122,-0.021098,0.027769
1399,-0.008979,-0.001832,0.046465
1400,0.008122,0.075232,0.065162
1401,0.008122,0.055966,0.083859
1402,0.008122,0.055966,0.027769
1403,0.008122,-0.040364,0.027769
1404,-0.008979,-0.05963,-0.047018
1405,0.008122,-0.136694,-0.047018
1406,-0.008979,-0.194492,-0.028322
1407,-0.008979,-0.252289,0.027769
1408,-0.008979,-0.310087,-0.047018
1409,-0.043182,-0.290821,-0.084412
1410,-0.026081,-0.078896,-0.028322
1411,0.008122,0.152296,0.027769
1412,0.042325,0.248626,0.083859
1413,0.042325,0.306424,0.139949
1414,0.025223,0.306424,0.158646
1415,0.025223,0.248626,0.065162
1416,0.008122,0.094498,0.065162
1417,0.008122,-0.040364,0.009072
1418,-0.008979,-0.05963,-0.065715
1419,-0.008979,-0.194492,-0.140502
1420,-0.008979,-0.271555,-0.084412
1421,-0.060283,-0.444949,-0.084412
1422,-0.043182,-0.348619,-0.084412
1423,0.008122,-0.15596,-0.065715
1424,-0.043182,-0.040364,-0.009625
1425,-0.077385,-0.001832,-0.028322
1426,0.042325,0.441286,-0.028322
1427,0.093629,0.71101,0.065162
1428,0.076527,0.71101,0.083859
1429,0.059426,0.287158,0.046465
1430,0.008122,0.094498,0.027769
1431,-0.008979,0.055966,0.027769
1432,-0.008979,-0.001832,-0.009625
1433,0.008122,0.0367,0.065162
1434,0.025223,0.0367,-0.009625
1435,0.008122,0.0367,-0.047018
1436,0.008122,-0.001832,-0.028322
1437,0.008122,-0.001832,-0.028322
1438,0.008122,-0.040364,0.009072
1439,-0.008979,-0.05963,0.121252
1440,-0.008979,-0.040364,0.158646
1441,0.008122,-0.05963,0.046465
1442,0.025223,-0.05963,0.027769
1443,-0.008979,-0.040364,-0.009625
1444,-0.008979,-0.05963,-0.009625
1445,0.008122,-0.05963,-0.084412
1446,-0.008979,-0.040364,-0.140502
1447,0.008122,-0.098162,-0.140502
1448,-0.008979,-0.021098,-0.084412
1449,-0.008979,-0.078896,-0.047018
1450,-0.008979,-0.040364,-0.047018
1451,-0.008979,-0.098162,-0.121806
1452,-0.026081,-0.098162,-0.084412
1453,-0.026081,-0.194492,0.009072
1454,-0.026081,-0.252289,0.027769
1455,-0.008979,-0.252289,0.065162
1456,-0.026081,-0.175226,0.083859
1457,0.008122,-0.021098,0.083859
1458,0.008122,0.13303,0.065162
1459,0.042325,0.248626,0.046465
1460,0.042325,0.210094,-0.028322
1461,0.008122,0.152296,-0.009625
1462,0.008122,0.152296,0.009072
1463,0.008122,0.094498,0.027769
1464,0.025223,0.017434,0.083859
1465,0.008122,-0.021098,0.139949
1466,0.008122,-0.040364,0.158646
1467,-0.008979,-0.021098,0.177343
1468,-0.008979,-0.05963,0.158646
1469,-0.008979,-0.078896,0.102556
1470,-0.026081,-0.040364,0.046465
1471,0.008122,0.055966,-0.047018
1472,0.025223,0.075232,-0.084412
1473,0.025223,0.017434,-0.065715
1474,0.008122,0.0367,-0.047018
1475,0.025223,0.0367,-0.047018
1476,0.025223,0.0367,-0.009625
1477,0.008122,-0.001832,-0.084412
1478,-0.008979,-0.001832,-0.121806
1479,0.025223,-0.021098,-0.084412
1480,-0.008979,-0.021098,-0.084412
1481,-0.026081,-0.05963,-0.159199
1482,0.025223,-0.001832,-0.028322
1483,0.008122,-0.040364,-0.028322
1484,0.008122,-0.040364,-0.009625
1485,-0.008979,-0.040364,0.027769
1486,0.008122,-0.05963,-0.009625
1487,-0.008979,-0.05963,-0.009625
1488,-0.008979,-0.078896,-0.009625
1489,-0.008979,-0.001832,-0.047018
1490,-0.008979,0.017434,-0.121806
1491,0.025223,-0.001832,-0.047018
1492,0.042325,-0.05963,0.065162
1493,-0.008979,-0.252289,0.046465
1494,-0.026081,-0.329353,-0.028322
1495,-0.043182,-0.367885,-0.028322
1496,-0.043182,-0.483481,-0.065715
1497,-0.094486,-0.541279,-0.047018
1498,-0.026081,-0.213758,0.009072
1499,0.025223,0.13303,0.009072
1500,0.025223,0.210094,0.027769
1501,0.008122,0.42202,0.046465
1502,0.059426,0.80734,0.083859
1503,0.11073,0.826606,0.027769
1504,0.042325,0.364222,-0.009625
1505,0.025223,0.210094,-0.009625
1506,0.042325,0.171562,0.027769
1507,0.025223,0.113764,0.027769
1508,0.008122,0.113764,0.009072
1509,-0.008979,0.055966,0.009072
1510,-0.008979,0.055966,0.009072
1511,0.008122,0.017434,0.027769
1512,0.008122,-0.05963,0.065162
1513,0.008122,-0.098162,0.027769
1514,0.008122,-0.175226,0.065162
1515,-0.043182,-0.233024,0.046465
1516,-0.043182,-0.233024,-0.047018
1517,-0.008979,-0.098162,-0.028322
1518,-0.026081,-0.040364,-0.009625
1519,-0.060283,-0.001832,-0.084412
1520,-0.008979,0.13303,-0.047018
1521,0.076527,0.287158,-0.065715
1522,0.042325,0.190828,-0.047018
1523,0.008122,0.094498,-0.028322
1524,0.008122,0.055966,0.046465
1525,-0.008979,-0.021098,0.046465
1526,0.008122,-0.001832,0.102556
1527,0.008122,-0.001832,0.158646
1528,0.008122,-0.001832,0.121252
1529,0.008122,-0.040364,0.046465
1530,-0.008979,-0.040364,-0.047018
1531,0.008122,-0.021098,-0.028322
1532,-0.008979,-0.078896,-0.084412
1533,0.008122,-0.05963,-0.028322
1534,-0.008979,-0.05963,-0.028322
1535,-0.008979,-0.021098,-0.028322
1536,0.008122,-0.040364,-0.009625
1537,-0.008979,-0.05963,0.009072
1538,-0.008979,-0.001832,0.027769
1539,0.008122,-0.040364,-0.009625
1540,0.025223,-0.001832,-0.028322
1541,0.008122,-0.05963,-0.028322
1542,0.008122,-0.040364,-0.084412
1543,0.008122,-0.05963,-0.084412
1544,0.008122,-0.021098,-0.047018
1545,0.008122,-0.021098,-0.009625
1546,-0.008979,-0.001832,0.027769
1547,0.008122,-0.001832,0.065162
1548,0.008122,-0.001832,0.083859
1549,-0.026081,-0.021098,0.027769
1550,-0.008979,-0.040364,0.065162
1551,-0.008979,-0.05963,0.027769
1552,-0.026081,-0.021098,0.009072
1553,-0.008979,-0.040364,0.009072
1554,-0.008979,-0.001832,-0.047018
1555,-0.008979,-0.05963,-0.009625
1556,-0.008979,-0.040364,0.009072
1557,0.008122,-0.001832,-0.028322
1558,-0.008979,-0.021098,-0.047018
1559,-0.008979,-0.021098,0.046465
1560,-0.008979,-0.001832,0.083859
1561,0.008122,-0.001832,-0.028322
1562,0.008122,0.094498,0.009072
1563,0.025223,0.13303,0.027769
1564,0.008122,0.0367,-0.009625
1565,0.008122,-0.001832,0.046465
1566,0.025223,-0.001832,0.083859
1567,0.025223,-0.001832,0.046465
1568,-0.008979,-0.021098,-0.028322
1569,0.008122,-0.040364,-0.084412
1570,-0.008979,-0.078896,-0.009625
1571,0.025223,-0.001832,0.027769
1572,0.008122,-0.040364,0.065162
1573,0.025223,-0.021098,0.102556
1574,-0.008979,-0.078896,0.083859
1575,-0.008979,-0.213758,0.009072
1576,-0.043182,-0.271555,0.009072
1577,-0.026081,-0.290821,-0.177896
1578,-0.026081,-0.213758,-0.196593
1579,0.008122,-0.040364,-0.140502
1580,-0.026081,0.017434,-0.084412
1581,0.025223,0.190828,0.046465
1582,0.042325,0.210094,0.065162
1583,0.025223,0.075232,0.027769
1584,0.008122,-0.001832,-0.028322
1585,-0.008979,-0.175226,-0.065715
1586,-0.060283,-0.233024,-0.084412
1587,-0.008979,-0.001832,-0.084412
1588,0.025223,0.171562,-0.009625
1589,0.042325,0.32569,0.046465
1590,0.008122,0.171562,-0.009625
1591,-0.008979,0.22936,0.046465
1592,0.008122,0.190828,0.046465
1593,0.025223,0.13303,0.027769
1594,-0.008979,0.171562,0.065162
1595,0.008122,0.075232,0.027769
1596,0.008122,-0.021098,0.009072
1597,0.008122,-0.001832,0.009072
1598,0.008122,0.094498,-0.009625
1599,0.025223,0.152296,-0.009625
1600,0.008122,0.13303,-0.009625
1601,0.025223,0.017434,0.083859
1602,0.008122,-0.001832,0.065162
1603,0.008122,0.0367,0.027769
1604,-0.026081,0.017434,0.046465
1605,-0.008979,0.075232,0.046465
1606,0.025223,0.075232,-0.028322
1607,0.025223,0.017434,-0.028322
1608,0.008122,-0.05963,-0.009625
1609,-0.008979,-0.021098,0.027769
1610,-0.008979,0.017434,0.065162
1611,-0.008979,0.017434,0.065162
1612,0.008122,-0.021098,0.065162
1613,-0.008979,-0.040364,0.027769
1614,-0.008979,-0.05963,-0.084412
1615,0.008122,-0.078896,-0.084412
1616,-0.008979,-0.117428,-0.065715
1617,-0.026081,-0.040364,-0.047018
1618,-0.008979,-0.021098,-0.065715
1619,-0.008979,-0.021098,-0.047018
1620,-0.008979,-0.021098,0.027769
1621,-0.008979,-0.05963,0.046465
1622,-0.026081,-0.05963,0.065162
1623,-0.008979,-0.040364,0.046465
1624,-0.008979,-0.021098,-0.009625
1625,0.008122,-0.021098,0.027769
1626,-0.008979,-0.021098,0.027769
1627,0.008122,-0.021098,-0.047018
1628,-0.008979,-0.021098,-0.047018
1629,-0.008979,-0.021098,0.027769
1630,-0.008979,-0.021098,0.046465
1631,-0.008979,-0.040364,0.027769
1632,-0.008979,-0.021098,0.027769
1633,-0.008979,-0.05963,0.121252
1634,0.008122,-0.040364,0.158646
1635,0.008122,-0.001832,0.196039
1636,-0.008979,-0.021098,0.177343
1637,0.008122,-0.05963,0.027769
1638,-0.008979,0.055966,-0.065715
1639,0.008122,0.055966,-0.121806
1640,0.008122,0.0367,-0.159199
1641,0.008122,-0.001832,-0.159199
1642,-0.008979,0.017434,-0.103109
1643,0.008122,0.017434,0.009072
1644,0.008122,0.0367,0.009072
1645,0.008122,0.055966,-0.047018
1646,-0.008979,0.0367,-0.121806
1647,-0.008979,-0.040364,-0.121806
1648,-0.026081,-0.05963,-0.084412
1649,-0.008979,-0.040364,-0.065715
1650,-0.026081,-0.040364,-0.047018
1651,-0.026081,-0.001832,-0.047018
1652,0.008122,-0.021098,-0.009625
1653,0.008122,0.017434,-0.009625
1654,0.008122,0.075232,-0.047018
1655,0.025223,0.075232,-0.028322
1656,0.008122,-0.001832,-0.028322
1657,-0.008979,-0.001832,-0.028322
1658,0.008122,-0.021098,0.027769
1659,-0.026081,-0.021098,0.027769
1660,-0.026081,-0.040364,0.065162
1661,0.008122,-0.098162,0.102556
1662,-0.008979,-0.136694,0.065162
1663,-0.026081,-0.15596,0.027769
1664,0.008122,-0.213758,0.009072
1665,-0.026081,-0.194492,-0.028322
1666,-0.043182,-0.194492,-0.065715
1667,-0.026081,-0.05963,-0.047018
1668,-0.008979,-0.001832,-0.009625
1669,-0.026081,0.0367,0.027769
1670,0.008122,0.0367,-0.009625
1671,0.008122,0.017434,-0.028322
1672,0.025223,0.13303,0.009072
1673,0.025223,0.22936,0.046465
1674,0.042325,0.210094,0.065162
1675,0.025223,0.210094,0.046465
1676,-0.008979,0.0367,-0.009625
1677,0.008122,0.017434,0.027769
1678,0.025223,0.075232,-0.047018
1679,0.008122,0.055966,-0.028322
1680,0.008122,0.055966,-0.028322
1681,0.008122,0.171562,-0.028322
1682,0.025223,0.190828,-0.028322
1683,0.008122,0.210094,-0.009625
1684,0.025223,-0.001832,0.009072
1685,0.008122,-0.098162,-0.009625
1686,-0.026081,-0.098162,0.009072
1687,-0.026081,-0.040364,0.046465
1688,0.025223,0.152296,0.027769
1689,0.025223,0.171562,0.065162
1690,0.025223,0.075232,0.027769
1691,0.008122,-0.001832,0.027769
1692,-0.008979,-0.021098,-0.047018
1693,-0.008979,-0.021098,0.027769
1694,-0.008979,-0.021098,0.027769
1695,0.008122,-0.021098,0.046465
1696,-0.008979,-0.040364,0.027769
1697,0.008122,-0.040364,0.027769
1698,-0.008979,-0.021098,0.009072
1699,-0.026081,-0.05963,-0.009625
1700,-0.008979,-0.040364,0.046465
1701,-0.008979,-0.021098,0.046465
1702,-0.026081,-0.021098,0.083859
1703,-0.008979,-0.021098,0.046465
1704,-0.008979,-0.040364,-0.009625
1705,0.008122,-0.001832,-0.047018
1706,0.008122,-0.021098,-0.121806
1707,0.008122,-0.021098,-0.159199
1708,0.008122,-0.001832,-0.028322
1709,0.008122,-0.001832,0.046465
1710,0.008122,-0.001832,0.027769
1711,0.008122,-0.001832,0.065162
1712,-0.008979,-0.021098,0.083859
1713,-0.008979,-0.021098,0.065162
1714,-0.008979,-0.040364,-0.084412
1715,-0.008979,-0.040364,0.027769
1716,-0.008979,-0.05963,0.027769
1717,0.008122,-0.05963,0.027769
1718,0.008122,-0.021098,-0.065715
1719,-0.026081,-0.040364,0.046465
1720,0.008122,-0.001832,0.102556
1721,-0.008979,-0.021098,-0.028322
1722,0.025223,-0.040364,-0.140502
1723,0.008122,-0.001832,-0.121806
1724,0.025223,0.0367,-0.103109
1725,0.008122,0.0367,0.009072
1726,0.025223,0.055966,0.009072
1727,0.008122,0.055966,0.065162
1728,-0.008979,0.017434,0.046465
1729,-0.026081,0.017434,0.046465
1730,-0.008979,0.0367,0.027769
1731,-0.008979,0.017434,0.083859
1732,0.008122,0.017434,0.046465
1733,-0.008979,-0.001832,0.027769
1734,-0.008979,-0.021098,0.009072
1735,-0.008979,0.017434,-0.009625
1736,0.008122,-0.05963,-0.047018
1737,0.025223,-0.078896,-0.065715
1738,-0.008979,-0.098162,0.009072
1739,-0.026081,-0.098162,-0.047018
1740,-0.026081,-0.040364,-0.065715
1741,-0.008979,-0.040364,-0.065715
1742,0.042325,0.094498,-0.009625
1743,0.025223,0.152296,-0.028322
1744,0.025223,0.055966,-0.028322
1745,0.008122,0.055966,0.009072
1746,-0.008979,-0.021098,0.027769
1747,-0.008979,-0.117428,0.083859
1748,-0.008979,-0.194492,0.065162
1749,-0.060283,-0.271555,-0.028322
1750,-0.026081,-0.194492,0.009072
1751,-0.077385,-0.117428,-0.009625
1752,-0.043182,-0.136694,-0.028322
1753,-0.026081,0.055966,-0.047018
1754,0.042325,0.113764,-0.047018
1755,0.008122,-0.117428,-0.028322
1756,-0.026081,-0.194492,-0.009625
1757,-0.026081,-0.136694,-0.028322
1758,0.008122,-0.001832,-0.028322
1759,0.008122,0.113764,-0.009625
1760,0.042325,0.306424,0.046465
1761,0.076527,0.499084,0.046465
1762,0.042325,0.499084,0.027769
1763,0.042325,0.402754,0.083859
1764,0.008122,0.344956,0.065162
1765,0.025223,0.22936,-0.028322
1766,0.042325,0.152296,-0.047018
1767,0.008122,0.075232,-0.103109
1768,0.025223,-0.001832,-0.084412
1769,0.008122,-0.001832,-0.009625
1770,-0.008979,-0.001832,0.009072
1771,0.008122,-0.001832,0.083859
1772,0.008122,-0.040364,0.046465
1773,0.025223,-0.040364,0.065162
1774,0.008122,-0.040364,0.027769
1775,-0.008979,-0.040364,-0.047018
1776,0.008122,-0.040364,-0.009625
1777,0.025223,-0.021098,0.027769
1778,0.008122,-0.021098,0.065162
1779,-0.008979,-0.05963,0.102556
1780,-0.026081,-0.175226,0.046465
1781,0.008122,-0.175226,0.065162
1782,-0.008979,-0.15596,0.102556
1783,-0.008979,-0.098162,0.065162
1784,-0.026081,-0.05963,-0.103109
1785,-0.008979,-0.001832,-0.159199
1786,-0.026081,0.055966,-0.065715
1787,0.025223,0.13303,-0.028322
1788,0.008122,0.0367,-0.065715
1789,0.008122,0.017434,-0.047018
1790,-0.008979,-0.021098,-0.065715
1791,0.008122,-0.021098,-0.047018
1792,0.008122,-0.021098,-0.047018
1793,0.008122,-0.05963,-0.103109
1794,0.008122,-0.021098,-0.047018
1795,-0.026081,-0.001832,0.009072
1796,0.008122,-0.021098,0.102556
1797,-0.008979,-0.040364,0.065162
1798,0.008122,-0.001832,0.158646
1799,-0.026081,0.0367,0.158646
1800,0.008122,-0.021098,0.083859
1801,-0.008979,-0.040364,-0.047018
1802,-0.008979,-0.040364,-0.065715
1803,-0.008979,-0.040364,-0.009625
1804,-0.008979,-0.040364,-0.047018
1805,-0.008979,0.017434,0.027769
1806,0.025223,0.017434,0.046465
1807,0.008122,0.0367,0.121252
1808,0.025223,0.017434,0.158646
1809,0.008122,-0.001832,0.139949
1810,-0.008979,0.017434,0.046465
1811,-0.008979,-0.001832,0.083859
1812,-0.008979,-0.040364,0.065162
1813,0.008122,-0.021098,-0.028322
1814,0.008122,0.017434,-0.047018
1815,-0.008979,-0.040364,0.046465
1816,-0.026081,-0.001832,0.009072
1817,-0.008979,-0.001832,-0.047018
1818,-0.008979,-0.040364,-0.047018
1819,0.008122,-0.001832,-0.177896
1820,-0.008979,-0.040364,-0.196593
1821,-0.026081,-0.040364,-0.177896
1822,0.008122,-0.021098,-0.103109
1823,0.008122,-0.040364,-0.047018
1824,0.008122,-0.040364,-0.009625
1825,-0.026081,-0.040364,-0.065715
1826,-0.008979,-0.001832,-0.028322
1827,-0.008979,-0.040364,-0.065715
1828,0.008122,-0.078896,-0.047018
1829,0.008122,-0.05963,0.009072
1830,-0.008979,0.017434,0.046465
1831,-0.026081,-0.001832,0.083859
1832,-0.008979,-0.021098,0.065162
1833,-0.008979,-0.001832,0.083859
1834,-0.008979,0.075232,0.046465
1835,-0.008979,0.0367,0.027769
1836,0.008122,0.0367,0.065162
1837,-0.008979,-0.098162,0.027769
1838,0.008122,-0.136694,0.009072
1839,-0.008979,-0.098162,-0.009625
1840,-0.008979,-0.001832,0.009072
1841,-0.008979,0.075232,-0.047018
1842,-0.008979,0.152296,-0.103109
1843,0.042325,0.32569,-0.028322
1844,0.042325,0.32569,-0.028322
1845,0.042325,0.13303,-0.028322
1846,0.008122,-0.021098,0.009072
1847,-0.026081,-0.040364,0.027769
1848,-0.026081,-0.078896,0.009072
1849,-0.008979,-0.117428,-0.009625
1850,-0.026081,-0.05963,0.009072
1851,0.008122,-0.05963,-0.028322
1852,0.008122,-0.117428,-0.028322
1853,-0.008979,-0.021098,0.009072
1854,-0.008979,-0.040364,-0.028322
1855,0.008122,-0.05963,-0.009625
1856,-0.026081,-0.001832,0.009072
1857,-0.008979,0.13303,0.009072
1858,0.008122,0.171562,0.009072
1859,0.008122,0.113764,0.046465
1860,-0.026081,0.113764,0.046465
1861,-0.008979,0.190828,0.009072
1862,0.008122,0.210094,0.009072
1863,0.025223,0.171562,0.009072
1864,0.008122,0.055966,-0.047018
1865,0.008122,0.0367,-0.009625
1866,-0.008979,-0.001832,0.027769
1867,-0.008979,-0.001832,-0.009625
1868,-0.026081,-0.040364,-0.009625
1869,0.008122,-0.040364,0.046465
1870,0.008122,0.017434,0.065162
1871,0.008122,0.017434,0.027769
1872,0.008122,-0.05963,0.065162
1873,-0.008979,-0.040364,0.102556
1874,0.008122,-0.001832,0.027769
1875,0.008122,0.017434,-0.028322
1876,-0.008979,-0.021098,-0.028322
1877,0.008122,-0.021098,-0.065715
1878,-0.026081,-0.021098,-0.047018
1879,-0.008979,-0.021098,0.009072
1880,-0.008979,-0.040364,0.046465
1881,-0.008979,-0.021098,0.102556
1882,-0.008979,-0.021098,0.065162
1883,-0.026081,-0.040364,0.009072
1884,-0.026081,-0.040364,-0.009625
1885,-0.008979,-0.021098,-0.047018
1886,-0.026081,-0.05963,-0.177896
1887,-0.008979,-0.040364,-0.140502
1888,0.025223,-0.021098,-0.065715
1889,-0.008979,-0.001832,0.009072
1890,-0.008979,-0.001832,-0.009625
1891,-0.008979,0.055966,0.027769
1892,0.008122,0.0367,0.009072
1893,0.008122,-0.040364,-0.009625
1894,-0.026081,-0.040364,0.009072
1895,-0.026081,-0.040364,0.027769
1896,-0.008979,-0.040364,-0.009625
1897,-0.026081,-0.040364,-0.047018
1898,-0.026081,-0.040364,-0.028322
1899,-0.026081,-0.001832,0.027769
1900,-0.026081,0.0367,0.046465
1901,-0.026081,-0.021098,-0.028322
1902,0.008122,-0.021098,-0.009625
1903,0.008122,0.055966,-0.028322
1904,0.008122,0.075232,-0.009625
1905,0.025223,0.017434,0.083859
1906,0.008122,0.0367,0.083859
1907,0.008122,0.017434,0.065162
1908,0.008122,-0.040364,0.009072
1909,-0.008979,-0.078896,-0.028322
1910,-0.026081,-0.040364,-0.028322
1911,-0.008979,-0.078896,-0.065715
1912,-0.026081,-0.040364,-0.065715
1913,-0.026081,-0.001832,0.046465
1914,-0.008979,0.0367,0.158646
1915,-0.008979,0.055966,0.139949
1916,-0.008979,0.017434,0.139949
1917,-0.008979,-0.001832,0.102556
1918,-0.026081,-0.040364,0.027769
1919,-0.043182,-0.098162,-0.084412
1920,-0.008979,-0.021098,-0.065715
1921,0.008122,0.094498,0.009072
1922,0.008122,0.094498,0.046465
1923,0.008122,0.075232,0.083859
1924,-0.008979,0.075232,-0.009625
1925,0.008122,0.113764,-0.065715
1926,-0.008979,0.075232,-0.047018
1927,0.008122,0.075232,-0.009625
1928,-0.008979,0.017434,-0.047018
1929,-0.008979,0.017434,-0.028322
1930,0.008122,0.017434,-0.028322
1931,0.008122,0.017434,0.083859
1932,-0.008979,0.017434,0.083859
1933,-0.008979,0.017434,0.102556
1934,-0.008979,-0.021098,0.027769
1935,-0.026081,-0.098162,-0.028322
1936,-0.008979,-0.098162,-0.084412
1937,-0.026081,-0.078896,-0.103109
1938,-0.008979,-0.040364,-0.047018
1939,-0.008979,0.017434,-0.103109
1940,0.008122,0.0367,-0.084412
1941,0.025223,-0.021098,-0.084412
1942,0.025223,-0.001832,-0.065715
1943,-0.008979,-0.021098,-0.028322
1944,-0.008979,-0.05963,-0.028322
1945,-0.008979,-0.001832,-0.028322
1946,0.008122,0.0367,0.046465
1947,-0.008979,0.055966,0.027769
1948,-0.008979,0.075232,0.009072
1949,0.008122,0.094498,0.027769
1950,0.008122,0.0367,-0.009625
1951,0.008122,0.017434,-0.047018
1952,0.008122,0.0367,0.009072
1953,0.008122,0.075232,0.009072
1954,0.008122,-0.001832,-0.009625
1955,0.008122,-0.001832,0.009072
1956,0.008122,-0.021098,0.027769
1957,0.008122,-0.001832,0.027769
1958,-0.008979,-0.040364,0.046465
1959,-0.008979,-0.05963,0.065162
1960,0.008122,-0.040364,0.027769
1961,0.008122,-0.021098,0.009072
1962,0.008122,-0.001832,0.009072
1963,-0.008979,-0.021098,-0.028322
1964,-0.026081,-0.040364,-0.047018
1965,-0.008979,-0.021098,0.009072
1966,-0.026081,-0.040364,0.009072
1967,-0.008979,-0.136694,-0.028322
1968,-0.026081,-0.213758,-0.047018
1969,-0.026081,-0.15596,0.009072
1970,0.008122,-0.078896,0.009072
1971,-0.008979,-0.078896,0.046465
1972,0.008122,-0.117428,0.027769
1973,-0.008979,-0.078896,0.009072
1974,-0.008979,0.055966,0.009072
1975,-0.026081,0.0367,-0.028322
1976,-0.026081,0.171562,-0.009625
1977,-0.008979,0.248626,-0.009625
1978,0.025223,0.248626,-0.009625
1979,0.025223,0.287158,0.027769
1980,0.042325,0.210094,0.009072
1981,0.008122,0.113764,0.046465
1982,0.008122,0.0367,0.046465
1983,0.008122,-0.040364,0.065162
1984,0.008122,-0.021098,0.083859
1985,0.008122,-0.040364,0.046465
1986,0.008122,-0.040364,-0.047018
1987,0.008122,-0.001832,-0.047018
1988,0.008122,0.094498,-0.028322
1989,0.008122,0.113764,-0.047018
1990,-0.008979,0.075232,-0.009625
1991,0.008122,-0.05963,-0.028322
1992,-0.026081,-0.098162,0.009072
1993,-0.008979,-0.05963,-0.028322
1994,-0.026081,-0.078896,0.009072
1995,-0.008979,-0.078896,0.009072
1996,-0.008979,-0.001832,0.009072
1997,-0.008979,0.055966,0.083859
1998,0.008122,0.0367,0.046465
1999,-0.008979,-0.001832,0.027769
2000,0.008122,-0.001832,0.065162
2001,0.008122,0.055966,0.027769
2002,-0.008979,-0.001832,-0.047018
2003,0.008122,-0.021098,-0.047018
2004,0.008122,-0.021098,-0.121806
2005,0.008122,-0.001832,-0.065715
2006,0.008122,0.017434,-0.028322
2007,0.008122,-0.001832,0.046465
2008,-0.008979,-0.001832,-0.028322
2009,0.008122,0.0367,0.009072
2010,0.025223,-0.001832,0.102556
2011,-0.008979,0.094498,0.102556
2012,0.008122,0.017434,0.102556
2013,-0.008979,-0.040364,0.065162
2014,-0.026081,-0.05963,-0.028322
2015,-0.008979,-0.05963,-0.177896
2016,-0.008979,-0.05963,-0.140502
2017,-0.008979,-0.05963,-0.121806
2018,0.008122,-0.040364,-0.084412
2019,-0.008979,-0.040364,-0.009625
2020,0.008122,0.017434,0.083859
2021,0.008122,0.0367,0.121252
2022,0.025223,0.017434,0.027769
2023,0.025223,0.0367,0.046465
2024,0.008122,-0.021098,0.065162
2025,-0.008979,-0.021098,0.065162
2026,0.008122,0.017434,0.083859
2027,-0.008979,-0.001832,0.009072
2028,0.008122,0.0367,0.027769
2029,0.008122,0.017434,0.027769
2030,0.008122,-0.021098,0.046465
2031,0.008122,0.0367,-0.009625
2032,-0.008979,0.017434,-0.009625
2033,-0.008979,-0.001832,0.009072
2034,0.008122,-0.021098,-0.047018
2035,-0.008979,-0.05963,-0.084412
2036,-0.008979,-0.078896,-0.084412
2037,-0.026081,-0.117428,-0.065715
2038,-0.026081,-0.05963,-0.047018
2039,-0.026081,-0.05963,0.027769
2040,-0.026081,-0.05963,-0.009625
2041,-0.026081,-0.040364,-0.009625
2042,-0.008979,0.017434,-0.009625
2043,0.025223,0.0367,0.046465
2044,-0.008979,0.055966,0.009072
2045,-0.008979,0.017434,0.027769
2046,-0.008979,-0.05963,0.009072
2047,0.025223,-0.040364,-0.047018
2048,0.042325,-0.001832,-0.084412
2049,0.008122,-0.021098,-0.028322
2050,-0.008979,-0.098162,-0.103109
2051,-0.026081,-0.117428,-0.084412
2052,-0.026081,-0.001832,0.009072
2053,0.025223,0.094498,0.027769
2054,0.008122,0.171562,0.027769
2055,0.025223,0.075232,0.027769
2056,0.008122,0.113764,0.083859
2057,-0.026081,0.113764,0.065162
2058,-0.008979,0.055966,0.083859
2059,0.008122,0.113764,0.065162
2060,0.042325,0.113764,0.009072
2061,0.008122,-0.021098,-0.009625
2062,-0.043182,-0.15596,0.009072
2063,-0.026081,-0.194492,-0.047018
2064,-0.008979,-0.252289,-0.065715
2065,-0.008979,-0.271555,-0.009625
2066,-0.026081,-0.213758,-0.009625
2067,-0.008979,-0.194492,-0.028322
2068,-0.026081,-0.098162,0.009072
2069,-0.008979,0.0367,0.027769
2070,0.008122,0.113764,0.027769
2071,0.008122,0.171562,0.065162
2072,0.025223,0.287158,0.046465
2073,0.008122,0.306424,0.046465
2074,0.025223,0.32569,0.065162
2075,0.008122,0.248626,0.065162
2076,0.025223,0.171562,0.009072
2077,0.025223,0.13303,0.009072
2078,0.008122,0.075232,-0.028322
2079,-0.008979,0.055966,-0.065715
2080,-0.008979,-0.021098,-0.084412
2081,0.008122,-0.040364,-0.047018
2082,-0.008979,-0.040364,-0.009625
2083,0.008122,-0.021098,-0.028322
2084,0.008122,0.017434,-0.028322
2085,0.008122,-0.021098,-0.009625
2086,0.008122,0.017434,-0.047018
2087,-0.008979,-0.040364,-0.028322
2088,-0.008979,-0.001832,0.027769
2089,-0.008979,-0.021098,-0.009625
2090,-0.008979,-0.040364,0.009072
2091,-0.008979,-0.001832,0.009072
2092,-0.026081,-0.040364,0.027769
2093,-0.008979,-0.021098,0.027769
2094,0.008122,-0.05963,0.065162
2095,0.025223,-0.040364,0.046465
2096,-0.008979,-0.001832,0.027769
2097,-0.026081,-0.040364,-0.009625
2098,-0.026081,-0.040364,-0.028322
2099,-0.008979,-0.040364,-0.047018
2100,-0.008979,-0.05963,-0.084412
2101,-0.008979,-0.05963,-0.028322
2102,0.025223,-0.040364,0.009072
2103,-0.008979,0.017434,0.065162
2104,-0.026081,-0.001832,0.027769
2105,-0.008979,-0.001832,0.027769
2106,0.008122,-0.001832,0.009072
2107,0.008122,0.017434,0.065162
2108,0.008122,0.017434,0.009072
2109,-0.008979,-0.040364,0.009072
2110,0.008122,0.017434,0.009072
2111,0.008122,-0.001832,-0.009625
2112,-0.026081,-0.021098,-0.065715
2113,0.008122,-0.001832,-0.065715
2114,0.008122,-0.021098,0.046465
2115,0.008122,-0.001832,0.009072
2116,-0.008979,-0.021098,0.009072
2117,0.025223,-0.021098,-0.009625
2118,0.008122,-0.021098,-0.047018
2119,0.008122,-0.001832,-0.065715
2120,0.008122,-0.021098,-0.009625
2121,0.025223,-0.001832,0.009072
2122,0.008122,-0.001832,-0.009625
2123,0.025223,0.017434,-0.009625
2124,0.008122,-0.021098,0.065162
2125,0.008122,-0.021098,0.083859
2126,0.025223,-0.001832,0.046465
2127,-0.008979,-0.021098,0.083859
2128,0.008122,-0.021098,0.027769
2129,-0.008979,0.017434,-0.103109
2130,-0.026081,-0.05963,-0.121806
2131,-0.026081,-0.098162,-0.065715
2132,-0.008979,-0.117428,-0.047018
2133,-0.008979,-0.175226,-0.009625
2134,-0.008979,-0.194492,0.009072
2135,-0.026081,-0.117428,-0.009625
2136,-0.008979,-0.117428,-0.009625
2137,-0.008979,-0.05963,0.027769
2138,-0.008979,0.055966,0.046465
2139,0.025223,0.210094,0.121252
2140,0.025223,0.287158,0.102556
2141,0.008122,0.306424,0.046465
2142,-0.008979,0.171562,-0.047018
2143,-0.008979,0.13303,-0.121806
2144,0.008122,0.094498,-0.065715
2145,0.008122,0.017434,-0.047018
2146,0.025223,-0.040364,0.027769
2147,0.008122,-0.078896,-0.009625
2148,0.008122,-0.098162,-0.047018
2149,0.025223,-0.021098,-0.028322
2150,-0.008979,-0.001832,-0.028322
2151,-0.026081,-0.05963,-0.047018
2152,-0.008979,-0.175226,-0.028322
2153,-0.008979,-0.233024,0.009072
2154,0.025223,-0.15596,0.046465
2155,0.008122,-0.098162,0.009072
2156,-0.026081,0.017434,0.046465
2157,-0.026081,0.171562,-0.009625
2158,0.025223,0.32569,-0.009625
2159,0.042325,0.383488,0.065162
2160,0.025223,0.22936,0.027769
2161,0.025223,0.13303,-0.009625
2162,0.025223,0.094498,-0.009625
2163,0.008122,-0.021098,-0.047018
2164,-0.026081,-0.078896,-0.009625
2165,0.008122,-0.05963,0.027769
2166,-0.008979,-0.021098,0.046465
2167,-0.008979,-0.001832,0.083859
2168,0.008122,0.055966,0.027769
2169,0.008122,0.075232,0.046465
2170,0.025223,0.017434,0.009072
2171,0.008122,-0.078896,-0.028322
2172,0.008122,-0.117428,0.009072
2173,0.008122,-0.078896,-0.009625
2174,0.008122,-0.040364,-0.047018
2175,-0.043182,-0.021098,-0.028322
2176,-0.026081,0.017434,-0.009625
2177,-0.026081,0.113764,-0.009625
2178,0.025223,0.094498,0.009072
2179,0.025223,0.017434,0.027769
2180,0.008122,-0.001832,0.009072
2181,0.008122,-0.021098,0.009072
2182,0.008122,-0.05963,-0.009625
2183,0.008122,-0.021098,-0.009625
2184,0.008122,-0.021098,-0.028322
2185,-0.008979,-0.001832,0.009072
2186,-0.008979,0.017434,0.046465
2187,0.008122,-0.021098,0.027769
2188,-0.008979,-0.001832,0.046465
2189,0.025223,-0.021098,-0.009625
2190,0.008122,-0.001832,-0.009625
2191,-0.008979,-0.021098,0.009072
2192,-0.008979,-0.001832,-0.009625
2193,0.008122,-0.001832,-0.028322
2194,0.008122,-0.001832,0.027769
2195,0.025223,-0.001832,0.009072
2196,0.008122,-0.021098,0.046465
2197,-0.008979,-0.001832,0.009072
2198,-0.008979,-0.021098,-0.028322
2199,0.008122,-0.001832,-0.103109
2200,0.008122,0.017434,-0.065715
2201,0.008122,-0.021098,0.027769
2202,-0.008979,-0.001832,-0.009625
2203,0.008122,-0.021098,0.009072
2204,0.025223,0.017434,0.065162
2205,0.025223,-0.001832,0.065162
2206,0.008122,-0.040364,0.027769
2207,0.008122,0.0367,0.046465
2208,0.008122,-0.021098,-0.009625
2209,-0.043182,-0.021098,-0.028322
2210,-0.008979,-0.021098,-0.047018
2211,-0.008979,-0.021098,-0.009625
2212,0.025223,-0.021098,0.027769
2213,0.008122,-0.040364,0.046465
2214,-0.008979,-0.05963,0.065162
2215,-0.026081,-0.117428,-0.028322
2216,-0.008979,-0.05963,-0.028322
2217,-0.008979,-0.021098,-0.065715
2218,-0.008979,0.017434,-0.084412
2219,-0.026081,0.055966,-0.084412
2220,0.025223,0.017434,-0.084412
2221,0.025223,0.017434,-0.065715
2222,0.025223,0.017434,-0.047018
2223,0.008122,-0.05963,0.009072
2224,-0.008979,-0.098162,0.046465
2225,-0.008979,-0.098162,0.065162
2226,0.008122,0.0367,0.083859
2227,0.042325,0.055966,0.102556
2228,0.025223,0.017434,0.046465
2229,-0.008979,-0.040364,0.046465
2230,-0.026081,-0.040364,0.009072
2231,-0.026081,0.0367,-0.009625
2232,-0.008979,0.0367,-0.103109
2233,-0.008979,0.055966,-0.028322
2234,0.025223,0.113764,-0.009625
2235,0.008122,0.152296,0.027769
2236,0.008122,0.094498,-0.009625
2237,0.025223,0.13303,-0.009625
2238,0.025223,0.094498,-0.028322
2239,0.008122,-0.021098,-0.028322
2240,0.008122,-0.233024,-0.028322
2241,-0.008979,-0.233024,-0.009625
2242,-0.008979,-0.175226,0.065162
2243,-0.026081,-0.078896,0.102556
2244,-0.008979,0.017434,0.065162
2245,-0.026081,0.075232,0.027769
2246,-0.008979,0.190828,0.027769
2247,0.008122,0.055966,-0.009625
2248,0.042325,-0.271555,-0.065715
2249,0.025223,-0.348619,-0.103109
2250,-0.008979,-0.348619,-0.047018
2251,-0.026081,-0.213758,-0.047018
2252,-0.043182,-0.040364,-0.065715
2253,-0.008979,0.267892,-0.047018
2254,0.042325,0.556882,-0.028322
2255,0.042325,0.595414,0.009072
2256,0.042325,0.32569,0.027769
2257,0.025223,0.113764,0.065162
2258,0.008122,0.0367,0.046465
2259,0.025223,0.017434,0.046465
2260,0.008122,-0.001832,0.009072
2261,0.008122,-0.040364,-0.047018
2262,0.008122,-0.021098,-0.009625
2263,0.008122,-0.001832,0.027769
2264,0.008122,0.055966,-0.009625
2265,0.008122,0.0367,-0.047018
2266,-0.008979,0.0367,0.009072
2267,0.008122,0.055966,-0.028322
2268,0.008122,0.017434,0.027769
2269,0.008122,-0.001832,0.027769
2270,0.008122,-0.001832,0.027769
2271,0.008122,-0.040364,-0.028322
2272,0.008122,-0.040364,0.027769
2273,0.008122,-0.021098,0.009072
2274,0.008122,-0.040364,0.009072
2275,0.008122,-0.021098,-0.009625
2276,0.008122,-0.021098,-0.009625
2277,0.025223,0.017434,-0.028322
2278,0.008122,-0.05963,0.009072
2279,0.008122,-0.021098,0.046465
2280,0.008122,0.017434,0.046465
2281,-0.008979,-0.021098,0.102556
2282,-0.008979,-0.021098,0.121252
2283,0.025223,-0.021098,0.083859
2284,-0.008979,-0.021098,0.065162
2285,0.008122,-0.001832,0.027769
2286,0.025223,-0.021098,-0.065715
2287,0.025223,-0.05963,-0.103109
2288,-0.008979,-0.021098,-0.140502
2289,-0.026081,-0.05963,-0.103109
2290,-0.026081,-0.040364,-0.084412
2291,-0.008979,-0.040364,-0.047018
2292,-0.008979,-0.021098,-0.028322
2293,-0.008979,-0.040364,0.009072
2294,0.008122,0.017434,0.046465
2295,-0.008979,0.055966,0.065162
2296,0.008122,-0.001832,0.065162
2297,0.025223,-0.001832,0.009072
2298,0.008122,-0.040364,0.046465
2299,0.008122,-0.021098,-0.047018
2300,-0.008979,-0.040364,-0.065715
2301,-0.008979,-0.001832,-0.047018
2302,0.008122,-0.021098,-0.028322
2303,0.008122,-0.001832,-0.028322
2304,0.008122,-0.021098,-0.009625
2305,-0.008979,-0.001832,0.027769
2306,0.008122,-0.001832,0.027769
2307,0.008122,-0.001832,0.027769
2308,0.008122,-0.021098,0.046465
2309,0.008122,-0.001832,0.083859
2310,-0.008979,-0.040364,0.102556
2311,0.008122,-0.021098,0.102556
2312,-0.008979,-0.040364,0.009072
2313,-0.008979,-0.001832,0.009072
2314,-0.008979,0.055966,0.027769
2315,0.025223,0.075232,-0.009625
2316,-0.008979,0.0367,-0.121806
2317,-0.008979,-0.021098,-0.121806
2318,-0.008979,-0.078896,-0.084412
2319,0.008122,-0.05963,-0.065715
2320,0.008122,-0.040364,0.027769
2321,0.008122,-0.040364,0.027769
2322,-0.008979,-0.05963,0.009072
2323,-0.026081,-0.021098,-0.009625
2324,-0.008979,0.017434,-0.047018
2325,-0.026081,-0.001832,-0.065715
2326,-0.008979,-0.001832,-0.028322
2327,0.025223,0.0367,-0.028322
2328,0.025223,0.152296,-0.009625
2329,0.008122,0.113764,0.009072
2330,0.008122,0.075232,0.009072
2331,0.008122,0.017434,0.027769
2332,0.025223,0.017434,0.027769
2333,0.008122,-0.040364,0.046465
2334,0.008122,-0.05963,0.046465
2335,0.025223,-0.05963,-0.009625
2336,0.008122,-0.040364,-0.028322
2337,-0.008979,-0.001832,-0.009625
2338,0.008122,0.017434,-0.028322
2339,-0.026081,0.0367,-0.047018
2340,0.008122,0.055966,-0.028322
2341,0.025223,0.0367,0.027769
2342,0.025223,-0.001832,0.009072
2343,0.008122,-0.040364,0.009072
2344,0.008122,0.055966,0.027769
2345,-0.008979,0.0367,0.009072
2346,-0.008979,-0.001832,0.027769
2347,0.008122,-0.040364,0.027769
2348,0.025223,-0.001832,0.009072
2349,0.025223,-0.05963,0.046465
2350,0.025223,-0.078896,0.027769
2351,0.008122,-0.05963,0.046465
2352,0.008122,-0.001832,-0.009625
2353,-0.008979,-0.040364,-0.047018
2354,0.008122,0.0367,0.009072
2355,-0.008979,0.055966,-0.009625
2356,-0.008979,-0.001832,0.027769
2357,-0.008979,-0.040364,0.027769
2358,0.008122,-0.021098,0.009072
2359,-0.008979,-0.05963,0.009072
2360,0.008122,0.055966,0.027769
2361,0.008122,0.0367,-0.028322
2362,0.008122,0.017434,-0.047018
2363,0.008122,0.075232,0.027769
2364,0.008122,0.13303,0.009072
2365,0.008122,0.113764,-0.028322
2366,-0.008979,0.055966,-0.047018
2367,0.008122,0.017434,-0.028322
2368,0.008122,-0.001832,-0.028322
2369,-0.008979,-0.001832,0.027769
2370,-0.008979,-0.040364,0.009072
2371,0.008122,-0.001832,0.009072
2372,0.008122,-0.001832,0.009072
2373,0.008122,-0.021098,-0.028322
2374,0.025223,-0.040364,0.009072
2375,0.008122,-0.021098,0.046465
2376,-0.008979,-0.021098,0.065162
2377,-0.026081,-0.021098,0.046465
2378,0.008122,-0.078896,0.009072
2379,0.008122,-0.117428,-0.047018
2380,0.008122,-0.05963,-0.028322
2381,0.008122,-0.098162,-0.047018
2382,-0.026081,-0.098162,-0.028322
2383,-0.026081,-0.117428,-0.009625
2384,0.008122,-0.175226,-0.009625
2385,-0.008979,-0.05963,-0.028322
2386,-0.008979,0.055966,-0.065715
2387,0.008122,0.094498,-0.084412
2388,0.008122,0.190828,-0.009625
2389,0.025223,0.210094,0.009072
2390,0.008122,0.306424,-0.009625
2391,0.008122,0.248626,0.027769
2392,0.042325,0.055966,0.009072
2393,0.008122,-0.001832,0.065162
2394,0.008122,-0.001832,0.083859
2395,0.008122,-0.021098,0.102556
2396,0.025223,0.017434,0.065162
2397,-0.008979,0.0367,-0.009625
2398,-0.008979,-0.001832,-0.065715
2399,-0.008979,0.055966,-0.065715
2400,0.008122,0.055966,-0.028322
2401,0.008122,0.017434,-0.009625
2402,0.008122,-0.001832,-0.028322
2403,-0.008979,-0.040364,-0.028322
2404,0.008122,-0.021098,-0.047018
2405,0.025223,-0.021098,0.009072
2406,-0.008979,0.017434,-0.028322
2407,-0.008979,-0.001832,-0.047018
2408,-0.008979,-0.040364,-0.009625
2409,-0.008979,-0.040364,0.027769
2410,0.008122,-0.040364,-0.009625
2411,-0.008979,-0.040364,0.027769
2412,-0.008979,-0.05963,0.046465
2413,-0.008979,-0.021098,0.027769
2414,-0.008979,-0.021098,-0.009625
2415,-0.008979,-0.021098,0.046465
2416,-0.008979,0.0367,0.065162
2417,0.008122,0.017434,0.027769
2418,0.008122,-0.040364,0.046465
2419,0.008122,-0.040364,0.027769
2420,-0.026081,-0.040364,-0.028322
2421,-0.008979,-0.05963,-0.065715
2422,0.008122,-0.040364,0.009072
2423,0.008122,-0.040364,0.009072
2424,-0.008979,-0.021098,-0.028322
2425,-0.008979,0.017434,-0.009625
2426,-0.008979,0.017434,-0.009625
2427,0.008122,-0.001832,-0.028322
2428,-0.026081,0.017434,0.009072
2429,0.008122,0.017434,-0.047018
2430,0.008122,-0.001832,-0.009625
2431,-0.008979,0.055966,0.046465
2432,0.008122,0.075232,0.083859
2433,0.008122,0.094498,0.027769
2434,0.008122,0.017434,-0.009625
2435,0.008122,-0.001832,-0.028322
2436,-0.008979,-0.001832,-0.047018
2437,0.008122,0.0367,-0.028322
2438,0.008122,-0.021098,0.009072
2439,-0.008979,-0.098162,0.009072
2440,0.008122,-0.098162,-0.028322
2441,0.008122,-0.05963,-0.047018
2442,-0.008979,-0.040364,0.009072
2443,0.008122,-0.001832,-0.028322
2444,-0.026081,0.017434,-0.047018
2445,-0.008979,0.094498,0.027769
2446,0.008122,0.094498,-0.009625
2447,0.008122,0.0367,-0.028322
2448,0.008122,0.055966,0.009072
2449,-0.008979,0.017434,0.046465
2450,0.025223,0.017434,0.027769
2451,-0.008979,-0.001832,0.046465
2452,0.008122,-0.040364,0.046465
2453,0.008122,-0.021098,0.009072
2454,-0.008979,-0.001832,-0.028322
2455,0.008122,-0.001832,-0.009625
2456,-0.008979,-0.001832,-0.009625
2457,-0.008979,-0.021098,-0.028322
2458,-0.008979,-0.040364,0.009072
2459,-0.008979,-0.021098,0.027769
2460,-0.008979,-0.05963,-0.047018
2461,-0.008979,-0.040364,-0.009625
2462,0.008122,-0.040364,0.009072
2463,0.008122,-0.05963,-0.009625
2464,0.008122,0.0367,0.027769
2465,0.025223,0.0367,0.009072
2466,0.008122,-0.001832,-0.009625
2467,0.008122,0.017434,-0.009625
2468,-0.008979,0.0367,-0.009625
2469,-0.026081,0.0367,-0.028322
2470,0.008122,0.075232,-0.047018
2471,0.008122,0.017434,-0.028322
2472,-0.008979,-0.05963,-0.047018
2473,-0.008979,-0.05963,-0.028322
2474,-0.008979,-0.040364,-0.009625
2475,0.008122,0.017434,0.083859
2476,-0.008979,0.075232,0.046465
2477,0.025223,0.113764,0.083859
2478,0.025223,0.094498,0.083859
2479,0.008122,0.0367,0.046465
2480,0.008122,0.0367,0.027769
2481,0.008122,0.017434,-0.009625
2482,0.008122,0.0367,-0.028322
2483,-0.008979,0.017434,-0.047018
2484,0.008122,0.017434,-0.009625
2485,-0.008979,-0.001832,-0.047018
2486,0.008122,-0.001832,-0.121806
2487,0.008122,-0.001832,-0.047018
2488,0.025223,-0.021098,0.009072
2489,-0.008979,-0.021098,0.009072
2490,0.025223,-0.040364,0.009072
2491,0.008122,-0.040364,0.027769
2492,-0.008979,-0.001832,0.009072
2493,-0.008979,-0.001832,-0.009625
2494,-0.008979,-0.001832,0.046465
2495,0.008122,-0.001832,0.027769
2496,0.008122,-0.001832,-0.028322
2497,0.008122,0.017434,-0.009625
2498,0.008122,-0.021098,-0.009625
2499,0.008122,-0.021098,-0.028322
2500,0.008122,-0.001832,0.027769
2501,-0.008979,-0.021098,0.027769
2502,0.008122,-0.021098,0.009072
2503,0.008122,-0.021098,0.009072
2504,0.008122,-0.001832,0.027769
2505,0.008122,-0.040364,0.009072
2506,0.008122,-0.05963,-0.009625
2507,0.008122,-0.098162,0.009072
2508,-0.008979,-0.05963,0.027769
2509,-0.008979,-0.021098,0.046465
2510,-0.008979,-0.05963,0.027769
2511,-0.008979,-0.040364,0.027769
2512,0.008122,-0.021098,-0.028322
2513,-0.026081,0.017434,-0.047018
2514,-0.008979,-0.05963,-0.009625
2515,-0.008979,-0.021098,0.046465
2516,0.008122,-0.001832,0.027769
2517,0.008122,0.055966,0.009072
2518,0.008122,0.075232,-0.103109
2519,-0.008979,0.113764,-0.084412
2520,0.008122,0.075232,-0.028322
2521,0.008122,0.075232,-0.028322
2522,-0.008979,-0.001832,-0.065715
2523,0.008122,-0.05963,-0.047018
2524,-0.008979,-0.021098,0.009072
2525,0.008122,-0.040364,-0.028322
2526,-0.008979,0.017434,-0.009625
2527,0.008122,0.075232,0.009072
2528,0.025223,0.13303,0.027769
2529,0.042325,0.190828,0.027769
2530,0.025223,0.094498,0.046465
2531,0.008122,0.0367,0.027769
2532,0.008122,-0.021098,-0.009625
2533,0.025223,-0.040364,-0.028322
2534,0.008122,-0.021098,-0.028322
2535,0.008122,-0.001832,0.027769
2536,0.025223,-0.001832,0.027769
2537,0.008122,0.017434,0.065162
2538,0.042325,-0.001832,0.027769
2539,0.008122,0.017434,0.009072
2540,0.008122,-0.001832,-0.009625
2541,-0.008979,-0.040364,-0.047018
2542,-0.026081,-0.098162,-0.028322
2543,0.008122,-0.078896,0.027769
2544,0.008122,-0.040364,0.027769
2545,0.008122,-0.021098,0.027769
2546,-0.026081,-0.05963,-0.009625
2547,-0.026081,-0.001832,0.009072
2548,0.008122,0.075232,-0.009625
2549,0.042325,0.075232,-0.028322
2550,0.008122,-0.001832,0.009072
2551,0.008122,-0.021098,-0.009625
2552,0.025223,-0.021098,-0.009625
2553,0.025223,-0.001832,-0.009625
2554,0.025223,0.017434,0.009072
2555,0.025223,0.113764,-0.009625
2556,0.025223,0.113764,0.046465
2557,0.008122,0.13303,-0.009625
2558,-0.008979,0.0367,-0.009625
2559,-0.008979,0.0367,-0.047018
2560,0.008122,0.094498,-0.028322
2561,0.008122,0.0367,-0.009625
2562,0.008122,0.017434,0.009072
2563,0.008122,-0.001832,0.046465
2564,0.008122,-0.001832,0.046465
2565,-0.026081,-0.001832,0.009072
2566,-0.008979,-0.001832,0.065162
2567,0.008122,-0.040364,0.009072
2568,-0.008979,-0.021098,-0.009625
2569,-0.008979,-0.05963,-0.028322
2570,-0.008979,-0.021098,-0.028322
2571,-0.008979,-0.021098,-0.009625
2572,-0.008979,-0.021098,-0.047018
2573,0.008122,-0.021098,0.009072
2574,0.025223,-0.001832,0.009072
2575,0.008122,-0.001832,-0.028322
2576,-0.008979,-0.05963,-0.009625
2577,-0.026081,-0.021098,0.027769
2578,-0.026081,-0.098162,0.009072
2579,-0.008979,-0.078896,0.009072
2580,-0.008979,-0.098162,0.009072
2581,-0.026081,-0.05963,-0.009625
2582,-0.008979,-0.021098,0.046465
2583,0.008122,0.017434,0.027769
2584,-0.008979,0.075232,0.027769
2585,0.008122,0.13303,0.027769
2586,0.008122,0.0367,0.009072
2587,0.008122,-0.021098,-0.009625
2588,0.008122,-0.040364,-0.009625
2589,0.008122,0.017434,-0.028322
2590,0.008122,0.0367,-0.084412
2591,-0.026081,0.0367,-0.028322
2592,0.008122,0.055966,0.046465
2593,0.008122,0.075232,0.027769
2594,0.008122,0.055966,-0.047018
2595,0.025223,-0.001832,-0.028322
2596,-0.008979,-0.001832,0.046465
2597,0.008122,0.0367,0.027769
2598,0.008122,-0.021098,-0.009625
2599,0.008122,-0.001832,0.027769
2600,-0.008979,-0.040364,-0.009625
2601,0.025223,0.017434,-0.009625
2602,0.008122,-0.021098,-0.065715
2603,-0.008979,-0.001832,0.009072
2604,0.008122,-0.001832,0.009072
2605,0.008122,-0.021098,-0.009625
2606,0.008122,0.017434,0.009072
2607,0.008122,0.017434,0.009072
2608,-0.026081,-0.001832,0.009072
2609,0.008122,-0.001832,0.009072
2610,0.008122,-0.040364,-0.009625
2611,-0.008979,-0.098162,-0.028322
2612,-0.026081,-0.078896,0.009072
2613,-0.008979,-0.117428,-0.009625
2614,-0.008979,-0.098162,-0.009625
2615,-0.026081,-0.05963,0.027769
2616,-0.008979,-0.040364,0.046465
2617,-0.026081,-0.021098,-0.009625
2618,0.008122,0.055966,0.009072
2619,0.008122,0.113764,0.027769
2620,0.008122,0.075232,-0.028322
2621,-0.008979,0.055966,-0.047018
2622,-0.026081,-0.021098,0.009072
2623,-0.008979,0.055966,0.009072
2624,0.008122,0.017434,-0.009625
2625,0.025223,-0.001832,-0.009625
2626,0.008122,0.075232,0.009072
2627,0.025223,0.055966,-0.028322
2628,0.008122,0.017434,0.027769
2629,0.008122,0.055966,0.046465
2630,0.008122,0.017434,0.009072
2631,0.008122,-0.001832,0.027769
2632,-0.008979,-0.021098,0.046465
2633,-0.008979,-0.040364,0.009072
2634,-0.008979,-0.021098,-0.028322
2635,0.008122,-0.001832,-0.009625
2636,0.008122,-0.001832,0.009072
2637,0.008122,0.017434,0.009072
2638,0.008122,0.017434,0.046465
2639,0.008122,-0.05963,-0.009625
2640,0.025223,-0.194492,-0.028322
2641,-0.008979,-0.271555,-0.009625
2642,-0.060283,-0.194492,0.009072
2643,-0.026081,-0.117428,0.009072
2644,0.008122,0.075232,0.009072
2645,0.008122,0.152296,-0.028322
2646,0.025223,0.210094,-0.028322
2647,0.025223,0.287158,-0.047018
2648,0.025223,0.22936,-0.009625
2649,0.008122,0.075232,-0.028322
2650,0.008122,0.094498,-0.028322
2651,0.008122,0.055966,-0.009625
2652,0.008122,0.017434,0.027769
2653,0.008122,-0.001832,0.009072
2654,0.008122,0.017434,0.027769
2655,0.008122,0.017434,0.065162
2656,0.008122,-0.021098,0.121252
2657,-0.008979,-0.040364,0.139949
2658,-0.026081,-0.040364,0.158646
2659,-0.008979,-0.021098,0.102556
2660,0.008122,-0.040364,0.027769
2661,-0.008979,0.0367,-0.084412
2662,-0.008979,0.055966,-0.121806
2663,0.008122,0.0367,-0.159199
2664,-0.008979,-0.001832,-0.121806
2665,-0.008979,-0.021098,-0.028322
2666,-0.008979,-0.021098,-0.028322
2667,-0.008979,-0.021098,0.009072
2668,-0.008979,-0.040364,0.027769
2669,-0.008979,-0.021098,-0.009625
2670,0.025223,-0.001832,-0.028322
2671,0.008122,-0.001832,0.009072
2672,-0.008979,-0.001832,0.009072
2673,-0.008979,-0.001832,0.009072
2674,0.008122,-0.021098,0.009072
2675,-0.008979,-0.001832,0.009072
2676,0.008122,-0.040364,-0.009625
2677,-0.008979,-0.001832,0.009072
2678,-0.008979,-0.001832,0.009072
2679,-0.008979,-0.001832,0.009072
2680,-0.008979,-0.021098,0.009072
2681,0.008122,-0.001832,0.027769
2682,-0.008979,0.017434,0.027769
2683,-0.008979,-0.001832,0.009072
2684,0.008122,-0.001832,-0.009625
2685,0.008122,-0.040364,-0.009625
2686,0.008122,-0.001832,-0.047018
2687,0.008122,-0.001832,-0.028322
2688,-0.008979,-0.001832,-0.009625
2689,0.008122,-0.021098,-0.009625
2690,0.008122,-0.021098,-0.009625
2691,0.008122,-0.001832,0.009072
2692,0.008122,-0.001832,-0.028322
2693,0.008122,-0.001832,0.027769
2694,-0.008979,-0.001832,0.027769
2695,-0.008979,-0.001832,0.027769
2696,0.025223,0.017434,-0.009625
2697,-0.008979,0.017434,0.009072
2698,0.008122,-0.001832,0.009072
2699,0.008122,-0.021098,-0.028322
2700,-0.008979,-0.021098,-0.084412
2701,-0.026081,-0.040364,-0.047018
2702,0.008122,-0.117428,-0.047018
2703,-0.008979,-0.078896,-0.028322
2704,-0.008979,-0.078896,0.027769
2705,0.008122,0.017434,-0.028322
2706,-0.008979,0.0367,0.027769
2707,-0.008979,-0.001832,0.046465
2708,-0.008979,-0.05963,0.065162
2709,0.025223,-0.001832,0.083859
2710,0.008122,-0.001832,0.065162
2711,0.025223,-0.040364,0.046465
2712,0.025223,-0.05963,0.046465
2713,0.008122,-0.021098,0.027769
2714,-0.008979,0.055966,-0.009625
2715,-0.008979,0.094498,-0.028322
2716,0.008122,0.017434,-0.028322
2717,0.025223,0.0367,-0.065715
2718,0.025223,0.0367,-0.009625
2719,-0.008979,0.055966,-0.084412
2720,-0.008979,0.055966,-0.009625
2721,0.025223,0.075232,-0.009625
2722,-0.008979,0.017434,-0.047018
2723,0.008122,0.017434,-0.009625
2724,0.008122,0.094498,0.009072
2725,0.042325,0.113764,0.009072
2726,-0.008979,0.0367,0.009072
2727,-0.008979,-0.05963,-0.009625
2728,-0.008979,-0.001832,-0.009625
2729,-0.008979,0.0367,-0.047018
2730,0.025223,0.094498,-0.028322
2731,0.025223,0.113764,0.027769
2732,0.008122,0.094498,0.009072
2733,0.008122,0.0367,0.027769
2734,0.008122,-0.021098,0.046465
2735,0.008122,-0.001832,0.009072
2736,-0.008979,-0.021098,0.027769
2737,0.008122,-0.001832,-0.028322
2738,-0.008979,0.017434,-0.028322
2739,0.008122,0.0367,-0.028322
2740,0.008122,-0.021098,0.009072
2741,-0.008979,-0.040364,-0.009625
2742,-0.008979,-0.021098,-0.009625
2743,0.008122,-0.001832,0.027769
2744,-0.008979,-0.001832,0.046465
2745,0.008122,-0.001832,0.009072
2746,-0.008979,-0.021098,0.027769
2747,0.008122,-0.001832,0.046465
2748,0.008122,-0.021098,0.009072
2749,0.008122,-0.021098,0.046465
2750,0.008122,0.017434,0.009072
2751,-0.008979,-0.040364,-0.009625
2752,0.025223,0.017434,-0.009625
2753,0.008122,-0.021098,0.009072
2754,0.008122,-0.001832,-0.028322
2755,-0.026081,-0.001832,-0.028322
2756,-0.008979,-0.001832,-0.009625
2757,-0.008979,-0.021098,0.009072
2758,0.025223,-0.001832,0.009072
2759,0.008122,0.017434,0.046465
2760,0.008122,-0.021098,0.083859
2761,-0.008979,0.017434,0.009072
2762,-0.008979,-0.001832,-0.028322
2763,0.008122,-0.001832,-0.009625
2764,0.008122,0.017434,0.009072
2765,0.008122,-0.001832,-0.009625
2766,0.008122,-0.001832,0.027769
2767,0.008122,-0.001832,0.027769
2768,0.008122,-0.021098,0.027769
2769,0.025223,-0.021098,0.027769
2770,-0.008979,-0.001832,0.009072
2771,-0.026081,-0.001832,-0.028322
2772,-0.008979,0.017434,-0.065715
2773,-0.008979,0.017434,0.009072
2774,0.008122,0.055966,0.027769
2775,0.008122,0.017434,0.009072
2776,-0.008979,0.0367,0.065162
2777,0.008122,0.017434,0.046465
2778,0.025223,0.0367,-0.009625
2779,0.008122,-0.001832,-0.140502
2780,0.008122,-0.021098,-0.084412
2781,-0.008979,-0.040364,-0.047018
2782,0.008122,-0.021098,-0.009625
2783,-0.008979,-0.05963,0.009072
2784,0.008122,-0.021098,0.065162
2785,-0.008979,0.017434,0.027769
2786,0.008122,-0.001832,0.009072
2787,0.025223,-0.040364,0.009072
2788,-0.008979,-0.040364,0.009072
2789,-0.008979,-0.040364,0.065162
2790,-0.008979,-0.05963,0.027769
2791,-0.026081,-0.021098,-0.047018
2792,-0.008979,-0.040364,-0.065715
2793,-0.008979,0.017434,-0.009625
2794,0.008122,0.094498,-0.009625
2795,0.008122,0.113764,0.046465
2796,0.008122,0.113764,0.065162
2797,0.025223,0.075232,0.083859
2798,0.008122,0.055966,0.046465
2799,0.008122,-0.001832,0.027769
2800,0.008122,-0.021098,0.027769
2801,-0.008979,-0.001832,-0.065715
2802,-0.008979,-0.021098,-0.084412
2803,-0.043182,-0.040364,-0.084412
2804,-0.008979,-0.001832,-0.084412
2805,0.008122,0.055966,-0.084412
2806,0.025223,-0.021098,-0.047018
2807,0.008122,-0.117428,-0.028322
2808,0.008122,-0.15596,-0.028322
2809,0.008122,-0.15596,0.046465
2810,-0.008979,-0.136694,0.046465
2811,-0.043182,-0.098162,0.027769
2812,-0.008979,0.017434,0.027769
2813,-0.008979,0.190828,0.027769
2814,0.008122,0.248626,0.027769
2815,0.025223,0.190828,0.046465
2816,-0.008979,0.075232,0.009072
2817,0.025223,0.075232,-0.009625
2818,0.008122,0.075232,-0.028322
2819,0.008122,0.094498,0.009072
2820,0.025223,0.094498,0.009072
2821,-0.008979,0.055966,-0.009625
2822,-0.008979,0.017434,0.027769
2823,0.008122,-0.001832,0.046465
2824,-0.008979,-0.001832,-0.028322
2825,0.008122,0.017434,-0.009625
2826,-0.008979,-0.001832,0.009072
2827,0.025223,-0.040364,0.046465
2828,0.008122,-0.001832,0.009072
2829,0.008122,-0.021098,0.009072
2830,-0.026081,-0.040364,-0.009625
2831,-0.008979,-0.021098,-0.028322
2832,-0.008979,-0.021098,0.009072
2833,0.008122,-0.001832,-0.009625
2834,0.008122,0.017434,-0.009625
2835,-0.008979,0.0367,0.027769
2836,0.008122,-0.040364,0.027769
2837,0.008122,-0.021098,0.027769
2838,0.008122,-0.040364,0.027769
2839,-0.008979,-0.021098,0.009072
2840,0.008122,-0.001832,-0.065715
2841,-0.008979,-0.001832,-0.103109
2842,0.008122,0.017434,-0.009625
2843,0.008122,-0.021098,0.009072
2844,-0.008979,-0.021098,-0.009625
2845,-0.008979,-0.040364,0.009072
2846,-0.008979,-0.021098,-0.009625
2847,-0.008979,-0.021098,0.009072
2848,0.008122,-0.021098,0.083859
2849,-0.008979,-0.001832,0.065162
2850,0.008122,0.017434,0.046465
2851,0.008122,0.0367,-0.009625
2852,0.008122,0.0367,-0.009625
2853,-0.008979,-0.001832,-0.065715
2854,-0.008979,-0.001832,-0.103109
2855,0.008122,-0.021098,-0.028322
2856,0.025223,-0.021098,-0.028322
2857,-0.008979,0.0367,-0.028322
2858,0.025223,0.0367,-0.028322
2859,0.008122,-0.001832,-0.028322
2860,0.008122,-0.021098,-0.028322
2861,0.008122,0.017434,-0.009625
2862,-0.008979,-0.001832,0.009072
2863,-0.008979,-0.040364,0.046465
2864,-0.008979,-0.098162,0.009072
2865,-0.026081,-0.15596,-0.009625
2866,-0.008979,-0.098162,0.009072
2867,-0.008979,-0.078896,-0.009625
2868,0.008122,0.017434,0.065162
2869,-0.008979,0.075232,0.027769
2870,-0.008979,0.075232,0.027769
2871,0.025223,0.113764,-0.009625
2872,0.025223,0.075232,0.027769
2873,0.008122,0.0367,0.027769
2874,-0.008979,0.055966,0.065162
2875,0.025223,0.055966,0.065162
2876,0.008122,0.055966,0.083859
2877,0.025223,0.055966,-0.065715
2878,0.008122,-0.001832,-0.047018
2879,0.008122,-0.078896,-0.047018
2880,-0.026081,-0.15596,-0.028322
2881,0.008122,-0.136694,0.027769
2882,0.008122,-0.117428,-0.009625
2883,-0.060283,-0.078896,-0.084412
2884,-0.043182,-0.05963,-0.065715
2885,-0.008979,0.075232,0.009072
2886,0.025223,0.171562,0.027769
2887,0.042325,0.094498,0.046465
2888,0.042325,0.055966,0.009072
2889,0.008122,0.0367,0.027769
2890,0.025223,0.055966,0.009072
2891,0.008122,0.075232,-0.009625
2892,-0.008979,0.075232,-0.065715
2893,-0.008979,0.075232,0.009072
2894,0.025223,0.113764,-0.028322
2895,0.008122,0.075232,0.009072
2896,0.008122,0.0367,-0.009625
2897,0.008122,-0.001832,-0.028322
2898,-0.008979,-0.021098,0.027769
2899,0.008122,-0.001832,-0.009625
2900,0.025223,-0.021098,-0.028322
2901,0.008122,-0.040364,0.027769
2902,-0.008979,-0.040364,0.046465
2903,-0.008979,-0.040364,0.009072
2904,0.008122,-0.021098,0.027769
2905,-0.008979,-0.001832,0.027769
2906,0.008122,-0.001832,-0.009625
2907,0.008122,-0.021098,-0.009625
2908,0.008122,0.017434,0.027769
2909,0.008122,-0.001832,0.009072
2910,-0.008979,-0.001832,0.009072
2911,0.008122,-0.001832,0.046465
2912,-0.008979,-0.001832,0.009072
2913,-0.008979,0.0367,0.009072
2914,-0.008979,0.0367,-0.009625
2915,0.008122,0.017434,0.009072
2916,0.008122,0.017434,-0.065715
2917,0.008122,0.017434,-0.047018
2918,0.008122,0.0367,0.009072
2919,0.008122,-0.021098,-0.028322
2920,-0.008979,0.017434,-0.047018
2921,0.008122,-0.001832,0.009072
2922,0.025223,-0.001832,0.027769
2923,0.008122,0.017434,0.009072
2924,0.008122,-0.021098,0.027769
2925,-0.008979,-0.021098,-0.009625
2926,-0.008979,-0.001832,-0.009625
2927,-0.008979,-0.001832,-0.009625
2928,-0.008979,0.017434,0.027769
2929,0.008122,-0.021098,0.009072
2930,0.008122,0.017434,0.046465
2931,0.008122,-0.021098,0.065162
2932,-0.008979,-0.040364,0.009072
2933,0.008122,-0.001832,-0.009625
2934,0.008122,-0.040364,-0.047018
2935,0.025223,-0.001832,-0.047018
2936,0.008122,-0.001832,-0.047018
2937,0.025223,0.017434,0.009072
2938,0.025223,0.017434,0.009072
2939,0.008122,0.017434,-0.028322
2940,-0.008979,-0.001832,-0.009625
2941,-0.008979,-0.021098,0.102556
2942,0.008122,-0.001832,0.083859
2943,-0.008979,-0.021098,0.046465
2944,-0.008979,-0.001832,0.046465
2945,-0.008979,-0.021098,0.027769
2946,-0.026081,-0.001832,-0.009625
2947,-0.008979,-0.021098,-0.103109
2948,0.025223,-0.001832,-0.084412
2949,0.008122,-0.001832,-0.028322
2950,-0.008979,0.017434,0.009072
2951,0.008122,0.017434,0.009072
2952,-0.008979,0.0367,-0.028322
2953,0.008122,-0.001832,-0.028322
2954,0.008122,0.017434,-0.028322
2955,-0.008979,-0.001832,0.046465
2956,0.008122,-0.021098,0.009072
2957,-0.008979,-0.001832,0.046465
2958,-0.008979,-0.021098,0.027769
2959,-0.008979,-0.021098,-0.009625
2960,-0.026081,-0.05963,-0.028322
2961,-0.008979,-0.021098,-0.028322
2962,0.008122,0.017434,0.009072
2963,-0.008979,0.055966,0.009072
2964,-0.026081,-0.001832,-0.028322
2965,0.008122,0.017434,-0.047018
2966,0.025223,-0.021098,-0.028322
2967,0.008122,-0.001832,-0.009625
2968,-0.008979,-0.05963,0.009072
2969,-0.008979,-0.078896,0.027769
2970,-0.026081,-0.05963,0.046465
2971,-0.008979,-0.021098,0.009072
2972,0.008122,-0.001832,0.009072
2973,0.025223,-0.05963,0.009072
2974,0.008122,-0.001832,0.009072
2975,0.025223,0.0367,-0.009625
2976,0.008122,-0.040364,-0.028322
2977,-0.008979,-0.078896,0.009072
2978,-0.008979,-0.05963,-0.009625
2979,-0.026081,-0.021098,0.027769
2980,-0.026081,0.0367,0.065162
2981,-0.008979,0.075232,0.046465
2982,-0.008979,0.017434,0.009072
2983,0.008122,0.094498,0.009072
2984,0.008122,0.152296,-0.065715
2985,0.042325,0.113764,-0.047018
2986,0.025223,0.075232,-0.028322
2987,0.008122,0.017434,-0.009625
2988,0.008122,0.0367,-0.009625
2989,-0.008979,0.0367,0.009072
2990,0.008122,0.055966,0.027769
2991,0.025223,0.0367,-0.009625
2992,-0.008979,-0.021098,-0.009625
2993,-0.008979,-0.05963,0.046465
2994,0.008122,-0.040364,0.009072
2995,-0.008979,-0.040364,0.009072
2996,0.008122,-0.001832,0.009072
2997,0.008122,-0.001832,-0.009625
2998,0.008122,0.055966,0.027769
2999,0.025223,0.094498,0.027769
3000,0.025223,0.017434,0.027769
3001,0.025223,-0.040364,0.009072
3002,-0.008979,-0.078896,-0.047018
3003,0.008122,-0.040364,0.009072
3004,-0.008979,-0.040364,-0.065715
3005,0.008122,-0.001832,0.009072
3006,0.008122,0.017434,0.046465
3007,0.008122,0.017434,0.027769
3008,-0.008979,0.0367,-0.009625
3009,-0.008979,-0.001832,-0.065715
3010,0.008122,-0.001832,0.009072
3011,-0.008979,-0.021098,0.027769
3012,0.008122,-0.021098,0.027769
3013,-0.008979,-0.021098,0.046465
3014,-0.008979,-0.021098,0.009072
3015,-0.026081,-0.001832,-0.009625
3016,0.008122,0.017434,-0.047018
3017,0.008122,0.055966,-0.084412
3018,0.008122,0.055966,-0.047018
3019,0.008122,0.0367,-0.009625
3020,0.025223,0.0367,0.009072
3021,0.008122,0.017434,-0.009625
3022,0.025223,-0.001832,0.027769
3023,-0.008979,0.017434,0.009072
3024,0.008122,-0.001832,0.009072
3025,-0.008979,0.017434,-0.009625
3026,0.008122,-0.001832,-0.009625
3027,-0.008979,-0.040364,-0.028322
3028,-0.008979,-0.040364,-0.009625
3029,-0.026081,-0.040364,0.027769
3030,-0.008979,-0.05963,0.009072
3031,-0.008979,-0.040364,0.009072
3032,-0.008979,-0.021098,0.046465
3033,0.008122,-0.001832,0.046465
3034,0.025223,0.017434,0.009072
3035,0.008122,0.0367,-0.009625
3036,0.025223,-0.001832,-0.028322
3037,-0.008979,0.055966,-0.065715
3038,-0.008979,0.017434,-0.065715
3039,0.008122,0.017434,-0.009625
3040,0.025223,0.0367,0.027769
3041,0.008122,0.0367,0.027769
3042,0.025223,0.0367,0.046465
3043,0.008122,0.017434,0.046465
3044,-0.008979,0.017434,0.046465
3045,-0.008979,0.0367,0.027769
3046,0.008122,0.017434,-0.009625
3047,0.008122,-0.001832,-0.084412
3048,0.008122,0.017434,-0.047018
3049,0.008122,-0.001832,-0.028322
3050,0.008122,-0.021098,0.009072
3051,-0.008979,-0.040364,-0.028322
3052,0.025223,-0.040364,-0.009625
3053,0.008122,-0.05963,-0.009625
3054,-0.008979,-0.078896,0.009072
3055,-0.008979,-0.117428,-0.009625
3056,-0.008979,-0.078896,0.027769
3057,0.008122,-0.001832,0.027769
3058,0.025223,0.075232,0.065162
3059,0.025223,0.152296,0.065162
3060,0.008122,0.13303,0.065162
3061,-0.008979,0.075232,0.065162
3062,0.008122,0.0367,0.009072
3063,0.008122,0.017434,-0.103109
3064,0.008122,0.0367,-0.065715
3065,0.008122,-0.021098,-0.047018
3066,-0.008979,-0.040364,-0.009625
3067,0.008122,-0.040364,-0.009625
3068,0.008122,-0.05963,0.009072
3069,-0.026081,-0.021098,0.027769
3070,0.008122,-0.078896,0.027769
3071,0.008122,-0.040364,0.083859
3072,0.025223,-0.040364,0.083859
3073,-0.008979,-0.021098,0.027769
3074,-0.008979,-0.021098,0.083859
3075,-0.026081,-0.021098,0.027769
3076,-0.026081,-0.040364,-0.009625
3077,0.008122,0.0367,-0.028322
3078,0.025223,0.075232,-0.047018
3079,-0.008979,0.017434,-0.084412
3080,0.008122,0.055966,-0.028322
3081,0.008122,0.075232,-0.028322
3082,0.008122,0.094498,0.009072
3083,0.008122,0.113764,-0.028322
3084,0.008122,0.055966,-0.009625
3085,0.025223,-0.001832,0.009072
3086,0.008122,-0.001832,0.009072
3087,0.008122,-0.021098,-0.009625
3088,-0.008979,-0.021098,-0.047018
3089,-0.008979,-0.040364,-0.009625
3090,-0.026081,-0.021098,-0.028322
3091,0.008122,0.017434,0.009072
3092,0.008122,-0.001832,-0.028322
3093,0.008122,-0.021098,0.027769
3094,0.008122,-0.040364,0.027769
3095,0.008122,-0.040364,0.046465
3096,-0.008979,-0.040364,0.009072
3097,-0.008979,-0.001832,0.027769
3098,-0.008979,-0.001832,0.027769
3099,-0.043182,0.0367,-0.009625
3100,0.008122,0.017434,-0.009625
3101,0.025223,-0.021098,0.009072
3102,0.008122,0.017434,-0.009625
3103,0.025223,0.0367,-0.028322
3104,0.025223,0.055966,0.009072
3105,0.025223,0.075232,-0.009625
3106,0.008122,0.0367,0.009072
3107,0.008122,0.017434,0.046465
3108,0.008122,-0.001832,0.065162
3109,0.008122,0.0367,0.065162
3110,-0.008979,0.0367,0.046465
3111,0.008122,-0.001832,0.046465
3112,-0.008979,-0.021098,0.027769
3113,-0.008979,-0.001832,-0.009625
3114,0.008122,0.017434,-0.028322
3115,-0.008979,0.017434,-0.084412
3116,0.008122,-0.021098,-0.084412
3117,0.008122,-0.001832,-0.047018
3118,0.008122,-0.05963,-0.047018
3119,0.008122,-0.040364,-0.009625
3120,0.008122,-0.040364,-0.009625
3121,0.008122,-0.078896,0.009072
3122,-0.008979,-0.117428,-0.009625
3123,-0.008979,-0.117428,0.027769
3124,0.008122,-0.05963,0.027769
3125,-0.008979,-0.001832,0.009072
3126,-0.008979,0.055966,-0.009625
3127,-0.008979,0.113764,0.027769
3128,0.008122,0.13303,0.009072
3129,0.008122,0.055966,-0.028322
3130,-0.008979,0.0367,-0.009625
3131,0.008122,-0.001832,-0.009625
3132,0.025223,0.017434,0.009072
3133,0.008122,-0.001832,0.009072
3134,0.008122,0.017434,0.009072
3135,0.025223,-0.001832,-0.009625
3136,-0.008979,-0.021098,0.009072
3137,0.008122,-0.001832,0.027769
3138,0.008122,-0.001832,-0.009625
3139,0.025223,-0.001832,0.009072
3140,-0.008979,0.017434,0.027769
3141,0.008122,0.0367,0.009072
3142,-0.008979,0.0367,0.046465
3143,-0.008979,-0.001832,0.046465
3144,-0.008979,-0.021098,0.046465
3145,-0.008979,0.017434,-0.009625
3146,-0.008979,-0.040364,0.009072
3147,-0.008979,-0.001832,-0.047018
3148,-0.008979,-0.001832,-0.009625
3149,-0.008979,-0.001832,0.009072
3150,-0.008979,-0.021098,0.009072
3151,-0.008979,-0.001832,-0.009625
3152,0.008122,-0.001832,-0.028322
3153,0.008122,-0.001832,-0.028322
3154,0.008122,-0.040364,-0.047018
3155,-0.008979,-0.098162,-0.047018
3156,-0.008979,-0.078896,-0.028322
3157,-0.026081,-0.078896,0.009072
3158,-0.008979,-0.040364,0.009072
3159,0.008122,0.017434,0.027769
3160,0.008122,0.0367,-0.009625
3161,0.008122,0.0367,-0.009625
3162,0.008122,0.017434,0.027769
3163,0.008122,0.0367,0.065162
3164,0.008122,0.0367,0.046465
3165,0.042325,-0.001832,0.009072
3166,0.008122,-0.001832,0.009072
3167,0.008122,0.017434,0.009072
3168,-0.026081,0.0367,-0.065715
3169,0.008122,0.0367,-0.084412
3170,0.025223,0.0367,-0.065715
3171,0.025223,0.017434,-0.065715
3172,0.025223,0.0367,0.009072
3173,0.008122,0.055966,0.046465
3174,-0.008979,0.017434,0.009072
3175,-0.008979,-0.001832,0.009072
3176,-0.026081,0.017434,0.027769
3177,-0.026081,0.017434,0.027769
3178,-0.008979,-0.021098,-0.028322
3179,-0.008979,-0.05963,-0.028322
3180,0.008122,-0.05963,-0.009625
3181,0.008122,-0.040364,-0.028322
3182,-0.008979,-0.021098,-0.009625
3183,-0.008979,-0.040364,0.009072
3184,-0.008979,-0.05963,0.009072
3185,0.025223,0.017434,0.009072
3186,-0.008979,0.055966,0.046465
3187,0.008122,0.0367,0.046465
3188,-0.008979,0.0367,0.009072
3189,-0.008979,0.055966,0.027769
3190,0.025223,0.13303,0.009072
3191,0.025223,0.094498,-0.009625
3192,0.025223,0.075232,-0.028322
3193,-0.008979,0.0367,-0.009625
3194,0.008122,-0.001832,-0.047018
3195,0.008122,0.017434,-0.009625
3196,-0.008979,0.017434,0.009072
3197,0.008122,-0.001832,-0.009625
3198,0.008122,-0.001832,0.027769
3199,-0.008979,-0.040364,0.027769
3200,0.008122,-0.040364,0.009072
3201,-0.008979,-0.001832,-0.047018
3202,-0.008979,-0.021098,-0.009625
3203,-0.008979,-0.078896,-0.009625
3204,0.008122,-0.05963,-0.009625
3205,0.008122,-0.040364,-0.009625
3206,0.008122,-0.021098,0.009072
3207,-0.008979,-0.021098,-0.047018
3208,-0.008979,-0.001832,-0.009625
3209,-0.008979,0.0367,0.027769
3210,0.008122,0.0367,0.009072
3211,-0.008979,0.055966,-0.009625
3212,-0.008979,0.017434,0.027769
3213,0.008122,0.017434,0.009072
3214,0.025223,-0.021098,0.009072
3215,-0.008979,-0.05963,0.009072
3216,-0.008979,-0.078896,0.027769
3217,0.008122,-0.05963,0.009072
3218,0.008122,-0.040364,0.009072
3219,-0.008979,-0.021098,0.027769
3220,0.008122,-0.001832,-0.065715
3221,-0.008979,0.0367,-0.009625
3222,0.008122,0.152296,-0.028322
3223,0.008122,0.094498,-0.009625
3224,0.008122,0.055966,0.009072
3225,-0.026081,0.017434,0.027769
3226,-0.008979,-0.001832,0.046465
3227,-0.008979,0.017434,0.027769
3228,-0.008979,-0.040364,-0.009625
3229,-0.008979,-0.021098,-0.047018
3230,0.008122,-0.001832,-0.047018
3231,0.008122,-0.05963,-0.065715
3232,-0.008979,-0.078896,0.009072
3233,-0.008979,-0.098162,0.009072
3234,0.008122,-0.040364,0.027769
3235,0.008122,-0.021098,0.065162
3236,0.008122,-0.021098,0.065162
3237,0.025223,0.0367,-0.009625
3238,-0.008979,0.075232,-0.028322
3239,-0.008979,0.075232,-0.009625
3240,0.008122,-0.001832,-0.028322
3241,0.025223,-0.021098,0.009072
3242,0.008122,-0.001832,0.009072
3243,0.008122,0.017434,-0.009625
3244,-0.026081,0.017434,-0.009625
3245,-0.008979,-0.040364,0.009072
3246,-0.008979,-0.021098,0.009072
3247,0.008122,0.017434,0.027769
3248,-0.008979,-0.001832,0.027769
3249,0.008122,-0.021098,0.027769
3250,-0.008979,-0.021098,-0.009625
3251,-0.008979,0.0367,-0.009625
3252,0.025223,0.094498,-0.009625
3253,0.025223,0.094498,-0.009625
3254,0.008122,0.055966,-0.047018
3255,0.025223,0.055966,-0.009625
3256,0.025223,0.094498,-0.009625
3257,-0.008979,0.017434,-0.028322
3258,0.008122,0.0367,-0.009625
3259,0.008122,0.017434,-0.028322
3260,0.008122,0.017434,-0.009625
3261,0.008122,-0.001832,0.027769
3262,0.008122,-0.021098,0.027769
3263,-0.008979,-0.021098,0.046465
3264,-0.008979,-0.05963,0.009072
3265,-0.008979,-0.098162,0.009072
3266,-0.008979,-0.117428,-0.028322
3267,-0.008979,-0.078896,-0.047018
3268,-0.026081,-0.05963,0.009072
3269,-0.008979,-0.021098,0.009072
3270,-0.008979,0.094498,0.009072
3271,0.008122,0.113764,0.009072
3272,0.025223,0.094498,0.009072
3273,0.025223,0.113764,0.009072
3274,0.025223,0.075232,-0.009625
3275,0.008122,0.0367,-0.009625
3276,-0.008979,0.017434,0.009072
3277,0.008122,-0.001832,0.046465
3278,-0.008979,0.017434,0.027769
3279,0.008122,-0.021098,0.027769
3280,-0.026081,-0.05963,0.009072
3281,-0.008979,-0.098162,0.027769
3282,-0.008979,-0.05963,0.046465
3283,0.008122,-0.021098,0.046465
3284,-0.008979,-0.05963,0.046465
3285,-0.026081,-0.040364,-0.028322
3286,-0.026081,0.017434,-0.047018
3287,0.025223,0.075232,-0.065715
3288,0.025223,0.113764,-0.009625
3289,0.008122,0.075232,-0.028322
3290,0.025223,0.075232,0.027769
3291,0.025223,0.055966,0.009072
3292,0.008122,0.0367,-0.009625
3293,0.008122,0.0367,-0.028322
3294,0.008122,-0.001832,-0.047018
3295,-0.008979,-0.021098,-0.047018
3296,-0.008979,-0.040364,-0.047018
3297,-0.008979,-0.040364,-0.009625
3298,0.025223,-0.021098,-0.047018
3299,0.025223,-0.001832,-0.009625
3300,-0.008979,0.017434,0.027769
3301,-0.008979,0.017434,0.027769
3302,-0.008979,0.0367,0.009072
3303,0.008122,0.0367,0.027769
3304,0.025223,0.0367,-0.009625
3305,0.008122,0.0367,-0.009625
3306,0.008122,0.017434,-0.009625
3307,-0.008979,-0.021098,0.027769
3308,-0.026081,0.017434,0.046465
3309,0.008122,-0.001832,0.046465
3310,-0.008979,0.017434,0.083859
3311,-0.008979,-0.001832,0.046465
3312,0.008122,0.017434,0.083859
3313,0.008122,-0.001832,0.046465
3314,-0.026081,-0.001832,-0.065715
3315,-0.008979,-0.001832,-0.103109
3316,-0.008979,-0.040364,-0.028322
3317,-0.008979,-0.040364,-0.028322
3318,-0.008979,-0.040364,-0.028322
3319,-0.026081,-0.021098,-0.028322
3320,0.025223,-0.040364,0.009072
3321,-0.008979,-0.021098,-0.009625
3322,0.008122,-0.021098,-0.009625
3323,0.008122,-0.021098,-0.009625
3324,-0.008979,-0.001832,-0.047018
3325,-0.008979,0.017434,-0.009625
3326,0.008122,0.0367,0.009072
3327,0.008122,0.0367,0.046465
3328,-0.008979,0.017434,0.027769
3329,0.008122,0.017434,0.009072
3330,0.008122,-0.001832,-0.028322
3331,0.008122,-0.001832,-0.028322
3332,-0.008979,-0.001832,-0.047018
3333,-0.026081,-0.001832,-0.009625
3334,0.025223,-0.001832,0.009072
3335,-0.008979,-0.001832,0.027769
3336,-0.008979,0.017434,0.046465
3337,0.008122,-0.001832,0.027769
3338,-0.026081,-0.021098,0.046465
3339,-0.008979,-0.001832,0.065162
3340,0.025223,0.055966,0.046465
3341,0.008122,0.075232,0.065162
3342,-0.008979,0.017434,0.046465
3343,0.008122,-0.001832,-0.028322
3344,-0.026081,-0.021098,-0.047018
3345,-0.008979,-0.040364,-0.065715
3346,0.008122,-0.078896,-0.009625
3347,-0.008979,-0.078896,-0.009625
3348,-0.008979,-0.136694,-0.028322
3349,0.008122,-0.078896,0.009072
3350,0.008122,-0.05963,-0.028322
3351,-0.008979,0.017434,-0.028322
3352,-0.008979,0.055966,-0.009625
3353,-0.026081,0.094498,0.009072
3354,-0.008979,0.113764,0.046465
3355,-0.008979,0.113764,0.046465
3356,0.008122,0.075232,0.027769
3357,-0.008979,0.017434,-0.009625
3358,0.025223,0.017434,-0.009625
3359,0.008122,0.055966,-0.028322
3360,0.008122,0.0367,-0.047018
3361,0.008122,0.055966,-0.009625
3362,0.008122,-0.001832,0.046465
3363,0.008122,-0.021098,0.046465
3364,0.025223,-0.05963,0.046465
3365,0.008122,-0.05963,0.065162
3366,-0.008979,-0.040364,0.027769
3367,0.025223,-0.021098,-0.028322
3368,0.008122,-0.05963,-0.103109
3369,0.008122,-0.021098,-0.047018
3370,0.008122,-0.05963,-0.065715
3371,-0.026081,-0.021098,-0.028322
3372,0.008122,0.017434,0.009072
3373,-0.008979,0.113764,0.009072
3374,-0.008979,0.13303,0.027769
3375,0.008122,0.171562,0.083859
3376,0.025223,0.075232,0.046465
3377,0.008122,0.017434,0.027769
3378,-0.008979,-0.001832,-0.009625
3379,-0.008979,-0.001832,-0.009625
3380,-0.026081,-0.001832,-0.028322
3381,0.008122,0.017434,-0.065715
3382,0.008122,0.017434,-0.047018
3383,0.008122,0.055966,-0.047018
3384,0.008122,0.017434,-0.028322
3385,-0.008979,-0.001832,-0.028322
3386,-0.008979,-0.021098,-0.047018
3387,-0.008979,-0.021098,-0.009625
3388,-0.026081,-0.05963,0.009072
3389,0.008122,-0.078896,0.009072
3390,0.008122,-0.040364,0.046465
3391,0.008122,-0.001832,0.046465
3392,0.008122,-0.021098,0.046465
3393,0.008122,-0.001832,0.046465
3394,0.008122,0.017434,0.027769
3395,0.025223,0.0367,-0.009625
3396,0.008122,0.0367,-0.065715
3397,-0.008979,0.017434,-0.084412
3398,-0.026081,0.017434,-0.028322
3399,0.008122,-0.001832,0.009072
3400,0.008122,-0.001832,0.065162
3401,0.025223,-0.021098,0.065162
3402,-0.008979,-0.021098,0.027769
3403,-0.008979,-0.040364,0.065162
3404,0.025223,-0.001832,0.027769
3405,-0.008979,0.017434,-0.047018
3406,-0.008979,-0.001832,0.009072
3407,0.008122,-0.001832,0.009072
3408,0.025223,-0.021098,0.009072
3409,-0.008979,-0.040364,-0.028322
3410,-0.008979,-0.117428,0.009072
3411,-0.026081,-0.117428,-0.009625
3412,-0.008979,-0.098162,-0.009625
3413,-0.008979,-0.05963,0.027769
3414,-0.008979,0.017434,0.046465
3415,0.008122,-0.021098,-0.009625
3416,0.025223,0.075232,0.009072
3417,0.025223,0.113764,0.027769
3418,0.008122,0.113764,0.009072
3419,0.025223,0.094498,0.046465
3420,0.008122,0.055966,-0.009625
3421,0.008122,0.0367,-0.009625
3422,0.008122,0.017434,-0.028322
3423,0.008122,0.017434,-0.009625
3424,-0.008979,-0.021098,-0.028322
3425,0.008122,-0.001832,0.009072
3426,0.008122,-0.001832,0.027769
3427,0.008122,-0.001832,0.027769
3428,-0.008979,-0.001832,-0.047018
3429,-0.008979,-0.001832,-0.009625
3430,-0.008979,-0.001832,0.009072
3431,0.025223,0.055966,0.009072
3432,0.008122,0.094498,0.046465
3433,-0.008979,0.055966,0.027769
3434,0.008122,-0.001832,0.009072
3435,-0.008979,-0.021098,-0.009625
3436,-0.008979,-0.040364,0.009072
3437,0.008122,-0.05963,-0.009625
3438,-0.008979,0.017434,-0.009625
3439,-0.008979,-0.021098,-0.028322
3440,-0.008979,0.055966,0.065162
3441,0.008122,0.075232,0.065162
3442,-0.008979,0.0367,0.083859
3443,-0.008979,0.017434,0.083859
3444,-0.008979,-0.001832,0.009072
3445,-0.008979,0.017434,-0.028322
3446,-0.008979,-0.021098,-0.121806
3447,0.008122,-0.021098,-0.140502
3448,-0.008979,-0.040364,-0.084412
3449,0.025223,-0.001832,-0.047018
3450,-0.008979,-0.021098,-0.009625
3451,0.008122,-0.021098,0.009072
3452,-0.008979,-0.05963,0.027769
3453,0.008122,-0.040364,0.046465
3454,-0.008979,-0.021098,0.009072
3455,-0.008979,-0.040364,0.027769
3456,-0.008979,-0.001832,0.046465
3457,-0.008979,-0.021098,-0.028322
3458,0.008122,-0.021098,0.027769
3459,-0.008979,-0.078896,0.009072
3460,0.025223,-0.021098,0.009072
3461,0.025223,0.0367,0.009072
3462,0.008122,0.055966,0.027769
3463,0.008122,0.075232,0.009072
3464,0.025223,0.075232,0.009072
3465,0.008122,0.113764,0.027769
3466,0.008122,0.094498,0.027769
3467,0.025223,0.0367,-0.065715
3468,0.008122,0.017434,-0.084412
3469,-0.008979,-0.001832,-0.047018
3470,0.008122,0.017434,-0.047018
3471,-0.008979,0.017434,0.027769
3472,-0.026081,-0.021098,0.009072
3473,-0.008979,-0.021098,-0.009625
3474,0.008122,0.017434,0.027769
3475,-0.008979,0.0367,0.065162
3476,-0.008979,0.0367,0.046465
3477,0.008122,-0.021098,0.009072
3478,-0.008979,0.017434,0.027769
3479,0.008122,-0.040364,0.009072
3480,0.008122,-0.021098,-0.028322
3481,-0.008979,-0.021098,0.027769
3482,-0.008979,-0.001832,0.046465
3483,0.025223,0.017434,0.027769
3484,0.008122,0.0367,0.027769
3485,0.025223,0.017434,0.009072
3486,0.008122,-0.001832,0.009072
3487,-0.008979,-0.021098,-0.009625
3488,0.008122,-0.040364,-0.028322
3489,0.008122,-0.021098,-0.065715
3490,0.008122,-0.021098,-0.028322
3491,-0.008979,-0.001832,0.027769
3492,0.008122,-0.021098,0.027769
3493,-0.008979,-0.001832,0.027769
3494,0.025223,0.017434,0.083859
3495,-0.008979,-0.040364,0.027769
3496,0.008122,-0.05963,-0.028322
3497,-0.008979,-0.021098,0.027769
3498,0.008122,-0.05963,-0.047018
3499,0.008122,-0.040364,-0.065715
3500,0.008122,-0.001832,-0.065715
3501,0.008122,-0.001832,-0.028322
3502,0.008122,0.017434,-0.047018
3503,0.008122,0.0367,0.009072
3504,0.008122,0.055966,0.046465
3505,0.008122,0.0367,0.065162
3506,0.008122,-0.001832,0.046465
3507,0.008122,-0.001832,0.027769
3508,0.008122,0.017434,0.065162
3509,-0.008979,0.017434,0.046465
3510,-0.008979,-0.001832,0.065162
3511,0.008122,-0.001832,0.046465
3512,-0.008979,-0.040364,0.009072
3513,-0.008979,-0.040364,0.009072
3514,-0.008979,-0.078896,-0.065715
3515,-0.008979,-0.117428,-0.065715
3516,-0.008979,-0.117428,-0.009625
3517,0.008122,-0.078896,0.009072
3518,0.008122,-0.001832,-0.047018
3519,-0.008979,0.0367,-0.047018
3520,0.008122,0.0367,-0.047018
3521,0.025223,0.113764,-0.047018
3522,0.008122,0.13303,-0.009625
3523,0.008122,0.094498,0.027769
3524,0.008122,0.055966,-0.009625
3525,0.008122,0.055966,-0.009625
3526,0.008122,0.075232,-0.028322
3527,0.025223,0.055966,0.027769
3528,0.042325,0.0367,-0.028322
3529,0.008122,-0.001832,-0.009625
3530,-0.008979,0.017434,0.009072
3531,-0.008979,0.017434,0.009072
3532,-0.008979,-0.001832,0.009072
3533,-0.008979,-0.001832,0.046465
3534,0.008122,-0.001832,0.027769
3535,0.025223,0.017434,0.009072
3536,0.008122,-0.05963,0.065162
3537,-0.008979,-0.05963,0.027769
3538,-0.026081,-0.05963,-0.009625
3539,-0.008979,-0.05963,-0.028322
3540,-0.008979,-0.001832,0.027769
3541,0.008122,0.0367,-0.009625
3542,-0.008979,0.055966,-0.009625
3543,0.008122,0.055966,0.027769
3544,-0.008979,0.017434,0.046465
3545,0.008122,-0.040364,0.009072
3546,-0.008979,-0.021098,0.046465
3547,0.008122,-0.040364,0.009072
3548,0.008122,-0.021098,0.009072
3549,-0.008979,-0.040364,0.009072
3550,-0.008979,-0.001832,-0.009625
3551,-0.008979,-0.001832,-0.009625
3552,0.008122,0.0367,-0.009625
3553,0.008122,0.055966,0.046465
3554,0.008122,0.0367,-0.047018
3555,0.025223,0.055966,0.009072
3556,0.008122,0.055966,0.009072
3557,-0.008979,0.055966,0.046465
3558,0.008122,0.017434,0.009072
3559,0.008122,-0.001832,0.009072
3560,-0.008979,-0.021098,-0.009625
3561,0.008122,-0.040364,-0.028322
3562,-0.008979,-0.05963,0.009072
3563,0.008122,-0.05963,-0.009625
3564,-0.026081,-0.001832,-0.047018
3565,-0.008979,0.017434,-0.028322
3566,0.025223,0.055966,-0.028322
3567,0.008122,0.0367,-0.009625
3568,0.025223,-0.001832,0.046465
3569,0.008122,0.017434,0.027769
3570,0.008122,-0.001832,0.027769
3571,0.008122,-0.078896,0.009072
3572,0.008122,-0.117428,0.009072
3573,-0.008979,-0.078896,0.009072
3574,0.008122,-0.05963,0.009072
3575,0.008122,-0.040364,0.046465
3576,0.008122,0.0367,0.009072
3577,0.008122,0.113764,-0.009625
3578,0.008122,0.152296,0.065162
3579,-0.008979,0.113764,0.065162
3580,-0.008979,-0.001832,-0.028322
3581,-0.008979,0.017434,0.027769
3582,-0.008979,0.017434,0.046465
3583,0.008122,-0.001832,0.009072
3584,0.008122,-0.021098,-0.028322
3585,0.025223,-0.021098,-0.047018
3586,0.008122,-0.021098,0.009072
3587,-0.008979,-0.021098,0.027769
3588,-0.008979,-0.021098,0.009072
3589,-0.008979,-0.040364,-0.047018
3590,-0.008979,0.017434,-0.121806
3591,0.008122,0.055966,-0.065715
3592,-0.008979,0.0367,-0.028322
3593,-0.008979,0.0367,-0.028322
3594,-0.008979,0.0367,0.027769
3595,0.008122,0.017434,0.046465
3596,0.008122,-0.001832,0.046465
3597,0.008122,-0.021098,0.046465
3598,-0.008979,-0.021098,0.009072
3599,-0.008979,-0.021098,-0.009625
3600,0.008122,-0.001832,-0.065715
3601,0.008122,-0.001832,-0.047018
3602,0.025223,-0.021098,-0.028322
3603,0.008122,-0.001832,-0.047018
3604,0.008122,0.017434,0.009072
3605,0.008122,0.017434,0.027769
3606,0.008122,-0.001832,0.009072
3607,-0.008979,-0.021098,0.009072
3608,0.008122,-0.001832,0.027769
3609,-0.008979,-0.040364,0.009072
3610,-0.008979,-0.078896,0.027769
3611,-0.008979,-0.001832,0.009072
3612,-0.008979,-0.021098,-0.009625
3613,-0.008979,-0.021098,-0.009625
3614,-0.008979,-0.021098,0.009072
3615,0.008122,-0.001832,0.009072
3616,-0.008979,0.017434,-0.009625
3617,-0.008979,0.0367,-0.009625
3618,0.008122,0.017434,0.046465
3619,0.025223,-0.021098,0.009072
3620,0.025223,-0.05963,0.027769
3621,0.025223,-0.040364,0.065162
3622,-0.008979,-0.021098,0.027769
3623,-0.008979,-0.05963,0.027769
3624,-0.026081,-0.021098,0.046465
3625,-0.008979,0.0367,0.009072
3626,0.008122,0.13303,-0.009625
3627,0.008122,0.113764,0.009072
3628,0.008122,0.075232,0.009072
3629,0.008122,0.094498,-0.028322
