# Requested Sampling Rate (Hz):,1000
# Actual Sampling Rate (Hz):,998.718
# Requested Duration (s):,5.0
# Actual Duration (s):,5.048
# REST Calibration:,831.5250689655151,832.0950689655182,831.5147931034478
# MAX Calibration:,890.0000,884.0000,885.0000
# Normalization: MVC-based  (x_norm = (x - REST) / (MAX - REST))
sample_idx,EMG1,EMG2,EMG3
0,-0.008979,-0.040364,-0.009625
1,-0.008979,-0.05963,-0.065715
2,-0.008979,-0.040364,-0.047018
3,0.008122,-0.040364,0.027769
4,0.008122,-0.021098,0.027769
5,0.008122,0.0367,-0.009625
6,0.025223,0.017434,-0.028322
7,-0.008979,0.017434,0.009072
8,-0.008979,-0.021098,-0.009625
9,-0.008979,-0.040364,0.027769
10,-0.008979,-0.001832,0.046465
11,0.008122,0.0367,0.027769
12,0.025223,-0.021098,0.009072
13,0.008122,0.0367,0.027769
14,0.008122,-0.001832,0.009072
15,0.008122,0.055966,0.009072
16,0.008122,0.094498,-0.009625
17,0.008122,0.075232,-0.009625
18,0.008122,0.017434,-0.028322
19,-0.008979,0.017434,-0.028322
20,-0.026081,-0.021098,-0.028322
21,0.008122,-0.001832,-0.028322
22,0.008122,0.017434,0.009072
23,0.008122,0.0367,0.027769
24,-0.008979,-0.001832,0.009072
25,0.008122,0.017434,-0.009625
26,0.008122,0.017434,0.027769
27,0.008122,0.017434,-0.009625
28,0.008122,0.017434,-0.009625
29,-0.008979,0.0367,0.027769
30,-0.008979,-0.001832,0.009072
31,-0.008979,-0.001832,0.027769
32,0.025223,-0.021098,0.027769
33,0.025223,-0.021098,0.046465
34,0.008122,-0.040364,-0.009625
35,0.008122,-0.040364,-0.047018
36,0.008122,-0.021098,-0.047018
37,0.008122,-0.021098,-0.028322
38,0.025223,-0.001832,-0.047018
39,0.025223,0.017434,-0.009625
40,-0.008979,-0.001832,-0.009625
41,-0.008979,-0.001832,-0.009625
42,-0.008979,0.017434,0.009072
43,-0.008979,0.017434,0.009072
44,0.008122,0.0367,0.009072
45,0.008122,0.0367,0.065162
46,0.008122,0.017434,0.027769
47,-0.008979,-0.021098,-0.009625
48,0.008122,0.017434,0.027769
49,-0.008979,-0.021098,-0.009625
50,0.008122,-0.001832,-0.009625
51,0.008122,0.017434,-0.028322
52,0.008122,0.017434,-0.028322
53,0.008122,-0.021098,-0.028322
54,-0.008979,-0.021098,0.009072
55,-0.008979,-0.040364,0.046465
56,0.008122,-0.021098,0.009072
57,0.008122,-0.001832,0.009072
58,0.008122,0.017434,0.027769
59,0.008122,-0.001832,0.009072
60,-0.008979,-0.001832,-0.028322
61,-0.008979,-0.001832,-0.009625
62,0.008122,-0.001832,-0.028322
63,-0.008979,0.017434,-0.009625
64,-0.026081,0.017434,0.046465
65,-0.008979,0.017434,0.009072
66,0.008122,0.0367,0.027769
67,0.008122,0.017434,0.065162
68,-0.008979,-0.021098,-0.028322
69,0.008122,-0.05963,-0.047018
70,-0.026081,-0.098162,-0.047018
71,0.008122,-0.021098,-0.065715
72,0.008122,0.017434,-0.047018
73,-0.008979,0.0367,-0.009625
74,0.008122,0.055966,-0.028322
75,0.008122,0.075232,-0.009625
76,0.008122,0.075232,0.009072
77,0.025223,0.017434,0.027769
78,0.008122,-0.021098,-0.009625
79,0.008122,-0.05963,0.009072
80,-0.008979,-0.05963,0.046465
81,0.008122,0.0367,0.009072
82,-0.008979,0.0367,-0.009625
83,-0.008979,0.017434,0.009072
84,0.008122,0.055966,0.009072
85,-0.008979,0.0367,-0.028322
86,0.008122,-0.001832,-0.009625
87,-0.026081,-0.001832,-0.009625
88,-0.008979,-0.001832,0.027769
89,0.008122,-0.021098,0.027769
90,0.008122,-0.001832,0.065162
91,0.008122,-0.001832,0.009072
92,0.008122,0.017434,0.027769
93,-0.008979,0.017434,-0.009625
94,0.008122,0.0367,-0.009625
95,0.008122,0.0367,-0.028322
96,0.008122,0.0367,-0.028322
97,-0.008979,-0.021098,-0.028322
98,-0.008979,-0.021098,0.009072
99,0.008122,-0.021098,0.027769
100,0.008122,-0.05963,0.046465
101,-0.008979,-0.021098,0.009072
102,0.008122,-0.001832,0.009072
103,0.025223,-0.001832,-0.009625
104,0.008122,-0.001832,-0.009625
105,0.008122,0.0367,0.027769
106,0.008122,0.017434,-0.009625
107,0.008122,0.017434,-0.009625
108,-0.008979,0.055966,0.046465
109,-0.008979,-0.001832,0.046465
110,0.008122,-0.040364,0.046465
111,-0.008979,-0.021098,0.046465
112,0.008122,-0.001832,0.009072
113,0.008122,-0.001832,-0.028322
114,-0.008979,-0.021098,-0.047018
115,-0.008979,-0.001832,-0.028322
116,-0.008979,-0.001832,-0.047018
117,-0.008979,-0.001832,-0.028322
118,0.008122,-0.001832,-0.009625
119,0.008122,0.0367,-0.028322
120,-0.008979,-0.021098,-0.028322
121,0.008122,-0.021098,-0.009625
122,0.025223,-0.040364,0.027769
123,0.008122,-0.05963,0.009072
124,0.008122,-0.040364,0.009072
125,0.008122,-0.021098,0.027769
126,0.008122,-0.021098,-0.009625
127,0.008122,0.017434,-0.009625
128,-0.026081,0.017434,-0.009625
129,-0.008979,0.055966,-0.009625
130,0.008122,0.055966,0.009072
131,-0.008979,0.017434,0.027769
132,0.008122,0.017434,0.009072
133,0.008122,-0.001832,0.046465
134,-0.008979,0.017434,0.065162
135,0.008122,-0.001832,0.027769
136,-0.008979,-0.040364,-0.009625
137,-0.008979,0.017434,0.027769
138,0.008122,-0.001832,0.009072
139,0.008122,-0.021098,-0.047018
140,-0.008979,-0.021098,-0.047018
141,0.008122,-0.021098,-0.028322
142,0.008122,-0.001832,-0.028322
143,-0.008979,-0.040364,-0.009625
144,-0.008979,-0.001832,0.027769
145,-0.026081,-0.05963,0.046465
146,-0.008979,-0.078896,0.046465
147,-0.008979,-0.040364,0.027769
148,0.008122,-0.001832,0.009072
149,0.008122,0.0367,0.009072
150,-0.008979,0.094498,0.027769
151,0.025223,0.113764,0.009072
152,0.008122,0.13303,-0.047018
153,0.025223,0.094498,-0.028322
154,0.008122,0.055966,0.027769
155,0.008122,0.017434,-0.028322
156,-0.008979,-0.021098,-0.009625
157,0.008122,-0.021098,0.027769
158,-0.008979,-0.021098,0.027769
159,-0.008979,-0.021098,0.046465
160,0.008122,-0.021098,0.009072
161,0.008122,-0.05963,-0.009625
162,0.008122,-0.021098,-0.065715
163,-0.008979,-0.021098,-0.047018
164,-0.008979,0.0367,-0.028322
165,0.008122,0.0367,-0.009625
166,0.008122,-0.001832,0.009072
167,0.008122,-0.001832,0.027769
168,0.008122,0.017434,-0.009625
169,-0.008979,0.0367,0.027769
170,-0.008979,0.017434,0.009072
171,0.008122,-0.001832,-0.009625
172,-0.008979,0.017434,-0.028322
173,0.025223,0.017434,-0.009625
174,0.008122,-0.001832,-0.028322
175,-0.008979,-0.021098,-0.009625
176,-0.008979,-0.021098,0.009072
177,0.008122,-0.021098,-0.009625
178,0.008122,-0.001832,0.009072
179,0.008122,-0.040364,0.065162
180,-0.026081,-0.05963,0.065162
181,-0.008979,-0.021098,0.009072
182,-0.008979,-0.021098,0.009072
183,-0.008979,-0.021098,0.009072
184,-0.008979,-0.001832,0.009072
185,-0.008979,0.017434,-0.028322
186,0.008122,0.0367,-0.047018
187,0.008122,0.055966,-0.028322
188,0.008122,0.0367,0.009072
189,-0.008979,0.017434,0.009072
190,-0.008979,0.017434,0.009072
191,0.008122,-0.001832,0.027769
192,0.008122,0.017434,0.027769
193,-0.008979,0.017434,0.009072
194,0.008122,-0.001832,0.009072
195,0.025223,-0.001832,0.009072
196,0.008122,0.017434,-0.009625
197,0.025223,0.017434,-0.009625
198,-0.008979,-0.001832,0.009072
199,0.008122,0.017434,0.009072
200,0.025223,-0.021098,-0.009625
201,0.059426,-0.001832,0.027769
202,0.059426,-0.001832,0.046465
203,0.076527,0.0367,0.027769
204,0.059426,0.017434,0.027769
205,0.059426,-0.001832,0.027769
206,-0.026081,-0.001832,0.009072
207,-0.026081,-0.001832,-0.028322
208,-0.060283,-0.021098,-0.047018
209,-0.060283,-0.040364,-0.028322
210,-0.026081,-0.05963,-0.009625
211,-0.026081,-0.098162,0.009072
212,-0.008979,-0.078896,0.009072
213,-0.043182,-0.078896,0.027769
214,-0.026081,-0.05963,0.009072
215,-0.008979,-0.098162,-0.009625
216,-0.008979,-0.021098,-0.009625
217,0.025223,0.055966,-0.047018
218,0.025223,0.055966,-0.009625
219,-0.008979,0.113764,-0.047018
220,-0.008979,0.094498,0.009072
221,-0.008979,0.075232,0.046465
222,0.008122,0.0367,-0.009625
223,-0.008979,0.0367,0.009072
224,0.025223,0.017434,0.065162
225,0.025223,-0.001832,0.027769
226,0.008122,-0.001832,0.009072
227,0.008122,0.0367,0.009072
228,0.008122,0.0367,0.009072
229,0.025223,0.0367,0.009072
230,0.008122,0.0367,0.027769
231,-0.008979,-0.021098,-0.028322
232,-0.008979,-0.040364,0.027769
233,-0.008979,-0.040364,0.065162
234,-0.008979,-0.05963,0.027769
235,-0.008979,-0.040364,-0.065715
236,0.025223,0.017434,-0.009625
237,0.008122,0.017434,-0.009625
238,0.042325,0.017434,-0.047018
239,0.025223,0.0367,-0.103109
240,0.025223,0.017434,-0.047018
241,0.008122,-0.001832,-0.028322
242,0.008122,-0.021098,0.027769
243,0.008122,-0.001832,0.027769
244,-0.008979,-0.021098,0.046465
245,-0.008979,-0.001832,0.027769
246,0.008122,0.0367,0.046465
247,0.008122,-0.001832,0.027769
248,-0.026081,0.017434,-0.028322
249,0.008122,0.017434,-0.009625
250,0.042325,-0.040364,-0.028322
251,0.042325,-0.001832,-0.028322
252,0.059426,-0.021098,0.009072
253,0.042325,0.017434,0.009072
254,0.059426,-0.001832,0.009072
255,-0.008979,-0.001832,0.009072
256,-0.111587,-0.040364,0.046465
257,-0.077385,-0.05963,-0.009625
258,-0.060283,-0.021098,0.009072
259,-0.026081,-0.040364,0.009072
260,0.008122,0.017434,0.009072
261,-0.008979,0.017434,-0.028322
262,0.008122,0.055966,0.009072
263,0.008122,0.075232,-0.028322
264,0.025223,0.017434,-0.009625
265,0.008122,-0.001832,-0.009625
266,-0.008979,0.017434,0.027769
267,-0.008979,-0.001832,-0.009625
268,0.008122,-0.021098,0.027769
269,0.008122,-0.001832,0.027769
270,-0.008979,-0.021098,-0.047018
271,0.008122,-0.001832,-0.047018
272,-0.008979,-0.001832,-0.009625
273,0.008122,0.055966,-0.028322
274,0.008122,0.017434,0.009072
275,0.008122,-0.001832,0.046465
276,-0.008979,-0.001832,-0.028322
277,0.008122,-0.001832,-0.009625
278,-0.008979,0.017434,-0.009625
279,0.008122,-0.001832,0.009072
280,0.008122,-0.001832,0.009072
281,-0.008979,-0.001832,0.046465
282,-0.008979,0.075232,0.027769
283,-0.008979,-0.001832,0.009072
284,-0.008979,-0.001832,-0.009625
285,0.025223,-0.001832,-0.028322
286,0.008122,-0.001832,-0.028322
287,-0.026081,-0.001832,-0.028322
288,-0.008979,-0.021098,0.009072
289,-0.008979,-0.001832,0.009072
290,0.008122,0.055966,0.046465
291,-0.008979,0.017434,0.083859
292,-0.008979,-0.021098,0.046465
293,-0.026081,-0.040364,0.009072
294,-0.008979,-0.05963,0.009072
295,-0.008979,-0.078896,-0.047018
296,-0.008979,-0.05963,-0.121806
297,-0.026081,-0.040364,-0.065715
298,-0.026081,-0.021098,-0.009625
299,0.008122,0.017434,-0.009625
300,-0.026081,-0.001832,0.009072
301,-0.008979,-0.021098,0.027769
302,0.008122,0.017434,-0.009625
303,0.008122,-0.001832,0.009072
304,-0.008979,0.0367,0.009072
305,0.025223,0.075232,-0.009625
306,0.042325,0.055966,-0.009625
307,-0.008979,0.017434,-0.009625
308,0.042325,-0.001832,-0.009625
309,0.042325,0.0367,0.009072
310,0.042325,0.055966,0.046465
311,0.025223,0.0367,0.046465
312,0.042325,0.0367,0.027769
313,0.042325,0.0367,0.027769
314,-0.060283,0.017434,0.009072
315,-0.077385,-0.040364,-0.009625
316,-0.043182,-0.078896,-0.028322
317,-0.060283,-0.040364,0.009072
318,-0.094486,-0.078896,0.009072
319,-0.077385,-0.040364,0.009072
320,-0.060283,-0.040364,0.009072
321,-0.111587,-0.040364,-0.009625
322,-0.077385,-0.001832,-0.009625
323,0.008122,0.017434,-0.028322
324,0.059426,0.0367,-0.047018
325,0.025223,0.055966,-0.047018
326,0.025223,0.055966,0.027769
327,0.076527,0.055966,0.009072
328,0.179135,0.017434,0.009072
329,0.230439,-0.001832,-0.009625
330,0.042325,-0.021098,0.027769
331,0.042325,0.017434,-0.047018
332,0.025223,0.017434,0.009072
333,0.042325,0.0367,0.009072
334,0.025223,0.0367,0.027769
335,-0.008979,0.0367,0.009072
336,0.008122,0.055966,-0.009625
337,-0.008979,0.055966,-0.028322
338,-0.008979,0.0367,-0.009625
339,-0.008979,-0.040364,0.009072
340,0.008122,-0.040364,0.009072
341,0.025223,-0.021098,-0.028322
342,0.042325,-0.001832,0.027769
343,0.042325,-0.001832,0.046465
344,0.042325,0.017434,0.027769
345,0.042325,0.0367,0.009072
346,-0.008979,0.017434,0.027769
347,-0.128689,0.0367,0.009072
348,-0.077385,0.0367,0.009072
349,-0.026081,0.017434,-0.009625
350,0.008122,-0.001832,-0.047018
351,0.025223,-0.021098,-0.009625
352,-0.008979,-0.021098,-0.009625
353,-0.043182,-0.05963,-0.028322
354,-0.026081,-0.078896,-0.009625
355,-0.043182,-0.05963,-0.009625
356,-0.026081,-0.040364,0.027769
357,-0.026081,-0.021098,0.009072
358,0.008122,-0.040364,0.027769
359,0.025223,-0.021098,-0.009625
360,0.025223,-0.040364,-0.009625
361,0.008122,-0.040364,0.027769
362,-0.008979,-0.05963,0.027769
363,-0.026081,-0.001832,-0.009625
364,-0.026081,-0.001832,0.009072
365,-0.026081,0.0367,0.027769
366,-0.026081,0.055966,-0.009625
367,-0.026081,0.075232,0.027769
368,0.008122,0.113764,0.027769
369,0.059426,0.094498,0.009072
370,0.025223,0.0367,-0.009625
371,0.025223,0.0367,-0.009625
372,0.042325,0.017434,-0.028322
373,0.042325,-0.001832,-0.009625
374,0.042325,-0.001832,-0.009625
375,0.008122,0.017434,-0.047018
376,0.008122,-0.001832,-0.009625
377,0.008122,-0.001832,0.009072
378,0.008122,0.017434,0.027769
379,0.025223,-0.001832,0.009072
380,-0.008979,-0.001832,0.027769
381,-0.043182,-0.001832,0.046465
382,-0.026081,-0.040364,0.027769
383,-0.026081,-0.021098,-0.009625
384,-0.026081,-0.021098,-0.009625
385,-0.008979,-0.021098,-0.028322
386,-0.043182,-0.021098,-0.028322
387,0.008122,0.017434,0.027769
388,0.008122,0.0367,0.009072
389,0.008122,-0.001832,-0.028322
390,0.076527,-0.001832,-0.028322
391,0.059426,-0.001832,0.009072
392,0.025223,-0.021098,-0.028322
393,0.025223,-0.001832,-0.009625
394,-0.008979,0.0367,-0.065715
395,0.008122,-0.021098,-0.084412
396,-0.008979,-0.05963,-0.047018
397,-0.043182,-0.05963,-0.009625
398,-0.060283,-0.05963,-0.028322
399,-0.043182,-0.05963,-0.009625
400,-0.043182,-0.040364,-0.009625
401,0.008122,-0.001832,0.027769
402,0.008122,0.0367,0.027769
403,0.008122,0.0367,0.027769
404,0.059426,0.075232,0.027769
405,0.042325,0.075232,0.027769
406,0.025223,-0.021098,0.065162
407,-0.008979,0.0367,0.027769
408,-0.026081,0.0367,0.046465
409,0.008122,-0.001832,0.027769
410,0.025223,-0.001832,0.046465
411,0.025223,0.017434,0.009072
412,0.008122,0.017434,-0.047018
413,0.008122,-0.001832,-0.065715
414,-0.008979,-0.021098,-0.047018
415,-0.008979,0.0367,0.009072
416,-0.008979,-0.001832,0.083859
417,-0.026081,-0.021098,0.027769
418,-0.008979,-0.05963,0.009072
419,-0.008979,-0.05963,-0.009625
420,-0.008979,-0.078896,-0.028322
421,0.008122,-0.05963,-0.065715
422,0.008122,-0.078896,-0.065715
423,0.008122,-0.05963,-0.028322
424,-0.008979,-0.040364,-0.028322
425,-0.008979,-0.040364,-0.009625
426,0.008122,-0.021098,0.027769
427,-0.128689,-0.021098,0.009072
428,-0.060283,0.017434,-0.009625
429,0.042325,0.055966,0.009072
430,0.076527,0.055966,0.009072
431,0.025223,-0.001832,-0.009625
432,-0.008979,0.017434,0.027769
433,-0.026081,0.0367,0.009072
434,-0.026081,0.055966,-0.009625
435,-0.008979,0.094498,0.027769
436,0.008122,0.094498,0.009072
437,-0.008979,0.113764,0.009072
438,-0.026081,0.094498,-0.009625
439,-0.026081,0.0367,-0.009625
440,-0.060283,-0.021098,-0.028322
441,-0.043182,-0.136694,0.009072
442,-0.008979,-0.117428,0.027769
443,0.025223,-0.136694,0.009072
444,0.144933,-0.098162,0.027769
445,0.042325,-0.05963,0.009072
446,-0.043182,-0.001832,-0.009625
447,-0.060283,0.075232,0.027769
448,-0.026081,0.113764,0.027769
449,-0.026081,0.13303,0.009072
450,-0.008979,0.094498,-0.028322
451,0.008122,0.094498,0.046465
452,0.059426,0.055966,0.009072
453,0.11073,0.0367,0.027769
454,0.076527,-0.001832,-0.009625
455,0.042325,-0.05963,0.009072
456,0.059426,-0.021098,-0.009625
457,0.127831,0.0367,-0.009625
458,0.11073,0.055966,0.009072
459,0.025223,0.017434,0.009072
460,-0.14579,-0.021098,-0.009625
461,-0.094486,-0.098162,0.027769
462,-0.060283,-0.098162,0.009072
463,-0.060283,-0.117428,0.009072
464,-0.060283,-0.117428,0.009072
465,-0.043182,-0.05963,-0.028322
466,-0.077385,-0.021098,-0.047018
467,-0.060283,0.075232,-0.009625
468,0.042325,0.113764,0.009072
469,0.076527,0.152296,-0.009625
470,0.11073,0.094498,-0.009625
471,0.093629,-0.021098,0.027769
472,0.059426,-0.021098,0.009072
473,0.059426,0.017434,0.027769
474,0.076527,-0.021098,0.009072
475,0.076527,-0.001832,-0.009625
476,0.042325,-0.021098,-0.009625
477,0.008122,0.017434,-0.009625
478,-0.094486,0.017434,0.009072
479,-0.060283,0.017434,-0.009625
480,-0.060283,0.017434,0.009072
481,-0.026081,-0.05963,0.027769
482,-0.026081,-0.05963,-0.028322
483,-0.060283,-0.021098,0.009072
484,-0.026081,0.017434,0.009072
485,0.008122,0.0367,-0.009625
486,-0.008979,0.055966,-0.028322
487,0.042325,0.075232,-0.009625
488,0.059426,0.055966,-0.028322
489,0.042325,0.0367,-0.028322
490,0.076527,-0.001832,-0.009625
491,0.076527,0.017434,0.027769
492,0.11073,0.0367,0.046465
493,-0.026081,-0.001832,0.046465
494,-0.094486,0.017434,-0.009625
495,-0.077385,-0.001832,-0.028322
496,-0.043182,0.017434,0.027769
497,-0.026081,-0.001832,0.027769
498,0.008122,-0.040364,-0.009625
499,-0.043182,-0.040364,-0.009625
500,-0.026081,-0.040364,-0.009625
501,-0.043182,-0.05963,-0.065715
502,-0.026081,-0.021098,-0.009625
503,-0.043182,-0.040364,0.027769
504,-0.060283,0.017434,0.009072
505,-0.043182,-0.001832,0.009072
506,-0.026081,-0.021098,0.046465
507,-0.043182,-0.098162,0.009072
508,-0.026081,-0.078896,-0.009625
509,-0.026081,-0.078896,0.065162
510,0.059426,-0.05963,0.065162
511,0.042325,-0.040364,0.027769
512,0.008122,0.017434,0.009072
513,-0.026081,0.017434,0.027769
514,0.025223,0.0367,0.027769
515,0.059426,0.094498,-0.009625
516,0.042325,0.075232,-0.009625
517,0.042325,0.055966,-0.047018
518,0.025223,0.0367,-0.121806
519,0.008122,0.017434,-0.065715
520,-0.008979,0.055966,-0.047018
521,-0.008979,0.0367,-0.028322
522,-0.008979,0.0367,0.009072
523,-0.026081,-0.001832,-0.047018
524,-0.008979,-0.021098,-0.009625
525,0.008122,0.017434,0.027769
526,0.025223,-0.001832,0.046465
527,0.008122,-0.021098,0.009072
528,-0.026081,-0.021098,0.065162
529,-0.026081,-0.021098,0.009072
530,0.008122,-0.001832,0.009072
531,0.008122,-0.021098,-0.009625
532,-0.008979,0.017434,-0.009625
533,0.008122,-0.040364,-0.047018
534,-0.043182,-0.040364,0.009072
535,0.042325,-0.078896,0.046465
536,0.076527,-0.175226,0.046465
537,0.025223,-0.175226,0.046465
538,-0.008979,-0.15596,0.027769
539,-0.060283,-0.05963,0.009072
540,-0.026081,0.017434,-0.047018
541,-0.026081,0.0367,-0.065715
542,0.059426,0.152296,-0.009625
543,0.11073,0.267892,-0.028322
544,0.059426,0.171562,-0.028322
545,-0.008979,0.094498,0.009072
546,-0.043182,-0.001832,-0.009625
547,-0.043182,-0.040364,0.009072
548,-0.060283,-0.05963,0.046465
549,-0.026081,-0.040364,0.009072
550,-0.026081,-0.098162,0.009072
551,-0.026081,-0.098162,0.009072
552,-0.008979,-0.040364,0.009072
553,-0.008979,0.0367,-0.028322
554,0.059426,0.055966,-0.009625
555,0.162034,0.075232,-0.028322
556,0.144933,0.055966,-0.009625
557,0.162034,0.13303,0.009072
558,0.162034,0.094498,0.046465
559,0.093629,0.0367,0.009072
560,-0.077385,0.017434,0.027769
561,-0.197094,-0.001832,0.009072
562,-0.197094,-0.001832,0.009072
563,-0.094486,0.017434,0.009072
564,-0.026081,0.017434,0.027769
565,-0.026081,0.0367,0.009072
566,-0.026081,0.0367,-0.009625
567,-0.026081,0.0367,-0.009625
568,-0.008979,-0.001832,-0.047018
569,0.008122,-0.001832,0.027769
570,0.025223,-0.040364,0.046465
571,0.025223,-0.001832,0.046465
572,0.008122,-0.021098,0.046465
573,0.008122,-0.136694,0.027769
574,0.008122,-0.136694,0.009072
575,-0.008979,-0.098162,-0.047018
576,0.025223,-0.05963,-0.047018
577,0.042325,-0.021098,-0.047018
578,0.042325,0.0367,-0.047018
579,0.008122,0.055966,0.009072
580,0.008122,0.113764,0.046465
581,0.008122,0.055966,0.009072
582,0.025223,0.017434,0.027769
583,0.008122,-0.001832,0.009072
584,0.008122,-0.001832,-0.009625
585,0.025223,-0.021098,-0.009625
586,0.008122,-0.001832,0.027769
587,-0.026081,0.017434,-0.009625
588,-0.026081,0.017434,-0.047018
589,-0.111587,0.017434,-0.009625
590,-0.043182,0.075232,-0.009625
591,0.042325,0.0367,0.027769
592,0.042325,0.0367,0.027769
593,0.025223,0.017434,0.009072
594,0.042325,-0.001832,-0.009625
595,0.059426,0.017434,0.027769
596,0.042325,-0.040364,-0.009625
597,0.025223,-0.001832,-0.009625
598,0.025223,0.017434,-0.009625
599,-0.008979,-0.021098,0.009072
600,-0.008979,-0.040364,0.009072
601,-0.026081,-0.05963,0.065162
602,0.008122,-0.098162,-0.009625
603,0.025223,-0.098162,-0.028322
604,0.059426,-0.078896,0.027769
605,0.008122,-0.021098,0.027769
606,0.008122,-0.001832,-0.009625
607,-0.026081,0.017434,-0.009625
608,-0.043182,0.075232,0.027769
609,-0.060283,0.055966,0.009072
610,-0.043182,0.055966,-0.028322
611,0.008122,-0.021098,-0.028322
612,0.042325,-0.021098,0.009072
613,-0.008979,0.017434,0.027769
614,-0.162891,0.0367,0.009072
615,-0.111587,-0.021098,0.009072
616,-0.060283,0.017434,-0.028322
617,0.025223,0.017434,0.027769
618,0.11073,-0.021098,0.009072
619,0.179135,-0.021098,0.027769
620,0.144933,-0.001832,0.027769
621,0.162034,-0.021098,0.046465
622,0.008122,-0.021098,-0.028322
623,-0.077385,-0.040364,-0.009625
624,-0.162891,-0.001832,-0.028322
625,-0.077385,0.017434,-0.047018
626,-0.008979,0.017434,-0.028322
627,0.008122,-0.021098,0.009072
628,-0.008979,-0.001832,-0.028322
629,-0.008979,-0.05963,-0.028322
630,-0.008979,-0.001832,-0.028322
631,0.008122,0.017434,-0.047018
632,0.059426,0.0367,-0.028322
633,0.11073,0.0367,-0.009625
634,0.093629,-0.001832,0.009072
635,-0.026081,-0.001832,-0.009625
636,-0.077385,-0.040364,-0.009625
637,-0.14579,-0.05963,0.009072
638,-0.111587,-0.098162,-0.009625
639,-0.043182,-0.098162,-0.009625
640,0.025223,-0.05963,0.009072
641,0.076527,-0.021098,0.027769
642,0.127831,0.017434,0.009072
643,0.127831,0.0367,-0.009625
644,0.025223,0.0367,-0.009625
645,-0.060283,0.055966,-0.047018
646,-0.128689,0.113764,0.009072
647,-0.060283,0.094498,0.009072
648,-0.043182,0.017434,0.009072
649,-0.111587,-0.021098,0.009072
650,0.093629,-0.001832,0.027769
651,0.11073,-0.021098,-0.028322
652,0.11073,-0.040364,0.009072
653,0.298845,-0.05963,0.046465
654,0.350149,-0.040364,-0.028322
655,0.213338,-0.098162,-0.009625
656,-0.026081,-0.001832,-0.047018
657,0.076527,0.13303,0.009072
658,-0.043182,0.094498,-0.009625
659,-0.214196,0.094498,0.027769
660,-0.111587,0.13303,0.046465
661,-0.162891,0.113764,0.027769
662,-0.060283,0.094498,0.046465
663,-0.060283,0.055966,-0.009625
664,-0.043182,-0.001832,-0.028322
665,-0.077385,-0.001832,0.009072
666,-0.026081,0.017434,0.027769
667,-0.008979,0.017434,-0.009625
668,-0.043182,0.017434,0.009072
669,-0.060283,-0.021098,0.027769
670,-0.043182,-0.021098,0.009072
671,0.059426,-0.001832,0.046465
672,0.076527,-0.021098,0.009072
673,0.008122,-0.05963,-0.009625
674,0.008122,-0.078896,-0.065715
675,-0.008979,-0.05963,-0.009625
676,-0.060283,-0.021098,-0.028322
677,-0.060283,-0.021098,-0.065715
678,-0.008979,0.0367,-0.028322
679,0.008122,0.075232,0.009072
680,0.025223,0.055966,0.027769
681,0.059426,0.0367,0.027769
682,0.076527,-0.001832,0.009072
683,0.025223,-0.040364,-0.028322
684,0.042325,-0.021098,-0.028322
685,0.025223,-0.001832,-0.009625
686,0.025223,0.055966,0.009072
687,0.008122,-0.001832,-0.047018
688,0.008122,0.017434,-0.009625
689,0.008122,0.0367,-0.028322
690,0.008122,0.0367,0.009072
691,0.008122,-0.021098,0.027769
692,-0.008979,0.017434,0.046465
693,-0.026081,-0.001832,0.009072
694,-0.026081,-0.001832,0.027769
695,0.008122,-0.001832,0.009072
696,0.008122,0.017434,0.027769
697,0.025223,-0.001832,-0.009625
698,0.008122,-0.040364,-0.009625
699,-0.043182,-0.078896,-0.047018
700,-0.026081,-0.078896,-0.009625
701,0.042325,-0.040364,0.046465
702,0.11073,-0.021098,0.046465
703,0.059426,0.017434,0.027769
704,0.144933,0.0367,0.009072
705,0.042325,-0.021098,-0.009625
706,0.11073,-0.05963,-0.047018
707,0.162034,-0.136694,-0.065715
708,0.093629,-0.15596,-0.065715
709,-0.060283,-0.05963,-0.047018
710,-0.14579,0.0367,0.009072
711,-0.179993,0.094498,0.083859
712,-0.14579,0.094498,0.027769
713,-0.060283,0.055966,0.009072
714,-0.060283,-0.040364,0.009072
715,-0.043182,-0.040364,-0.009625
716,-0.008979,-0.001832,0.027769
717,-0.026081,0.0367,-0.028322
718,-0.026081,0.055966,-0.009625
719,-0.008979,0.113764,-0.009625
720,-0.008979,0.094498,0.009072
721,-0.026081,0.075232,0.009072
722,-0.060283,0.017434,0.027769
723,-0.060283,0.0367,0.027769
724,-0.043182,-0.001832,0.027769
725,0.059426,-0.040364,0.027769
726,0.213338,-0.098162,0.027769
727,0.196237,-0.098162,-0.009625
728,0.213338,-0.078896,-0.009625
729,0.076527,-0.078896,-0.047018
730,-0.214196,-0.021098,-0.028322
731,-0.179993,0.0367,-0.009625
732,0.042325,0.017434,-0.009625
733,0.059426,0.017434,0.009072
734,-0.060283,0.055966,-0.009625
735,-0.094486,0.0367,0.009072
736,-0.128689,-0.001832,0.027769
737,-0.008979,-0.021098,-0.009625
738,0.042325,0.055966,-0.009625
739,-0.060283,-0.021098,0.009072
740,-0.128689,-0.040364,0.009072
741,-0.060283,-0.021098,-0.009625
742,0.127831,-0.040364,-0.009625
743,0.162034,-0.021098,-0.028322
744,0.162034,-0.040364,-0.028322
745,0.025223,0.055966,-0.009625
746,0.008122,0.055966,0.009072
747,-0.060283,-0.001832,0.009072
748,-0.043182,-0.001832,0.027769
749,-0.077385,0.017434,0.009072
750,-0.043182,0.075232,0.009072
751,0.11073,0.055966,-0.009625
752,0.196237,0.055966,0.009072
753,0.144933,0.017434,-0.047018
754,0.008122,-0.078896,-0.065715
755,0.008122,-0.078896,-0.009625
756,-0.026081,-0.021098,0.046465
757,0.025223,-0.001832,0.027769
758,0.042325,-0.021098,0.027769
759,0.008122,-0.078896,0.027769
760,-0.026081,-0.040364,0.009072
761,-0.043182,0.017434,0.046465
762,-0.060283,-0.05963,0.027769
763,-0.026081,0.017434,0.009072
764,0.025223,0.055966,0.027769
765,0.059426,0.0367,0.009072
766,0.025223,-0.001832,0.027769
767,0.025223,-0.001832,0.046465
768,-0.077385,-0.05963,0.027769
769,-0.094486,-0.040364,-0.009625
770,-0.043182,0.017434,-0.047018
771,0.059426,0.13303,-0.009625
772,0.042325,0.152296,-0.047018
773,0.025223,0.0367,-0.009625
774,-0.026081,-0.001832,-0.065715
775,-0.197094,-0.021098,-0.028322
776,-0.197094,-0.078896,-0.065715
777,0.008122,-0.098162,-0.028322
778,0.179135,-0.05963,0.046465
779,0.025223,-0.05963,0.009072
780,0.008122,-0.078896,0.009072
781,0.144933,-0.001832,0.009072
782,0.025223,0.017434,-0.047018
783,0.059426,0.017434,-0.028322
784,0.144933,0.094498,-0.009625
785,0.144933,0.152296,-0.009625
786,0.144933,0.075232,-0.065715
787,-0.14579,-0.001832,-0.028322
788,-0.128689,-0.05963,-0.028322
789,-0.162891,-0.136694,-0.009625
790,0.008122,-0.15596,0.027769
791,0.025223,-0.05963,0.046465
792,-0.008979,-0.05963,0.009072
793,-0.043182,-0.021098,0.065162
794,0.042325,0.075232,0.027769
795,-0.043182,0.094498,-0.009625
796,-0.043182,0.13303,-0.009625
797,-0.008979,0.152296,-0.009625
798,-0.094486,0.094498,-0.028322
799,-0.077385,0.13303,0.009072
800,0.008122,0.113764,0.027769
801,0.093629,0.0367,0.027769
802,0.093629,-0.021098,-0.047018
803,0.093629,-0.040364,-0.009625
804,0.264642,-0.078896,0.009072
805,0.025223,-0.098162,0.009072
806,-0.214196,-0.136694,0.009072
807,-0.077385,-0.194492,0.009072
808,-0.008979,-0.213758,-0.009625
809,0.042325,-0.175226,0.027769
810,0.059426,-0.078896,0.027769
811,0.093629,-0.021098,0.009072
812,0.213338,-0.117428,0.009072
813,0.247541,-0.001832,0.027769
814,0.230439,0.075232,-0.009625
815,0.179135,0.13303,-0.028322
816,-0.128689,0.13303,0.009072
817,-0.162891,0.152296,-0.009625
818,-0.197094,0.267892,0.027769
819,-0.026081,0.248626,0.027769
820,-0.008979,0.152296,-0.009625
821,0.025223,0.13303,-0.009625
822,-0.077385,0.113764,0.009072
823,-0.128689,0.0367,-0.009625
824,-0.128689,-0.001832,-0.028322
825,-0.128689,0.055966,0.009072
826,-0.008979,0.0367,0.046465
827,0.093629,-0.040364,-0.028322
828,0.008122,-0.05963,-0.009625
829,0.025223,-0.021098,0.027769
830,-0.060283,-0.021098,0.009072
831,-0.162891,-0.078896,-0.047018
832,-0.008979,-0.098162,-0.009625
833,0.196237,-0.117428,-0.047018
834,0.230439,-0.233024,-0.028322
835,0.247541,-0.252289,-0.028322
836,0.127831,-0.194492,0.009072
837,-0.026081,-0.001832,0.027769
838,-0.094486,0.094498,0.065162
839,-0.111587,0.017434,-0.009625
840,-0.094486,0.075232,-0.028322
841,-0.060283,0.055966,-0.047018
842,-0.094486,0.055966,-0.009625
843,-0.14579,0.094498,-0.009625
844,0.025223,0.0367,0.009072
845,0.127831,-0.001832,0.009072
846,0.196237,0.055966,0.065162
847,0.281743,0.152296,0.046465
848,0.025223,0.094498,0.009072
849,-0.197094,0.0367,-0.009625
850,-0.385209,0.0367,-0.028322
851,-0.299702,0.017434,0.009072
852,0.059426,-0.15596,0.027769
853,0.333048,-0.367885,-0.065715
854,0.144933,-0.579811,-0.047018
855,-0.128689,-0.656875,-0.047018
856,0.008122,-0.464215,-0.084412
857,0.435656,-0.233024,-0.047018
858,0.692176,0.152296,-0.028322
859,-0.299702,0.287158,0.027769
860,-0.351006,0.306424,0.046465
861,-0.179993,0.344956,0.083859
862,-0.128689,0.383488,0.027769
863,-0.060283,0.51835,0.009072
864,-0.026081,0.460552,-0.028322
865,-0.094486,0.171562,-0.028322
866,-0.197094,0.113764,-0.028322
867,-0.179993,0.152296,0.027769
868,-0.077385,0.13303,0.027769
869,0.162034,0.094498,0.009072
870,0.230439,0.017434,0.027769
871,0.11073,-0.021098,0.046465
872,-0.026081,-0.098162,0.027769
873,-0.197094,-0.15596,-0.009625
874,-0.060283,-0.098162,0.027769
875,0.025223,-0.136694,0.009072
876,0.076527,-0.040364,-0.047018
877,0.025223,-0.078896,-0.009625
878,-0.094486,-0.098162,-0.009625
879,0.008122,-0.098162,0.009072
880,0.059426,-0.15596,-0.009625
881,0.127831,-0.15596,-0.009625
882,0.042325,-0.05963,-0.009625
883,0.008122,0.113764,-0.009625
884,0.025223,0.055966,-0.047018
885,-0.162891,0.0367,-0.009625
886,-0.14579,0.13303,0.027769
887,-0.060283,0.113764,0.009072
888,-0.128689,-0.098162,-0.047018
889,0.042325,-0.05963,-0.028322
890,0.162034,0.0367,0.009072
891,0.127831,0.017434,0.009072
892,0.042325,0.0367,0.009072
893,0.059426,0.0367,0.027769
894,-0.128689,0.171562,0.009072
895,0.179135,0.248626,-0.009625
896,0.196237,0.267892,0.046465
897,-0.077385,0.113764,0.027769
898,-0.197094,-0.001832,0.009072
899,0.025223,-0.136694,0.009072
900,0.042325,-0.136694,0.027769
901,0.008122,-0.098162,0.027769
902,-0.008979,-0.194492,0.027769
903,-0.111587,-0.271555,-0.009625
904,-0.043182,-0.213758,-0.065715
905,-0.026081,-0.233024,-0.009625
906,0.350149,-0.310087,0.009072
907,0.469858,-0.040364,0.009072
908,-0.060283,0.267892,-0.028322
909,-0.299702,0.22936,-0.009625
910,-0.316804,0.171562,-0.009625
911,-0.060283,0.267892,-0.028322
912,0.025223,0.383488,0.065162
913,0.076527,0.210094,0.046465
914,-0.043182,0.094498,-0.009625
915,-0.026081,-0.001832,-0.009625
916,-0.008979,0.055966,0.009072
917,-0.043182,0.055966,-0.009625
918,0.076527,-0.021098,-0.028322
919,0.144933,-0.078896,0.009072
920,0.127831,-0.213758,-0.028322
921,-0.248398,-0.348619,-0.009625
922,-0.2655,-0.656875,0.009072
923,0.008122,-0.599077,-0.065715
924,0.213338,-0.367885,-0.009625
925,0.059426,-0.233024,-0.028322
926,0.076527,-0.05963,0.009072
927,0.230439,0.556882,0.027769
928,0.315946,0.653212,0.046465
929,0.11073,0.22936,0.009072
930,-0.282601,0.0367,-0.028322
931,-0.14579,0.055966,-0.047018
932,-0.094486,0.152296,-0.009625
933,-0.094486,0.210094,0.009072
934,-0.008979,0.441286,0.083859
935,0.144933,0.344956,0.046465
936,0.042325,0.113764,-0.009625
937,0.059426,0.0367,-0.047018
938,0.025223,-0.117428,0.009072
939,-0.060283,-0.194492,-0.009625
940,-0.077385,-0.252289,-0.009625
941,-0.128689,-0.310087,0.009072
942,-0.111587,-0.310087,0.027769
943,-0.111587,-0.175226,-0.009625
944,-0.14579,-0.078896,0.009072
945,-0.14579,0.055966,0.027769
946,-0.008979,0.171562,0.009072
947,0.127831,0.190828,-0.009625
948,0.213338,0.248626,0.009072
949,0.144933,0.190828,-0.009625
950,-0.231297,0.152296,0.027769
951,-0.162891,0.094498,0.027769
952,-0.094486,0.055966,-0.028322
953,-0.043182,-0.021098,-0.047018
954,-0.026081,-0.001832,-0.028322
955,-0.008979,-0.05963,-0.028322
956,-0.008979,-0.098162,-0.009625
957,0.059426,-0.117428,0.027769
958,0.025223,-0.175226,0.083859
959,0.008122,-0.15596,0.046465
960,0.008122,-0.15596,0.046465
961,0.144933,-0.252289,0.027769
962,0.418554,-0.290821,-0.028322
963,0.521162,-0.329353,-0.065715
964,0.589568,-0.348619,-0.009625
965,0.521162,-0.367885,-0.065715
966,-0.214196,-0.406417,-0.121806
967,-0.40231,-0.271555,-0.028322
968,-0.197094,0.075232,-0.009625
969,-0.111587,0.51835,0.009072
970,-0.333905,0.364222,0.027769
971,-0.2655,0.190828,0.027769
972,-0.128689,0.383488,0.046465
973,-0.060283,0.460552,0.083859
974,-0.008979,0.441286,0.065162
975,-0.060283,0.22936,-0.009625
976,-0.094486,0.094498,0.009072
977,-0.077385,0.0367,0.046465
978,0.127831,-0.136694,0.009072
979,0.555365,-0.194492,-0.028322
980,0.709277,-0.213758,-0.028322
981,0.281743,0.017434,-0.009625
982,-0.40231,0.113764,-0.009625
983,-0.419412,0.017434,-0.028322
984,-0.2655,-0.078896,-0.028322
985,-0.060283,0.017434,-0.047018
986,-0.111587,0.0367,0.027769
987,-0.128689,-0.040364,0.027769
988,-0.094486,-0.040364,-0.009625
989,-0.060283,-0.021098,-0.028322
990,-0.060283,0.0367,-0.009625
991,-0.060283,0.094498,-0.009625
992,-0.077385,0.210094,0.009072
993,-0.043182,0.094498,0.027769
994,-0.008979,0.017434,-0.009625
995,-0.060283,-0.021098,0.009072
996,-0.026081,-0.078896,0.046465
997,0.059426,-0.15596,-0.009625
998,0.025223,-0.175226,-0.009625
999,-0.094486,-0.15596,-0.047018
1000,-0.060283,-0.271555,-0.047018
1001,0.36725,-0.310087,0.009072
1002,0.572466,-0.117428,0.046465
1003,-0.043182,-0.329353,0.027769
1004,-0.111587,-0.252289,-0.065715
1005,-0.026081,0.210094,-0.009625
1006,0.093629,0.287158,0.027769
1007,0.059426,0.075232,-0.009625
1008,-0.214196,0.113764,0.027769
1009,-0.453614,-0.136694,0.046465
1010,-0.077385,-0.348619,-0.009625
1011,0.076527,-0.233024,-0.009625
1012,0.36725,-0.021098,-0.009625
1013,0.36725,0.094498,-0.009625
1014,0.315946,0.287158,0.009072
1015,-0.111587,0.287158,0.046465
1016,-0.248398,-0.001832,0.046465
1017,-0.248398,-0.040364,-0.009625
1018,0.196237,0.171562,-0.028322
1019,0.48696,0.075232,0.027769
1020,0.162034,-0.310087,-0.009625
1021,-0.316804,-0.560545,-0.065715
1022,-0.368108,-0.618343,-0.047018
1023,0.11073,-0.213758,-0.047018
1024,0.144933,0.441286,-0.028322
1025,-0.128689,0.537616,0.027769
1026,-0.282601,0.22936,0.065162
1027,-0.333905,0.075232,0.027769
1028,-0.40231,0.210094,0.027769
1029,-0.077385,0.479818,0.009072
1030,0.281743,0.595414,-0.009625
1031,0.093629,0.210094,0.046465
1032,-0.026081,0.0367,0.009072
1033,0.076527,-0.021098,0.027769
1034,0.794784,-0.05963,-0.009625
1035,1.051304,-0.233024,-0.047018
1036,0.315946,-0.387151,-0.047018
1037,-0.573324,-0.387151,0.009072
1038,-0.162891,-0.483481,-0.028322
1039,-0.14579,-0.406417,-0.047018
1040,-0.436513,-0.098162,-0.028322
1041,-0.043182,0.287158,0.065162
1042,-0.026081,0.0367,0.027769
1043,-0.043182,-0.021098,0.009072
1044,-0.179993,0.248626,-0.009625
1045,-0.14579,0.383488,0.009072
1046,-0.008979,0.364222,0.027769
1047,0.281743,0.13303,-0.009625
1048,0.350149,0.113764,-0.009625
1049,0.144933,-0.05963,-0.009625
1050,-0.214196,-0.367885,0.009072
1051,-0.2655,-0.406417,0.009072
1052,-0.214196,-0.599077,-0.047018
1053,0.008122,-0.290821,0.009072
1054,0.452757,-0.271555,0.046465
1055,0.435656,-0.348619,0.009072
1056,-0.333905,-0.271555,-0.047018
1057,-0.214196,-0.348619,-0.047018
1058,-0.060283,-0.136694,-0.084412
1059,-0.111587,0.42202,-0.065715
1060,0.144933,1.154128,0.009072
1061,-0.094486,0.90367,0.065162
1062,-0.060283,0.71101,0.065162
1063,-0.14579,0.42202,0.083859
1064,-0.179993,0.267892,0.065162
1065,-0.060283,0.190828,0.027769
1066,0.008122,-0.001832,0.009072
1067,0.059426,-0.040364,0.009072
1068,0.076527,-0.040364,-0.009625
1069,0.11073,-0.021098,0.009072
1070,0.281743,0.113764,0.065162
1071,0.298845,0.171562,0.046465
1072,-0.008979,-0.040364,-0.028322
1073,-0.368108,-0.213758,0.009072
1074,-0.043182,-0.252289,0.009072
1075,0.435656,-0.252289,-0.065715
1076,0.281743,-0.252289,-0.028322
1077,0.008122,-0.136694,-0.028322
1078,-0.385209,-0.05963,-0.047018
1079,-0.316804,-0.136694,-0.028322
1080,-0.060283,-0.098162,-0.009625
1081,-0.043182,0.152296,-0.047018
1082,-0.026081,0.152296,0.009072
1083,-0.094486,0.22936,0.027769
1084,-0.128689,0.094498,0.027769
1085,-0.094486,-0.040364,-0.009625
1086,-0.094486,-0.05963,0.027769
1087,-0.060283,-0.098162,0.009072
1088,-0.008979,-0.136694,-0.009625
1089,0.008122,-0.213758,-0.009625
1090,0.076527,-0.252289,0.046465
1091,0.025223,-0.175226,0.046465
1092,0.025223,-0.194492,-0.009625
1093,0.264642,0.055966,-0.009625
1094,0.162034,0.248626,-0.028322
1095,-0.299702,0.42202,0.027769
1096,0.11073,0.152296,0.065162
1097,0.008122,-0.194492,0.009072
1098,-0.111587,-0.271555,-0.084412
1099,-0.094486,-0.252289,-0.065715
1100,0.025223,-0.001832,-0.065715
1101,-0.008979,0.190828,-0.009625
1102,-0.299702,0.344956,-0.009625
1103,0.059426,0.210094,-0.028322
1104,0.384352,0.190828,-0.009625
1105,0.144933,0.094498,-0.009625
1106,-0.043182,-0.040364,0.009072
1107,-0.2655,-0.078896,0.027769
1108,-0.128689,-0.040364,0.027769
1109,-0.043182,0.017434,0.065162
1110,0.008122,0.055966,0.046465
1111,-0.077385,0.113764,0.027769
1112,-0.043182,0.075232,0.027769
1113,-0.008979,-0.021098,0.009072
1114,0.042325,-0.040364,-0.028322
1115,-0.043182,-0.05963,0.009072
1116,-0.060283,-0.040364,0.009072
1117,-0.008979,-0.021098,0.009072
1118,0.008122,0.017434,0.009072
1119,0.008122,-0.040364,-0.009625
1120,-0.026081,-0.078896,-0.047018
1121,-0.026081,-0.05963,-0.009625
1122,-0.008979,-0.078896,0.009072
1123,0.008122,-0.078896,-0.009625
1124,0.008122,-0.117428,-0.028322
1125,-0.008979,-0.05963,-0.028322
1126,-0.026081,-0.078896,-0.065715
1127,0.179135,-0.001832,-0.065715
1128,0.247541,0.113764,-0.009625
1129,0.179135,0.055966,0.027769
1130,-0.2655,0.017434,0.009072
1131,-0.179993,-0.040364,0.009072
1132,-0.094486,-0.15596,0.009072
1133,-0.026081,-0.117428,-0.009625
1134,-0.026081,-0.117428,-0.028322
1135,-0.043182,0.017434,0.009072
1136,-0.026081,0.0367,-0.009625
1137,0.008122,-0.021098,-0.009625
1138,0.042325,-0.078896,0.027769
1139,-0.008979,-0.098162,-0.028322
1140,-0.060283,-0.136694,-0.065715
1141,-0.094486,-0.194492,-0.028322
1142,-0.043182,-0.213758,0.027769
1143,0.025223,-0.213758,0.027769
1144,-0.008979,-0.136694,0.027769
1145,0.093629,0.0367,0.009072
1146,0.196237,0.0367,-0.065715
1147,0.144933,0.22936,-0.028322
1148,-0.043182,0.51835,0.009072
1149,0.179135,0.441286,-0.009625
1150,0.213338,0.287158,0.046465
1151,-0.077385,0.075232,0.027769
1152,-0.2655,-0.021098,0.009072
1153,-0.14579,-0.040364,-0.009625
1154,-0.043182,0.017434,0.009072
1155,0.008122,0.0367,-0.009625
1156,-0.026081,0.190828,-0.009625
1157,0.008122,0.113764,0.009072
1158,0.008122,0.055966,-0.047018
1159,-0.026081,-0.001832,-0.047018
1160,0.008122,-0.001832,0.009072
1161,0.008122,-0.001832,0.027769
1162,-0.008979,-0.001832,0.009072
1163,0.008122,-0.021098,0.027769
1164,-0.008979,-0.040364,0.046465
1165,-0.008979,-0.136694,0.009072
1166,0.008122,-0.194492,0.027769
1167,-0.026081,-0.233024,0.009072
1168,-0.043182,-0.213758,0.009072
1169,-0.008979,-0.078896,-0.009625
1170,0.008122,0.017434,0.009072
1171,0.025223,-0.021098,-0.028322
1172,-0.026081,-0.001832,-0.028322
1173,-0.008979,0.075232,-0.009625
1174,0.025223,0.075232,0.027769
1175,0.008122,-0.001832,0.046465
1176,-0.026081,-0.05963,0.065162
1177,0.008122,0.017434,0.027769
1178,-0.008979,0.075232,0.027769
1179,-0.008979,0.113764,0.027769
1180,0.008122,0.113764,0.083859
1181,0.008122,0.094498,0.065162
1182,-0.008979,0.017434,0.196039
1183,-0.008979,-0.021098,0.270826
1184,-0.008979,-0.021098,0.196039
1185,-0.008979,-0.001832,0.158646
1186,-0.008979,-0.001832,0.121252
1187,-0.008979,-0.040364,0.027769
1188,-0.008979,-0.05963,0.027769
1189,-0.008979,-0.098162,0.083859
1190,-0.008979,-0.05963,-0.009625
1191,-0.008979,-0.040364,-0.121806
1192,-0.026081,-0.078896,-0.140502
1193,-0.026081,-0.15596,-0.159199
1194,-0.008979,-0.117428,-0.121806
1195,-0.026081,-0.098162,-0.159199
1196,-0.026081,-0.078896,-0.140502
1197,-0.026081,0.017434,-0.196593
1198,0.025223,0.094498,-0.140502
1199,0.042325,-0.001832,-0.084412
1200,0.059426,0.075232,-0.065715
1201,0.042325,0.075232,0.009072
1202,0.025223,0.075232,0.083859
1203,0.008122,0.22936,0.027769
1204,0.042325,0.152296,0.027769
1205,0.008122,-0.05963,-0.009625
1206,-0.060283,-0.194492,0.027769
1207,-0.026081,-0.329353,0.009072
1208,-0.026081,-0.290821,0.009072
1209,-0.043182,-0.021098,-0.028322
1210,-0.026081,0.267892,-0.009625
1211,0.076527,0.460552,0.046465
1212,0.093629,0.344956,0.065162
1213,0.042325,0.152296,0.102556
1214,-0.008979,0.055966,0.102556
1215,-0.008979,0.017434,0.196039
1216,-0.026081,-0.001832,0.233433
1217,-0.008979,-0.001832,0.196039
1218,-0.008979,-0.021098,0.233433
1219,-0.008979,-0.001832,0.177343
1220,-0.008979,-0.021098,0.102556
1221,-0.008979,-0.001832,0.009072
1222,-0.008979,-0.05963,-0.084412
1223,0.008122,-0.194492,-0.215289
1224,-0.008979,-0.213758,-0.233986
1225,-0.026081,-0.290821,-0.233986
1226,-0.043182,-0.233024,-0.215289
1227,-0.008979,0.113764,-0.103109
1228,0.025223,0.13303,-0.028322
1229,0.008122,0.094498,-0.009625
1230,-0.026081,0.113764,0.065162
1231,0.008122,0.190828,0.177343
1232,0.025223,0.094498,0.177343
1233,0.042325,-0.021098,0.158646
1234,0.008122,-0.001832,0.102556
1235,0.008122,-0.001832,0.102556
1236,-0.026081,-0.021098,0.046465
1237,-0.008979,0.0367,0.027769
1238,0.008122,0.055966,-0.103109
1239,-0.026081,0.0367,-0.121806
1240,0.008122,0.0367,-0.103109
1241,0.025223,0.13303,-0.047018
1242,0.025223,0.075232,-0.009625
1243,0.059426,0.017434,0.009072
1244,0.008122,0.017434,-0.009625
1245,0.008122,-0.001832,-0.047018
1246,-0.008979,-0.021098,-0.121806
1247,-0.008979,-0.078896,-0.103109
1248,-0.026081,-0.117428,-0.103109
1249,-0.008979,-0.136694,-0.047018
1250,-0.060283,-0.213758,-0.028322
1251,-0.026081,-0.021098,0.102556
1252,-0.008979,0.075232,0.009072
1253,-0.026081,-0.05963,0.027769
1254,-0.008979,-0.213758,-0.028322
1255,0.025223,-0.310087,-0.028322
1256,0.008122,-0.252289,0.027769
1257,-0.008979,-0.136694,0.009072
1258,0.008122,0.248626,0.046465
1259,0.042325,0.479818,0.046465
1260,0.025223,0.344956,0.027769
1261,0.008122,0.13303,-0.028322
1262,-0.008979,0.0367,-0.009625
1263,-0.008979,-0.001832,-0.047018
1264,0.008122,0.017434,-0.028322
1265,-0.008979,0.0367,0.027769
1266,-0.008979,0.017434,-0.028322
1267,0.008122,-0.021098,-0.028322
1268,-0.008979,-0.05963,0.009072
1269,-0.026081,-0.05963,0.102556
1270,-0.008979,-0.098162,0.36431
1271,-0.008979,-0.001832,0.607368
1272,-0.026081,0.017434,0.626065
1273,-0.008979,-0.021098,0.551278
1274,-0.043182,-0.078896,0.345613
1275,-0.026081,-0.117428,0.214736
1276,-0.026081,-0.078896,0.046465
1277,-0.026081,0.017434,-0.196593
1278,0.008122,0.094498,-0.43965
1279,0.008122,0.094498,-0.533134
1280,0.008122,0.075232,-0.495741
1281,0.042325,0.0367,-0.346167
1282,0.042325,-0.040364,-0.215289
1283,0.025223,-0.021098,-0.159199
1284,0.008122,-0.040364,-0.084412
1285,0.025223,-0.05963,-0.047018
1286,0.025223,-0.021098,-0.065715
1287,0.008122,-0.078896,-0.084412
1288,0.008122,-0.175226,-0.009625
1289,0.025223,-0.136694,-0.009625
1290,0.008122,-0.05963,-0.028322
1291,-0.008979,-0.05963,-0.028322
1292,-0.043182,0.094498,-0.047018
1293,0.008122,0.402754,-0.047018
1294,0.042325,0.364222,0.009072
1295,0.008122,0.190828,0.009072
1296,0.008122,0.094498,0.027769
1297,-0.008979,0.055966,0.046465
1298,0.025223,0.0367,0.065162
1299,-0.008979,0.017434,0.065162
1300,-0.008979,-0.001832,0.065162
1301,-0.008979,0.017434,0.046465
1302,0.008122,-0.021098,-0.009625
1303,-0.008979,-0.040364,-0.009625
1304,0.008122,-0.021098,0.027769
1305,0.008122,-0.021098,0.102556
1306,0.008122,-0.001832,0.102556
1307,-0.008979,-0.021098,0.083859
1308,0.008122,-0.001832,0.158646
1309,-0.008979,-0.05963,0.177343
1310,-0.008979,-0.098162,0.158646
1311,-0.008979,-0.078896,0.139949
1312,-0.008979,-0.078896,0.027769
1313,-0.026081,-0.05963,-0.047018
1314,-0.026081,-0.098162,-0.084412
1315,-0.026081,-0.098162,-0.159199
1316,-0.026081,-0.136694,-0.121806
1317,-0.043182,-0.213758,-0.121806
1318,-0.060283,-0.310087,-0.121806
1319,-0.008979,-0.271555,-0.140502
1320,0.059426,-0.05963,-0.103109
1321,0.059426,0.171562,-0.103109
1322,-0.026081,0.055966,-0.084412
1323,-0.026081,0.248626,-0.065715
1324,0.025223,0.287158,-0.047018
1325,0.008122,0.171562,0.027769
1326,0.008122,-0.001832,0.102556
1327,-0.008979,-0.040364,0.139949
1328,-0.026081,-0.001832,0.177343
1329,-0.008979,-0.05963,0.177343
1330,-0.026081,-0.117428,0.102556
1331,-0.026081,0.017434,0.065162
1332,0.008122,0.017434,-0.009625
1333,0.025223,0.055966,-0.047018
1334,0.042325,0.13303,-0.121806
1335,0.008122,-0.021098,-0.196593
1336,-0.008979,-0.040364,-0.140502
1337,-0.008979,-0.117428,-0.121806
1338,-0.043182,-0.078896,-0.028322
1339,0.025223,0.055966,0.046465
1340,0.042325,0.32569,0.102556
1341,0.025223,0.287158,0.065162
1342,-0.008979,0.13303,0.139949
1343,-0.008979,0.055966,0.121252
1344,0.008122,0.017434,0.046465
1345,-0.008979,0.017434,-0.028322
1346,-0.008979,-0.001832,0.009072
1347,0.008122,0.017434,-0.009625
1348,-0.026081,-0.098162,-0.103109
1349,-0.008979,-0.098162,-0.065715
1350,-0.008979,-0.213758,-0.103109
1351,-0.008979,-0.233024,-0.065715
1352,0.008122,-0.136694,-0.047018
1353,0.008122,-0.001832,-0.028322
1354,-0.008979,0.13303,-0.047018
1355,0.008122,0.190828,-0.009625
1356,0.025223,0.190828,0.009072
1357,-0.008979,0.075232,0.083859
1358,-0.043182,-0.021098,0.139949
1359,-0.008979,0.0367,0.158646
1360,-0.008979,0.075232,0.102556
1361,0.008122,0.0367,0.065162
1362,0.008122,-0.001832,0.046465
1363,0.008122,0.017434,-0.047018
1364,0.025223,0.0367,-0.084412
1365,0.008122,-0.001832,-0.103109
1366,0.008122,-0.040364,-0.084412
1367,0.008122,-0.05963,-0.047018
1368,-0.008979,-0.078896,-0.009625
1369,-0.008979,-0.05963,0.009072
1370,-0.008979,-0.078896,0.009072
1371,0.008122,-0.021098,0.083859
1372,-0.008979,-0.040364,0.139949
1373,-0.026081,-0.078896,0.083859
1374,-0.008979,-0.05963,0.065162
1375,-0.008979,-0.001832,-0.009625
1376,-0.008979,0.055966,0.009072
1377,-0.026081,0.0367,0.009072
1378,-0.008979,0.0367,0.009072
1379,-0.008979,0.017434,-0.047018
1380,0.008122,-0.001832,-0.065715
1381,0.008122,-0.05963,-0.047018
1382,0.008122,-0.021098,-0.065715
1383,0.008122,-0.040364,-0.028322
1384,-0.008979,-0.05963,0.009072
1385,-0.008979,-0.05963,-0.009625
1386,-0.008979,-0.021098,-0.047018
1387,0.008122,-0.021098,-0.009625
1388,0.008122,-0.001832,-0.047018
1389,0.008122,0.0367,-0.103109
1390,-0.008979,0.0367,-0.065715
1391,0.042325,-0.078896,-0.084412
1392,0.008122,-0.15596,-0.065715
1393,0.025223,-0.098162,-0.047018
1394,-0.026081,-0.136694,-0.028322
1395,-0.043182,-0.040364,0.009072
1396,-0.008979,0.113764,0.027769
1397,0.025223,0.210094,0.046465
1398,0.042325,0.248626,0.009072
1399,0.008122,0.13303,-0.009625
1400,-0.026081,-0.021098,-0.047018
1401,0.008122,-0.001832,-0.047018
1402,0.025223,-0.001832,-0.047018
1403,-0.008979,-0.078896,0.009072
1404,-0.026081,-0.078896,0.065162
1405,-0.026081,-0.001832,0.046465
1406,-0.008979,0.055966,0.083859
1407,0.025223,0.113764,0.046465
1408,0.025223,0.13303,0.027769
1409,0.008122,0.113764,0.065162
1410,0.025223,0.055966,0.009072
1411,0.025223,-0.05963,0.009072
1412,-0.026081,-0.136694,0.046465
1413,-0.008979,-0.194492,0.009072
1414,-0.026081,-0.194492,-0.047018
1415,-0.008979,-0.05963,0.027769
1416,0.008122,0.13303,0.121252
1417,0.008122,0.152296,0.139949
1418,0.008122,0.152296,0.177343
1419,0.025223,0.22936,0.177343
1420,-0.008979,0.094498,0.139949
1421,-0.008979,0.017434,0.027769
1422,-0.026081,-0.040364,-0.103109
1423,-0.008979,-0.136694,-0.159199
1424,-0.008979,-0.271555,-0.177896
1425,-0.026081,-0.406417,-0.103109
1426,-0.043182,-0.367885,-0.084412
1427,-0.026081,-0.252289,-0.065715
1428,0.008122,-0.001832,-0.047018
1429,0.042325,0.094498,-0.084412
1430,-0.008979,0.171562,-0.121806
1431,-0.008979,0.267892,-0.065715
1432,0.025223,0.344956,-0.009625
1433,0.042325,0.441286,-0.009625
1434,0.025223,0.287158,-0.009625
1435,0.025223,0.113764,0.009072
1436,-0.008979,0.055966,-0.009625
1437,0.008122,0.017434,0.065162
1438,-0.008979,-0.001832,0.083859
1439,-0.008979,-0.021098,0.065162
1440,0.008122,0.017434,0.046465
1441,0.008122,0.0367,0.027769
1442,-0.008979,-0.021098,-0.028322
1443,0.008122,-0.021098,-0.047018
1444,-0.008979,-0.040364,-0.009625
1445,-0.026081,-0.040364,-0.047018
1446,-0.026081,-0.021098,-0.047018
1447,-0.008979,-0.001832,0.083859
1448,-0.008979,-0.040364,0.102556
1449,-0.026081,-0.078896,0.102556
1450,-0.008979,-0.098162,0.083859
1451,0.008122,-0.078896,0.083859
1452,0.008122,-0.040364,0.027769
1453,-0.008979,-0.021098,-0.028322
1454,-0.008979,0.055966,-0.065715
1455,0.008122,0.075232,-0.065715
1456,0.025223,0.017434,-0.065715
1457,0.008122,-0.001832,0.009072
1458,0.008122,-0.001832,-0.009625
1459,0.008122,-0.021098,0.009072
1460,0.008122,-0.001832,0.065162
1461,-0.008979,0.017434,0.102556
1462,0.008122,0.017434,-0.009625
1463,-0.008979,0.017434,-0.065715
1464,-0.008979,0.055966,-0.084412
1465,-0.008979,-0.001832,-0.103109
1466,-0.008979,0.017434,-0.065715
1467,0.008122,-0.001832,-0.084412
1468,0.008122,-0.001832,-0.009625
1469,-0.008979,-0.021098,0.046465
1470,0.008122,-0.021098,0.102556
1471,-0.026081,-0.021098,0.102556
1472,-0.008979,-0.021098,0.083859
1473,-0.008979,-0.021098,0.027769
1474,-0.008979,-0.040364,0.046465
1475,-0.008979,0.017434,-0.009625
1476,-0.008979,0.055966,-0.047018
1477,0.008122,0.0367,-0.028322
1478,-0.008979,0.017434,0.046465
1479,-0.008979,-0.001832,-0.009625
1480,0.008122,-0.040364,-0.140502
1481,0.008122,-0.05963,-0.140502
1482,-0.008979,-0.05963,-0.084412
1483,-0.008979,-0.078896,0.009072
1484,-0.008979,-0.021098,0.027769
1485,0.008122,-0.040364,0.027769
1486,-0.008979,-0.001832,-0.009625
1487,0.042325,0.113764,0.009072
1488,0.025223,0.094498,0.065162
1489,0.025223,0.094498,0.065162
1490,0.025223,0.0367,0.065162
1491,-0.008979,0.017434,0.027769
1492,-0.026081,0.017434,-0.009625
1493,-0.008979,-0.05963,-0.009625
1494,0.008122,-0.098162,-0.065715
1495,0.008122,-0.078896,-0.065715
1496,-0.008979,-0.136694,-0.047018
1497,-0.008979,-0.098162,0.065162
1498,-0.026081,-0.194492,0.196039
1499,-0.026081,-0.175226,0.139949
1500,-0.026081,-0.098162,0.083859
1501,-0.043182,-0.15596,0.027769
1502,-0.026081,-0.175226,-0.103109
1503,-0.026081,-0.117428,-0.159199
1504,0.025223,-0.021098,-0.159199
1505,0.076527,0.094498,-0.177896
1506,0.008122,0.094498,-0.121806
1507,-0.026081,0.094498,-0.028322
1508,-0.008979,0.13303,0.027769
1509,0.025223,0.306424,-0.009625
1510,0.042325,0.383488,0.027769
1511,0.042325,0.344956,-0.009625
1512,0.025223,0.210094,-0.028322
1513,-0.008979,-0.021098,0.027769
1514,-0.026081,-0.117428,0.065162
1515,0.008122,-0.040364,0.046465
1516,0.025223,0.0367,0.046465
1517,0.008122,-0.021098,0.027769
1518,-0.008979,-0.021098,0.046465
1519,0.025223,0.017434,0.046465
1520,0.008122,0.0367,0.027769
1521,0.008122,0.0367,-0.009625
1522,0.008122,0.075232,-0.009625
1523,0.025223,0.171562,0.009072
1524,0.025223,0.171562,-0.028322
1525,0.008122,-0.001832,-0.009625
1526,0.008122,-0.001832,-0.028322
1527,-0.008979,-0.021098,-0.009625
1528,-0.008979,-0.040364,-0.028322
1529,-0.026081,-0.040364,0.009072
1530,-0.026081,-0.040364,0.102556
1531,-0.008979,-0.040364,0.102556
1532,-0.008979,-0.001832,0.139949
1533,0.025223,0.0367,0.139949
1534,0.008122,-0.001832,0.065162
1535,-0.008979,0.017434,-0.009625
1536,-0.008979,-0.040364,-0.121806
1537,0.008122,-0.021098,-0.159199
1538,0.008122,0.017434,-0.084412
1539,0.008122,-0.021098,-0.084412
1540,0.008122,-0.021098,-0.047018
1541,-0.008979,-0.040364,0.027769
1542,-0.008979,-0.040364,0.065162
1543,-0.008979,-0.040364,0.083859
1544,0.008122,-0.001832,0.065162
1545,0.008122,-0.001832,0.121252
1546,0.025223,-0.021098,0.121252
1547,-0.008979,-0.05963,0.027769
1548,-0.026081,-0.040364,-0.047018
1549,-0.026081,-0.05963,-0.065715
1550,-0.008979,-0.001832,-0.103109
1551,-0.008979,-0.021098,-0.103109
1552,-0.008979,0.017434,-0.028322
1553,0.008122,-0.001832,-0.084412
1554,-0.008979,-0.05963,-0.177896
1555,-0.008979,-0.021098,-0.084412
1556,-0.008979,-0.021098,-0.009625
1557,0.008122,-0.040364,0.121252
1558,-0.008979,-0.040364,0.214736
1559,-0.026081,-0.001832,0.25213
1560,0.008122,0.017434,0.233433
1561,0.008122,0.0367,0.121252
1562,-0.008979,0.017434,-0.159199
1563,0.025223,0.055966,-0.233986
1564,0.008122,0.055966,-0.140502
1565,0.025223,-0.001832,-0.047018
1566,-0.026081,-0.021098,-0.009625
1567,-0.008979,-0.021098,0.009072
1568,0.008122,-0.021098,0.009072
1569,0.008122,-0.001832,-0.009625
1570,-0.008979,-0.001832,-0.009625
1571,0.008122,-0.001832,-0.009625
1572,0.042325,0.017434,0.009072
1573,0.008122,0.017434,0.027769
1574,0.008122,0.017434,0.102556
1575,-0.008979,0.017434,0.065162
1576,0.008122,-0.001832,0.065162
1577,0.008122,0.0367,0.102556
1578,0.008122,0.0367,0.065162
1579,0.025223,-0.021098,-0.047018
1580,-0.008979,-0.021098,-0.065715
1581,-0.008979,-0.05963,-0.028322
1582,-0.008979,-0.05963,0.009072
1583,-0.008979,-0.078896,0.046465
1584,-0.008979,-0.098162,0.027769
1585,-0.043182,-0.078896,-0.009625
1586,-0.008979,-0.078896,-0.028322
1587,0.008122,-0.001832,-0.028322
1588,0.008122,0.113764,-0.028322
1589,0.025223,0.13303,-0.084412
1590,0.025223,0.13303,-0.084412
1591,0.008122,0.094498,-0.084412
1592,0.008122,0.055966,-0.084412
1593,-0.008979,-0.001832,0.009072
1594,-0.008979,-0.175226,0.027769
1595,-0.026081,-0.348619,-0.009625
1596,-0.026081,-0.290821,-0.009625
1597,-0.008979,-0.15596,0.009072
1598,-0.026081,-0.001832,-0.009625
1599,-0.026081,0.113764,0.009072
1600,-0.008979,0.267892,-0.009625
1601,0.042325,0.42202,-0.084412
1602,0.059426,0.267892,-0.009625
1603,0.025223,0.13303,0.027769
1604,-0.008979,0.055966,0.083859
1605,0.008122,0.055966,0.102556
1606,0.025223,0.094498,0.214736
1607,0.008122,0.075232,0.25213
1608,0.025223,0.094498,0.214736
1609,0.025223,0.055966,0.177343
1610,0.025223,0.0367,0.083859
1611,0.008122,-0.040364,-0.047018
1612,-0.008979,-0.078896,-0.121806
1613,-0.008979,-0.05963,-0.177896
1614,-0.026081,-0.078896,-0.215289
1615,-0.060283,-0.117428,-0.121806
1616,-0.026081,-0.021098,-0.065715
1617,0.008122,0.055966,0.009072
1618,0.008122,0.055966,0.046465
1619,-0.008979,-0.001832,-0.047018
1620,-0.026081,-0.040364,-0.084412
1621,-0.008979,-0.001832,-0.084412
1622,0.025223,0.075232,-0.103109
1623,0.025223,0.075232,-0.065715
1624,-0.008979,0.0367,-0.009625
1625,0.008122,-0.001832,-0.009625
1626,-0.008979,-0.021098,-0.103109
1627,-0.008979,-0.021098,-0.084412
1628,-0.008979,-0.001832,-0.009625
1629,0.008122,-0.040364,-0.028322
1630,-0.008979,-0.001832,0.027769
1631,0.008122,-0.021098,0.102556
1632,-0.008979,-0.021098,0.121252
1633,-0.008979,-0.021098,0.046465
1634,-0.008979,-0.001832,0.102556
1635,0.008122,-0.021098,0.102556
1636,0.008122,-0.001832,0.046465
1637,0.008122,-0.001832,0.046465
1638,-0.008979,-0.001832,-0.028322
1639,0.008122,0.0367,-0.009625
1640,-0.008979,-0.001832,-0.028322
1641,0.008122,-0.001832,-0.009625
1642,0.008122,-0.001832,-0.028322
1643,-0.008979,0.017434,0.046465
1644,0.008122,-0.001832,0.027769
1645,-0.026081,0.0367,-0.009625
1646,-0.008979,0.075232,0.009072
1647,0.025223,0.055966,0.046465
1648,0.008122,0.017434,0.009072
1649,0.008122,-0.001832,-0.009625
1650,-0.008979,-0.078896,-0.009625
1651,0.008122,-0.021098,0.027769
1652,-0.008979,-0.021098,-0.009625
1653,0.008122,-0.021098,-0.028322
1654,0.008122,-0.001832,-0.009625
1655,0.008122,0.017434,-0.047018
1656,0.008122,0.0367,-0.009625
1657,0.008122,0.055966,-0.009625
1658,-0.008979,-0.001832,-0.065715
1659,-0.008979,-0.001832,-0.028322
1660,-0.008979,0.0367,-0.009625
1661,-0.026081,-0.001832,-0.047018
1662,-0.008979,-0.001832,0.027769
1663,0.008122,-0.001832,0.046465
1664,0.008122,-0.021098,-0.028322
1665,-0.026081,-0.021098,0.009072
1666,-0.026081,0.017434,-0.047018
1667,-0.008979,-0.001832,0.009072
1668,0.008122,-0.05963,0.027769
1669,-0.008979,-0.05963,0.027769
1670,-0.008979,-0.078896,-0.009625
1671,-0.008979,-0.098162,-0.028322
1672,-0.008979,-0.078896,0.027769
1673,0.008122,-0.078896,0.027769
1674,-0.008979,-0.001832,0.083859
1675,0.008122,0.017434,0.102556
1676,-0.026081,0.017434,0.065162
1677,-0.008979,0.0367,-0.047018
1678,0.008122,0.055966,-0.009625
1679,0.008122,0.017434,-0.047018
1680,-0.008979,0.017434,-0.009625
1681,-0.008979,0.017434,-0.103109
1682,-0.026081,0.055966,-0.047018
1683,0.008122,-0.05963,0.009072
1684,0.008122,-0.05963,0.027769
1685,-0.008979,-0.136694,0.065162
1686,-0.026081,-0.15596,0.009072
1687,-0.026081,-0.194492,0.027769
1688,-0.008979,-0.175226,0.009072
1689,0.008122,-0.078896,-0.177896
1690,-0.008979,-0.021098,-0.103109
1691,-0.008979,-0.021098,-0.028322
1692,-0.026081,0.075232,-0.065715
1693,0.008122,0.190828,-0.009625
1694,0.042325,0.402754,0.027769
1695,0.042325,0.499084,0.027769
1696,0.008122,0.32569,0.009072
1697,0.008122,0.171562,0.046465
1698,0.008122,0.113764,0.009072
1699,0.025223,0.075232,-0.009625
1700,0.008122,0.055966,0.046465
1701,0.008122,0.055966,0.009072
1702,0.008122,0.055966,0.009072
1703,0.008122,0.017434,-0.009625
1704,0.025223,0.017434,0.027769
1705,-0.008979,-0.040364,0.083859
1706,-0.008979,-0.05963,0.102556
1707,0.008122,-0.078896,0.083859
1708,-0.026081,-0.05963,0.083859
1709,0.008122,-0.021098,0.046465
1710,0.008122,0.017434,0.009072
1711,-0.008979,0.017434,-0.047018
1712,-0.026081,-0.021098,-0.140502
1713,-0.008979,-0.05963,-0.103109
1714,-0.008979,-0.05963,-0.103109
1715,0.008122,-0.021098,-0.065715
1716,0.008122,-0.040364,-0.028322
1717,-0.008979,-0.021098,-0.009625
1718,0.008122,-0.021098,-0.009625
1719,-0.008979,0.017434,0.009072
1720,0.025223,0.017434,0.083859
1721,0.008122,-0.021098,0.083859
1722,-0.008979,-0.001832,0.083859
1723,-0.008979,-0.021098,0.027769
1724,-0.026081,-0.001832,-0.009625
1725,-0.008979,-0.001832,-0.028322
1726,-0.008979,-0.021098,-0.028322
1727,0.008122,0.017434,0.027769
1728,0.008122,-0.001832,0.139949
1729,-0.008979,-0.001832,0.196039
1730,0.025223,0.017434,0.270826
1731,-0.008979,0.017434,0.270826
1732,-0.008979,-0.021098,0.233433
1733,-0.008979,-0.021098,0.177343
1734,0.008122,-0.001832,0.009072
1735,0.008122,0.075232,-0.159199
1736,0.025223,0.075232,-0.308773
1737,0.008122,0.0367,-0.364863
1738,-0.008979,-0.001832,-0.252683
1739,-0.008979,-0.05963,-0.196593
1740,-0.008979,-0.040364,-0.103109
1741,-0.008979,-0.021098,0.009072
1742,0.008122,-0.001832,0.027769
1743,-0.008979,-0.001832,-0.009625
1744,-0.008979,-0.001832,0.065162
1745,-0.008979,-0.001832,0.065162
1746,0.008122,0.017434,0.046465
1747,0.008122,0.017434,0.065162
1748,0.025223,0.017434,0.102556
1749,-0.008979,0.017434,-0.047018
1750,0.008122,0.017434,-0.084412
1751,-0.008979,-0.021098,-0.084412
1752,-0.008979,-0.021098,-0.009625
1753,0.008122,-0.021098,0.027769
1754,0.025223,-0.001832,0.046465
1755,0.008122,-0.021098,0.009072
1756,-0.008979,-0.040364,-0.009625
1757,-0.026081,-0.05963,0.009072
1758,-0.026081,-0.117428,-0.009625
1759,-0.026081,-0.078896,-0.047018
1760,-0.026081,-0.021098,0.009072
1761,-0.026081,-0.040364,0.009072
1762,-0.026081,0.017434,0.009072
1763,0.008122,0.094498,0.027769
1764,0.008122,0.094498,0.027769
1765,-0.008979,0.055966,-0.009625
1766,0.008122,-0.001832,-0.047018
1767,0.008122,-0.05963,0.009072
1768,0.008122,-0.001832,-0.009625
1769,-0.008979,-0.040364,-0.009625
1770,-0.026081,-0.15596,0.027769
1771,-0.026081,-0.175226,-0.009625
1772,0.008122,-0.05963,0.046465
1773,0.025223,-0.021098,0.009072
1774,-0.008979,0.0367,0.027769
1775,-0.026081,0.075232,-0.009625
1776,-0.026081,0.171562,0.027769
1777,0.008122,0.22936,-0.009625
1778,0.025223,0.152296,-0.009625
1779,0.025223,0.113764,-0.009625
1780,0.025223,0.075232,-0.009625
1781,0.093629,0.0367,-0.065715
1782,0.008122,0.094498,0.027769
1783,0.008122,0.0367,0.065162
1784,0.008122,0.055966,0.083859
1785,0.025223,0.017434,0.065162
1786,0.008122,-0.001832,0.046465
1787,0.008122,-0.001832,0.046465
1788,-0.008979,0.0367,0.027769
1789,-0.008979,-0.001832,0.009072
1790,-0.008979,-0.040364,0.009072
1791,-0.008979,-0.040364,0.009072
1792,0.008122,0.017434,0.009072
1793,0.008122,0.017434,-0.065715
1794,0.008122,-0.021098,-0.140502
1795,-0.008979,-0.001832,-0.065715
1796,-0.026081,-0.05963,-0.009625
1797,-0.008979,-0.098162,0.046465
1798,0.008122,-0.078896,0.102556
1799,0.008122,-0.078896,0.046465
1800,0.008122,-0.021098,0.009072
1801,0.008122,0.075232,-0.084412
1802,-0.008979,0.075232,-0.140502
1803,0.008122,0.094498,-0.121806
1804,0.008122,0.094498,-0.121806
1805,0.008122,0.055966,-0.047018
1806,0.008122,-0.001832,0.009072
1807,-0.008979,-0.021098,0.027769
1808,-0.008979,-0.001832,0.027769
1809,-0.008979,-0.021098,0.046465
1810,0.008122,0.017434,0.046465
1811,-0.008979,-0.001832,0.009072
1812,0.025223,0.017434,0.009072
1813,-0.026081,-0.040364,0.009072
1814,-0.008979,-0.001832,0.027769
1815,0.008122,-0.001832,0.083859
1816,-0.008979,-0.001832,0.046465
1817,0.025223,-0.001832,0.046465
1818,0.025223,0.017434,0.046465
1819,0.008122,-0.001832,-0.009625
1820,-0.008979,-0.021098,-0.047018
1821,0.008122,-0.021098,-0.028322
1822,-0.008979,0.017434,0.009072
1823,-0.008979,-0.001832,-0.028322
1824,0.008122,-0.001832,0.065162
1825,0.008122,0.017434,0.027769
1826,0.008122,0.017434,0.046465
1827,0.008122,-0.001832,0.009072
1828,0.008122,-0.021098,0.027769
1829,0.008122,-0.021098,-0.028322
1830,-0.008979,-0.001832,-0.028322
1831,-0.008979,-0.021098,-0.028322
1832,-0.008979,-0.05963,-0.065715
1833,-0.026081,-0.040364,-0.009625
1834,-0.008979,-0.040364,-0.009625
1835,-0.008979,-0.001832,0.009072
1836,0.008122,-0.001832,-0.028322
1837,-0.008979,-0.001832,-0.047018
1838,0.025223,0.017434,-0.121806
1839,-0.008979,0.0367,-0.028322
1840,-0.008979,0.017434,0.065162
1841,0.008122,0.055966,0.102556
1842,-0.008979,0.0367,0.102556
1843,0.008122,0.055966,0.083859
1844,0.008122,0.055966,0.046465
1845,-0.008979,-0.001832,-0.009625
1846,-0.026081,-0.040364,0.009072
1847,-0.026081,-0.040364,0.027769
1848,-0.026081,-0.040364,-0.028322
1849,-0.026081,-0.05963,0.027769
1850,0.008122,-0.098162,0.027769
1851,-0.008979,-0.194492,-0.047018
1852,-0.008979,-0.15596,-0.009625
1853,0.025223,-0.040364,-0.084412
1854,0.025223,0.0367,-0.121806
1855,0.008122,0.0367,-0.084412
1856,-0.026081,0.0367,-0.028322
1857,-0.008979,0.055966,-0.065715
1858,0.025223,0.210094,-0.028322
1859,-0.008979,0.13303,-0.009625
1860,-0.008979,0.017434,0.027769
1861,-0.008979,0.075232,0.009072
1862,0.025223,0.075232,0.046465
1863,0.042325,0.094498,0.027769
1864,0.025223,0.055966,-0.009625
1865,0.008122,0.017434,-0.009625
1866,0.008122,-0.001832,-0.009625
1867,-0.008979,0.017434,-0.028322
1868,0.008122,-0.001832,0.009072
1869,0.008122,-0.001832,0.046465
1870,0.008122,0.017434,0.009072
1871,0.008122,-0.001832,0.027769
1872,0.008122,0.017434,0.009072
1873,-0.008979,-0.001832,0.027769
1874,-0.008979,-0.001832,0.009072
1875,0.008122,0.017434,0.009072
1876,-0.008979,-0.001832,0.046465
1877,-0.008979,-0.021098,0.009072
1878,-0.008979,-0.040364,0.046465
1879,-0.008979,-0.05963,0.009072
1880,-0.026081,-0.098162,0.009072
1881,-0.008979,-0.194492,-0.009625
1882,-0.008979,-0.175226,-0.028322
1883,-0.008979,-0.117428,-0.009625
1884,-0.043182,-0.078896,0.009072
1885,-0.043182,0.017434,-0.028322
1886,0.008122,0.113764,-0.009625
1887,0.059426,0.210094,-0.009625
1888,0.042325,0.248626,0.027769
1889,0.025223,0.152296,-0.009625
1890,0.008122,0.075232,0.027769
1891,-0.008979,0.055966,0.046465
1892,-0.008979,0.0367,0.046465
1893,-0.008979,0.017434,0.027769
1894,0.008122,-0.001832,0.027769
1895,-0.008979,0.017434,0.009072
1896,-0.026081,0.017434,-0.009625
1897,0.008122,0.017434,-0.028322
1898,0.008122,-0.021098,-0.047018
1899,0.008122,-0.001832,-0.065715
1900,0.008122,-0.021098,0.046465
1901,0.008122,-0.021098,0.083859
1902,0.008122,-0.001832,0.083859
1903,0.025223,-0.021098,0.083859
1904,0.008122,-0.001832,0.065162
1905,0.025223,-0.001832,0.009072
1906,0.008122,-0.021098,-0.065715
1907,-0.008979,-0.021098,-0.047018
1908,-0.008979,-0.001832,-0.065715
1909,0.008122,0.017434,-0.103109
1910,-0.008979,-0.001832,-0.047018
1911,-0.008979,-0.001832,-0.028322
1912,-0.008979,-0.021098,0.009072
1913,0.008122,-0.040364,0.009072
1914,-0.008979,-0.040364,0.009072
1915,0.008122,-0.001832,0.027769
1916,0.008122,-0.001832,0.083859
1917,-0.008979,-0.001832,0.027769
1918,-0.008979,-0.001832,-0.009625
1919,-0.008979,-0.021098,0.009072
1920,-0.008979,-0.021098,-0.028322
1921,-0.008979,0.017434,-0.103109
1922,-0.008979,-0.001832,-0.084412
1923,0.025223,-0.040364,-0.047018
1924,0.025223,0.0367,0.009072
1925,0.008122,0.017434,-0.009625
1926,0.008122,0.017434,-0.009625
1927,0.008122,0.017434,-0.009625
1928,-0.008979,0.017434,0.027769
1929,-0.008979,-0.021098,0.046465
1930,0.008122,-0.040364,0.046465
1931,0.008122,-0.001832,0.046465
1932,0.008122,0.017434,0.065162
1933,-0.008979,-0.021098,0.027769
1934,0.008122,-0.001832,0.009072
1935,0.008122,0.017434,-0.009625
1936,-0.008979,-0.040364,-0.009625
1937,-0.008979,-0.05963,-0.047018
1938,0.008122,-0.040364,0.027769
1939,0.008122,-0.021098,0.027769
1940,0.008122,0.017434,0.027769
1941,0.008122,0.017434,0.046465
1942,-0.008979,0.055966,0.027769
1943,-0.008979,0.0367,-0.028322
1944,-0.008979,-0.05963,-0.009625
1945,0.008122,-0.117428,-0.028322
1946,-0.008979,-0.136694,-0.047018
1947,-0.008979,-0.078896,-0.028322
1948,-0.008979,-0.021098,-0.028322
1949,0.008122,0.017434,-0.028322
1950,-0.008979,0.075232,-0.009625
1951,0.008122,0.152296,0.009072
1952,0.025223,0.190828,-0.065715
1953,0.008122,0.13303,-0.065715
1954,0.008122,0.075232,-0.009625
1955,-0.008979,0.017434,0.009072
1956,-0.008979,-0.040364,0.046465
1957,0.008122,-0.117428,0.065162
1958,-0.008979,-0.136694,0.046465
1959,-0.026081,-0.136694,0.009072
1960,-0.043182,-0.098162,-0.065715
1961,-0.043182,-0.040364,-0.084412
1962,-0.008979,0.075232,-0.047018
1963,0.008122,0.113764,-0.009625
1964,0.025223,0.113764,0.009072
1965,0.025223,0.113764,0.009072
1966,0.042325,0.017434,0.027769
1967,0.025223,-0.021098,0.065162
1968,0.008122,-0.021098,0.046465
1969,-0.026081,-0.021098,0.009072
1970,-0.008979,-0.001832,0.009072
1971,-0.008979,0.094498,-0.028322
1972,0.008122,0.075232,-0.028322
1973,0.025223,0.113764,0.009072
1974,0.025223,0.0367,-0.009625
1975,0.025223,0.017434,0.027769
1976,0.008122,-0.098162,0.046465
1977,0.008122,-0.098162,0.065162
1978,-0.008979,-0.098162,0.046465
1979,-0.026081,-0.098162,0.046465
1980,-0.026081,-0.040364,0.027769
1981,-0.008979,-0.021098,-0.047018
1982,0.008122,0.075232,-0.065715
1983,0.025223,0.094498,-0.009625
1984,0.025223,0.075232,-0.028322
1985,0.025223,-0.001832,0.009072
1986,0.008122,-0.021098,-0.028322
1987,-0.008979,0.017434,-0.009625
1988,0.093629,0.0367,0.009072
1989,0.008122,0.055966,0.046465
1990,0.008122,0.075232,0.027769
1991,0.008122,0.055966,0.009072
1992,0.008122,0.017434,0.046465
1993,0.008122,-0.001832,0.046465
1994,-0.008979,-0.001832,0.009072
1995,0.025223,-0.021098,-0.028322
1996,0.025223,-0.001832,-0.047018
1997,0.008122,-0.001832,-0.065715
1998,-0.008979,0.017434,-0.047018
1999,0.008122,-0.001832,0.027769
2000,-0.008979,0.017434,0.009072
2001,-0.008979,-0.021098,0.027769
2002,-0.008979,-0.021098,0.027769
2003,0.008122,-0.001832,0.009072
2004,0.008122,0.0367,0.009072
2005,0.008122,-0.001832,-0.009625
2006,0.008122,-0.001832,-0.009625
2007,0.008122,-0.001832,0.083859
2008,-0.008979,-0.021098,0.139949
2009,0.008122,-0.021098,0.158646
2010,-0.008979,-0.001832,0.102556
2011,-0.026081,-0.021098,0.065162
2012,-0.008979,-0.05963,-0.047018
2013,0.008122,-0.040364,-0.140502
2014,-0.008979,-0.05963,-0.084412
2015,0.008122,-0.040364,-0.121806
2016,-0.008979,-0.040364,-0.177896
2017,-0.008979,-0.001832,-0.103109
2018,0.008122,0.017434,-0.028322
2019,0.008122,0.0367,0.009072
2020,0.008122,0.0367,0.046465
2021,-0.008979,0.017434,0.046465
2022,0.008122,-0.001832,-0.009625
2023,0.008122,0.017434,0.046465
2024,0.008122,-0.021098,0.009072
2025,0.008122,-0.001832,0.009072
2026,-0.008979,0.017434,0.009072
2027,0.008122,-0.001832,0.065162
2028,0.025223,0.017434,0.009072
2029,0.025223,0.017434,0.046465
2030,0.008122,-0.001832,0.065162
2031,0.008122,-0.001832,0.046465
2032,0.008122,-0.001832,0.027769
2033,-0.008979,-0.001832,0.046465
2034,0.008122,0.017434,-0.028322
2035,0.008122,0.017434,-0.028322
2036,0.008122,-0.001832,-0.028322
2037,-0.008979,-0.040364,-0.047018
2038,-0.026081,-0.05963,-0.103109
2039,0.008122,-0.021098,-0.028322
2040,-0.008979,-0.021098,0.027769
2041,-0.008979,-0.078896,0.027769
2042,-0.008979,-0.05963,0.065162
2043,-0.026081,-0.040364,0.083859
2044,-0.008979,-0.001832,0.083859
2045,0.008122,0.0367,0.046465
2046,-0.008979,0.017434,0.009072
2047,-0.008979,0.017434,-0.028322
2048,-0.008979,0.017434,-0.047018
2049,0.025223,0.055966,-0.065715
2050,-0.008979,0.0367,-0.159199
2051,0.025223,-0.021098,-0.084412
2052,-0.008979,-0.078896,0.009072
2053,-0.026081,-0.040364,0.046465
2054,0.008122,0.017434,0.009072
2055,0.008122,0.0367,0.065162
2056,-0.008979,0.017434,0.027769
2057,0.008122,-0.001832,-0.009625
2058,0.008122,0.017434,-0.084412
2059,0.008122,0.0367,-0.009625
2060,0.008122,-0.001832,-0.009625
2061,-0.008979,-0.021098,0.027769
2062,-0.008979,-0.001832,0.046465
2063,-0.008979,-0.001832,0.027769
2064,0.008122,0.0367,0.027769
2065,0.008122,0.0367,0.009072
2066,-0.008979,0.017434,-0.047018
2067,0.025223,0.017434,-0.009625
2068,0.025223,0.113764,0.009072
2069,-0.008979,0.0367,0.027769
2070,0.008122,0.0367,0.046465
2071,0.025223,-0.001832,0.083859
2072,-0.008979,-0.021098,0.065162
2073,0.008122,-0.040364,0.027769
2074,0.008122,-0.040364,0.009072
2075,0.025223,-0.001832,-0.009625
2076,0.008122,-0.001832,-0.009625
2077,-0.008979,0.017434,0.009072
2078,0.008122,0.055966,-0.028322
2079,0.025223,0.0367,-0.065715
2080,0.025223,-0.021098,-0.047018
2081,-0.008979,-0.040364,-0.028322
2082,0.008122,-0.021098,-0.047018
2083,0.008122,-0.001832,0.009072
2084,-0.008979,0.055966,0.027769
2085,-0.008979,-0.001832,0.027769
2086,0.008122,0.017434,-0.028322
2087,0.025223,0.0367,0.027769
2088,-0.008979,0.017434,0.009072
2089,0.008122,0.017434,-0.009625
2090,0.008122,0.017434,-0.009625
2091,-0.008979,-0.021098,-0.028322
2092,0.008122,-0.021098,-0.028322
2093,0.008122,-0.001832,0.009072
2094,0.008122,0.017434,0.027769
2095,0.025223,0.017434,0.027769
2096,-0.008979,-0.001832,0.027769
2097,-0.026081,-0.001832,0.027769
2098,-0.026081,-0.021098,-0.047018
2099,-0.008979,-0.021098,-0.047018
2100,0.008122,-0.021098,-0.028322
2101,0.008122,0.0367,-0.009625
2102,0.008122,0.017434,-0.028322
2103,0.042325,-0.001832,0.009072
2104,0.008122,-0.001832,-0.028322
2105,0.008122,-0.001832,0.009072
2106,0.008122,0.017434,0.009072
2107,0.025223,0.017434,0.083859
2108,0.008122,-0.021098,0.102556
2109,-0.008979,-0.040364,0.102556
2110,-0.008979,-0.05963,0.046465
2111,0.008122,-0.040364,0.009072
2112,0.008122,-0.001832,-0.047018
2113,-0.043182,-0.021098,-0.084412
2114,0.008122,-0.001832,-0.047018
2115,-0.008979,0.0367,0.027769
2116,-0.008979,0.055966,0.102556
2117,0.008122,0.017434,0.102556
2118,-0.008979,-0.021098,0.065162
2119,-0.026081,-0.021098,0.046465
2120,0.025223,-0.040364,0.009072
2121,-0.008979,-0.040364,-0.047018
2122,0.008122,-0.021098,-0.084412
2123,-0.008979,-0.021098,-0.103109
2124,-0.008979,0.017434,0.009072
2125,-0.026081,0.017434,0.009072
2126,-0.008979,0.017434,-0.009625
2127,0.008122,0.0367,-0.084412
2128,0.008122,0.055966,-0.065715
2129,0.008122,0.075232,-0.028322
2130,0.008122,0.0367,-0.009625
2131,-0.008979,0.017434,-0.009625
2132,0.008122,0.017434,-0.009625
2133,0.025223,0.017434,-0.047018
2134,0.025223,0.017434,-0.009625
2135,-0.008979,0.017434,0.027769
2136,-0.008979,-0.05963,0.046465
2137,0.008122,-0.05963,0.027769
2138,-0.008979,-0.040364,0.009072
2139,0.008122,-0.05963,-0.009625
2140,0.008122,-0.078896,-0.009625
2141,-0.008979,-0.040364,-0.084412
2142,-0.008979,0.0367,-0.047018
2143,0.008122,0.075232,-0.009625
2144,-0.026081,0.0367,0.009072
2145,-0.026081,-0.021098,0.027769
2146,0.008122,0.0367,0.046465
2147,0.008122,0.055966,0.027769
2148,0.008122,0.0367,0.009072
2149,0.025223,-0.001832,-0.009625
2150,-0.008979,-0.05963,-0.009625
2151,0.008122,-0.040364,-0.028322
2152,0.008122,0.017434,-0.009625
2153,0.008122,-0.021098,-0.009625
2154,-0.008979,-0.021098,0.009072
2155,-0.008979,-0.021098,-0.028322
2156,-0.008979,-0.040364,-0.009625
2157,0.025223,0.017434,0.027769
2158,0.008122,-0.021098,0.027769
2159,0.008122,-0.021098,0.046465
2160,0.008122,0.0367,0.046465
2161,-0.008979,0.055966,0.009072
2162,0.008122,0.094498,-0.009625
2163,-0.008979,0.094498,0.027769
2164,-0.008979,0.055966,-0.009625
2165,0.008122,0.055966,0.009072
2166,0.042325,0.0367,0.009072
2167,0.008122,0.0367,-0.009625
2168,0.008122,-0.001832,-0.009625
2169,-0.008979,-0.021098,0.027769
2170,-0.008979,0.017434,0.046465
2171,-0.008979,-0.001832,0.046465
2172,0.008122,-0.001832,0.065162
2173,-0.008979,-0.021098,0.027769
2174,0.008122,-0.001832,-0.009625
2175,0.008122,-0.001832,-0.065715
2176,0.008122,-0.040364,-0.084412
2177,-0.008979,-0.040364,-0.065715
2178,0.008122,-0.05963,-0.009625
2179,0.025223,0.017434,0.009072
2180,0.008122,0.017434,0.009072
2181,-0.008979,-0.021098,0.009072
2182,-0.008979,-0.001832,0.027769
2183,0.025223,0.0367,0.009072
2184,0.025223,0.094498,-0.009625
2185,0.008122,0.0367,0.046465
2186,0.008122,0.0367,0.009072
2187,0.025223,0.017434,-0.047018
2188,0.025223,0.017434,-0.028322
2189,-0.026081,-0.001832,0.027769
2190,0.008122,0.017434,0.009072
2191,-0.026081,-0.001832,0.027769
2192,0.008122,-0.001832,0.009072
2193,0.008122,-0.001832,-0.009625
2194,-0.008979,0.017434,0.046465
2195,-0.008979,-0.001832,0.009072
2196,-0.008979,-0.001832,-0.009625
2197,-0.008979,-0.021098,-0.009625
2198,-0.008979,-0.001832,0.046465
2199,0.008122,0.017434,-0.028322
2200,-0.008979,-0.001832,-0.047018
2201,0.008122,-0.001832,-0.028322
2202,-0.008979,0.017434,-0.009625
2203,0.008122,-0.021098,0.027769
2204,0.008122,-0.001832,0.027769
2205,-0.008979,-0.021098,-0.009625
2206,0.008122,-0.001832,0.027769
2207,0.008122,-0.05963,0.009072
2208,-0.008979,-0.05963,0.009072
2209,0.008122,0.017434,0.009072
2210,0.008122,0.017434,-0.009625
2211,-0.008979,-0.001832,0.009072
2212,-0.008979,0.0367,-0.065715
2213,0.008122,0.0367,-0.028322
2214,0.008122,0.017434,-0.028322
2215,0.025223,0.017434,-0.028322
2216,0.008122,0.0367,-0.009625
2217,0.025223,0.0367,0.046465
2218,0.008122,-0.001832,0.027769
2219,0.008122,-0.001832,0.027769
2220,0.008122,-0.001832,0.027769
2221,0.008122,-0.001832,0.009072
2222,-0.026081,-0.001832,-0.047018
2223,0.008122,-0.001832,-0.009625
2224,-0.008979,0.017434,-0.028322
2225,-0.026081,0.017434,-0.028322
2226,-0.026081,-0.001832,-0.009625
2227,-0.026081,-0.001832,-0.009625
2228,-0.008979,-0.001832,-0.028322
2229,0.008122,-0.001832,0.009072
2230,0.025223,-0.021098,-0.009625
2231,0.008122,0.0367,-0.009625
2232,0.025223,0.017434,0.009072
2233,0.025223,0.017434,0.046465
2234,0.008122,-0.021098,0.046465
2235,0.008122,-0.021098,0.046465
2236,0.025223,-0.05963,0.046465
2237,0.008122,-0.021098,0.027769
2238,0.025223,-0.001832,-0.009625
2239,0.008122,-0.021098,-0.028322
2240,-0.008979,-0.040364,-0.047018
2241,-0.008979,-0.021098,-0.084412
2242,-0.008979,0.0367,0.009072
2243,-0.008979,0.075232,0.065162
2244,0.008122,0.075232,0.046465
2245,-0.026081,0.055966,0.046465
2246,-0.008979,-0.001832,0.046465
2247,0.008122,-0.021098,-0.028322
2248,0.008122,-0.001832,0.009072
2249,-0.008979,0.017434,0.009072
2250,-0.008979,0.017434,-0.047018
2251,-0.008979,0.017434,-0.028322
2252,0.008122,0.017434,-0.009625
2253,-0.008979,-0.001832,-0.028322
2254,-0.008979,-0.040364,-0.009625
2255,0.008122,-0.05963,0.046465
2256,-0.026081,-0.040364,0.046465
2257,0.008122,-0.040364,0.046465
2258,-0.008979,-0.078896,0.046465
2259,-0.008979,-0.021098,-0.009625
2260,-0.008979,-0.001832,0.009072
2261,-0.008979,0.055966,0.009072
2262,-0.008979,0.055966,-0.065715
2263,-0.008979,0.0367,-0.028322
2264,-0.008979,-0.040364,0.009072
2265,0.008122,-0.078896,0.027769
2266,0.025223,-0.098162,-0.065715
2267,-0.008979,-0.078896,-0.009625
2268,-0.008979,-0.021098,0.046465
2269,-0.008979,0.017434,0.009072
2270,0.008122,0.094498,-0.047018
2271,0.008122,0.13303,-0.047018
2272,0.008122,0.152296,0.027769
2273,0.042325,0.152296,0.009072
2274,0.008122,0.113764,0.009072
2275,-0.026081,-0.001832,-0.028322
2276,0.008122,0.017434,-0.028322
2277,-0.008979,-0.040364,-0.028322
2278,-0.026081,-0.078896,0.027769
2279,-0.026081,-0.05963,0.046465
2280,-0.008979,-0.021098,0.046465
2281,-0.008979,0.017434,0.009072
2282,-0.008979,0.017434,-0.009625
2283,-0.008979,0.055966,-0.009625
2284,0.008122,0.055966,0.009072
2285,0.008122,0.075232,-0.047018
2286,0.008122,0.0367,-0.009625
2287,0.008122,-0.05963,0.009072
2288,0.008122,-0.05963,-0.009625
2289,-0.008979,-0.05963,-0.009625
2290,0.008122,0.017434,0.065162
2291,0.008122,0.075232,0.009072
2292,0.008122,0.017434,-0.009625
2293,0.042325,0.055966,0.009072
2294,0.008122,0.055966,-0.009625
2295,0.025223,0.0367,-0.009625
2296,-0.008979,-0.001832,0.065162
2297,-0.008979,-0.001832,0.027769
2298,0.008122,-0.021098,0.027769
2299,0.025223,-0.040364,0.046465
2300,-0.008979,-0.001832,0.009072
2301,-0.026081,-0.001832,-0.065715
2302,-0.008979,-0.021098,-0.009625
2303,-0.026081,-0.021098,-0.009625
2304,0.008122,-0.001832,-0.009625
2305,0.008122,0.017434,-0.065715
2306,0.008122,-0.021098,-0.065715
2307,-0.008979,-0.021098,-0.028322
2308,-0.008979,-0.021098,0.027769
2309,-0.008979,-0.021098,0.027769
2310,-0.008979,0.017434,0.046465
2311,0.008122,0.017434,0.027769
2312,0.008122,0.017434,0.046465
2313,-0.008979,0.017434,-0.009625
2314,-0.008979,-0.001832,0.009072
2315,0.008122,-0.021098,0.009072
2316,0.008122,-0.001832,0.009072
2317,0.008122,0.017434,0.009072
2318,-0.008979,-0.001832,-0.009625
2319,-0.008979,-0.021098,0.009072
2320,0.008122,-0.040364,0.009072
2321,-0.008979,-0.05963,0.009072
2322,0.008122,-0.040364,0.027769
2323,0.008122,-0.001832,0.009072
2324,0.025223,0.017434,0.046465
2325,-0.008979,0.017434,0.027769
2326,0.008122,0.017434,-0.009625
2327,-0.008979,0.0367,-0.028322
2328,-0.008979,0.017434,-0.009625
2329,0.008122,0.017434,-0.047018
2330,-0.008979,-0.001832,-0.028322
2331,0.008122,0.017434,0.046465
2332,0.008122,0.017434,0.065162
2333,0.008122,0.0367,0.065162
2334,-0.026081,0.0367,0.102556
2335,-0.008979,-0.001832,0.121252
2336,0.008122,0.017434,0.065162
2337,0.008122,0.017434,-0.103109
2338,0.025223,0.017434,-0.047018
2339,0.008122,-0.001832,-0.065715
2340,-0.008979,-0.001832,-0.084412
2341,-0.008979,0.017434,-0.028322
2342,0.008122,-0.001832,-0.047018
2343,0.008122,-0.021098,-0.009625
2344,0.008122,0.017434,0.009072
2345,0.008122,-0.021098,0.027769
2346,0.008122,-0.021098,0.046465
2347,-0.008979,-0.078896,0.009072
2348,-0.008979,-0.05963,-0.028322
2349,-0.026081,-0.05963,-0.065715
2350,0.008122,-0.040364,-0.047018
2351,-0.008979,-0.021098,-0.065715
2352,-0.008979,0.017434,-0.047018
2353,-0.008979,0.017434,-0.009625
2354,0.025223,0.094498,0.046465
2355,0.025223,0.075232,0.027769
2356,0.008122,0.075232,0.046465
2357,0.008122,0.0367,-0.009625
2358,-0.008979,0.017434,-0.028322
2359,-0.008979,0.017434,-0.028322
2360,0.008122,-0.021098,-0.009625
2361,-0.008979,-0.001832,-0.009625
2362,0.008122,0.017434,0.027769
2363,-0.026081,0.017434,0.009072
2364,-0.008979,0.017434,0.027769
2365,0.008122,0.017434,0.009072
2366,0.008122,-0.001832,0.027769
2367,-0.026081,-0.021098,0.009072
2368,-0.008979,-0.021098,-0.028322
2369,-0.008979,-0.001832,0.009072
2370,-0.008979,-0.040364,-0.009625
2371,0.008122,-0.001832,-0.028322
2372,-0.008979,0.017434,0.009072
2373,0.008122,-0.001832,-0.009625
2374,0.008122,-0.021098,0.046465
2375,0.008122,-0.021098,0.065162
2376,-0.008979,-0.021098,0.083859
2377,-0.008979,-0.05963,0.046465
2378,-0.008979,-0.05963,0.009072
2379,0.008122,-0.021098,-0.047018
2380,-0.008979,-0.040364,-0.047018
2381,-0.026081,-0.021098,-0.065715
2382,-0.008979,0.017434,-0.065715
2383,-0.008979,0.075232,-0.047018
2384,0.008122,0.055966,0.027769
2385,-0.008979,0.075232,0.065162
2386,-0.008979,0.075232,0.027769
2387,0.008122,0.0367,0.065162
2388,-0.008979,0.055966,0.102556
2389,0.008122,0.055966,0.009072
2390,0.008122,0.055966,-0.084412
2391,0.008122,0.017434,-0.065715
2392,-0.008979,0.017434,-0.028322
2393,-0.008979,-0.001832,-0.009625
2394,-0.008979,-0.021098,0.009072
2395,0.008122,-0.040364,0.009072
2396,-0.008979,-0.078896,0.027769
2397,-0.008979,-0.078896,0.046465
2398,0.025223,-0.021098,0.046465
2399,-0.008979,-0.021098,0.009072
2400,0.008122,0.017434,0.027769
2401,-0.008979,0.0367,-0.065715
2402,-0.008979,0.017434,-0.047018
2403,-0.008979,0.017434,0.009072
2404,-0.008979,0.0367,0.009072
2405,0.008122,-0.001832,-0.009625
2406,0.008122,0.0367,-0.009625
2407,0.008122,-0.021098,0.009072
2408,-0.008979,-0.021098,0.009072
2409,-0.008979,0.017434,-0.028322
2410,0.008122,0.0367,0.065162
2411,-0.008979,0.055966,0.009072
2412,-0.008979,0.075232,-0.009625
2413,0.008122,0.0367,0.027769
2414,0.025223,0.017434,0.009072
2415,0.008122,0.017434,-0.028322
2416,-0.008979,-0.021098,-0.028322
2417,-0.008979,0.017434,0.009072
2418,-0.026081,-0.021098,-0.009625
2419,-0.008979,-0.021098,-0.009625
2420,-0.008979,-0.001832,0.009072
2421,0.008122,0.0367,0.009072
2422,0.008122,0.017434,0.046465
2423,0.008122,-0.001832,0.009072
2424,-0.008979,-0.021098,0.009072
2425,-0.008979,-0.021098,0.009072
2426,-0.008979,-0.040364,0.027769
2427,0.008122,-0.040364,-0.028322
2428,-0.008979,-0.040364,0.009072
2429,-0.008979,-0.001832,0.009072
2430,0.008122,0.017434,0.009072
2431,0.008122,0.017434,0.009072
2432,0.008122,0.055966,0.027769
2433,0.025223,0.0367,-0.028322
2434,-0.008979,-0.021098,-0.047018
2435,0.008122,-0.117428,-0.047018
2436,0.008122,-0.136694,-0.028322
2437,0.008122,-0.136694,-0.028322
2438,-0.026081,-0.117428,0.027769
2439,-0.008979,-0.078896,0.083859
2440,-0.026081,0.0367,0.083859
2441,0.008122,0.190828,0.083859
2442,0.008122,0.248626,0.046465
2443,0.025223,0.171562,-0.009625
2444,0.008122,0.075232,-0.103109
2445,0.008122,-0.001832,-0.084412
2446,-0.008979,0.017434,-0.028322
2447,-0.008979,-0.001832,-0.028322
2448,-0.008979,0.017434,-0.009625
2449,-0.008979,0.017434,-0.047018
2450,0.008122,-0.021098,-0.028322
2451,0.008122,-0.040364,0.027769
2452,0.008122,-0.05963,0.046465
2453,0.008122,-0.078896,0.009072
2454,-0.008979,-0.078896,0.027769
2455,-0.043182,-0.040364,0.009072
2456,0.008122,0.017434,-0.047018
2457,0.025223,0.017434,-0.009625
2458,0.008122,0.094498,0.009072
2459,0.008122,0.094498,0.009072
2460,0.008122,0.094498,0.065162
2461,-0.008979,0.075232,0.083859
2462,0.008122,0.017434,0.102556
2463,0.008122,-0.021098,0.083859
2464,0.008122,-0.021098,0.065162
2465,0.025223,-0.021098,-0.065715
2466,0.008122,-0.040364,-0.084412
2467,0.008122,-0.001832,-0.047018
2468,0.008122,0.017434,-0.047018
2469,0.008122,-0.001832,-0.047018
2470,0.008122,-0.001832,0.009072
2471,-0.008979,0.017434,0.046465
2472,0.008122,-0.001832,0.046465
2473,0.008122,-0.021098,0.027769
2474,0.008122,-0.021098,-0.028322
2475,-0.008979,-0.040364,-0.103109
2476,-0.026081,-0.021098,-0.047018
2477,0.008122,-0.001832,-0.009625
2478,-0.008979,-0.001832,-0.009625
2479,-0.008979,-0.021098,-0.028322
2480,0.008122,-0.021098,0.009072
2481,-0.008979,-0.040364,-0.009625
2482,0.008122,0.0367,0.046465
2483,0.008122,-0.001832,0.046465
2484,0.008122,-0.001832,0.046465
2485,0.008122,-0.001832,0.027769
2486,0.025223,0.017434,0.027769
2487,0.025223,-0.021098,0.009072
2488,0.008122,0.017434,-0.047018
2489,0.008122,-0.021098,-0.028322
2490,0.025223,-0.001832,-0.009625
2491,0.008122,-0.021098,-0.028322
2492,0.008122,-0.021098,0.009072
2493,0.008122,-0.021098,0.009072
2494,-0.008979,-0.021098,-0.009625
2495,-0.008979,-0.001832,0.027769
2496,0.008122,-0.021098,0.027769
2497,-0.008979,-0.021098,0.009072
2498,0.008122,-0.001832,-0.028322
2499,0.008122,0.0367,0.009072
2500,0.008122,0.017434,-0.009625
2501,0.008122,-0.001832,-0.028322
2502,0.008122,0.017434,0.027769
2503,0.008122,-0.001832,0.009072
2504,0.008122,0.0367,0.027769
2505,0.008122,-0.040364,0.046465
2506,0.008122,0.017434,0.065162
2507,-0.008979,-0.021098,-0.009625
2508,0.008122,-0.040364,-0.009625
2509,0.008122,-0.001832,-0.047018
2510,-0.008979,-0.040364,-0.028322
2511,-0.008979,-0.021098,-0.028322
2512,-0.008979,0.0367,0.027769
2513,-0.008979,0.017434,-0.028322
2514,0.008122,-0.001832,-0.028322
2515,-0.008979,-0.040364,-0.009625
2516,-0.008979,-0.001832,-0.009625
2517,0.008122,-0.021098,-0.009625
2518,0.008122,-0.001832,0.046465
2519,-0.008979,-0.021098,0.027769
2520,-0.008979,0.017434,0.009072
2521,-0.008979,0.055966,0.046465
2522,0.008122,0.094498,0.027769
2523,0.025223,0.094498,-0.047018
2524,0.008122,0.017434,-0.028322
2525,-0.008979,-0.001832,-0.009625
2526,-0.026081,-0.040364,-0.047018
2527,-0.026081,-0.05963,-0.009625
2528,-0.008979,-0.001832,-0.009625
2529,0.008122,0.0367,0.009072
2530,0.025223,0.055966,0.027769
2531,0.008122,-0.001832,0.046465
2532,0.008122,-0.040364,-0.028322
2533,0.008122,-0.05963,-0.028322
2534,-0.026081,-0.078896,-0.028322
2535,0.008122,-0.040364,-0.028322
2536,0.008122,-0.040364,-0.009625
2537,0.008122,-0.001832,0.027769
2538,0.008122,-0.001832,0.046465
2539,-0.008979,0.0367,0.027769
2540,-0.008979,0.113764,0.065162
2541,-0.008979,0.113764,0.065162
2542,0.008122,0.055966,0.046465
2543,0.008122,0.0367,0.009072
2544,0.008122,-0.001832,0.009072
2545,-0.008979,-0.021098,-0.009625
2546,-0.026081,0.0367,-0.084412
2547,0.008122,-0.021098,-0.009625
2548,0.008122,-0.021098,-0.065715
2549,0.008122,0.017434,-0.047018
2550,-0.026081,-0.021098,0.009072
2551,0.008122,0.017434,0.046465
2552,0.025223,-0.001832,0.009072
2553,0.008122,-0.001832,0.046465
2554,-0.008979,-0.021098,0.027769
2555,0.008122,-0.001832,-0.028322
2556,0.008122,-0.001832,-0.028322
2557,0.008122,-0.021098,-0.047018
2558,0.008122,-0.001832,-0.009625
2559,-0.008979,-0.001832,0.009072
2560,-0.008979,0.017434,0.027769
2561,-0.008979,0.017434,0.027769
2562,-0.008979,-0.001832,-0.009625
2563,0.008122,-0.001832,0.009072
2564,-0.008979,0.0367,0.027769
2565,-0.008979,-0.021098,0.009072
2566,-0.008979,-0.040364,0.027769
2567,-0.026081,-0.040364,0.009072
2568,0.025223,-0.001832,-0.009625
2569,0.008122,-0.001832,0.009072
2570,-0.008979,-0.040364,-0.009625
2571,0.008122,-0.021098,0.009072
2572,-0.008979,-0.021098,0.046465
2573,0.008122,0.0367,0.027769
2574,0.008122,0.075232,0.009072
2575,0.008122,0.017434,0.027769
2576,-0.008979,0.017434,0.027769
2577,-0.008979,-0.021098,-0.009625
2578,0.025223,-0.001832,-0.028322
2579,0.008122,-0.001832,-0.009625
2580,-0.008979,-0.001832,-0.047018
2581,-0.008979,-0.001832,-0.028322
2582,0.008122,-0.021098,0.009072
2583,0.025223,-0.001832,-0.009625
2584,0.008122,-0.001832,0.009072
2585,0.008122,0.017434,0.046465
2586,-0.008979,-0.021098,0.027769
2587,-0.008979,-0.021098,-0.009625
2588,0.008122,0.055966,-0.009625
2589,0.008122,0.017434,-0.009625
2590,0.008122,-0.001832,-0.028322
2591,0.025223,0.0367,0.009072
2592,0.008122,-0.001832,0.046465
2593,0.008122,-0.021098,0.027769
2594,0.008122,0.017434,0.065162
2595,-0.008979,-0.021098,0.027769
2596,0.008122,-0.021098,0.027769
2597,-0.026081,0.017434,-0.009625
2598,-0.008979,-0.001832,-0.047018
2599,-0.008979,-0.040364,-0.065715
2600,0.025223,-0.001832,-0.009625
2601,0.008122,-0.040364,0.009072
2602,-0.008979,-0.040364,-0.028322
2603,0.008122,-0.021098,0.009072
2604,-0.008979,-0.040364,0.027769
2605,-0.008979,-0.021098,0.046465
2606,-0.008979,-0.001832,0.027769
2607,-0.008979,0.055966,0.046465
2608,0.008122,0.0367,0.009072
2609,0.008122,0.075232,-0.009625
2610,0.008122,0.0367,-0.065715
2611,0.008122,0.055966,-0.047018
2612,0.008122,-0.021098,-0.009625
2613,-0.026081,-0.021098,0.065162
2614,0.008122,0.017434,0.083859
2615,-0.008979,0.017434,0.046465
2616,-0.008979,0.017434,0.027769
2617,0.025223,-0.021098,0.027769
2618,0.008122,-0.021098,-0.047018
2619,0.025223,-0.001832,-0.121806
2620,0.025223,0.0367,-0.047018
2621,0.008122,0.017434,-0.028322
2622,0.008122,0.0367,-0.065715
2623,0.008122,0.0367,-0.009625
2624,0.025223,0.055966,0.009072
2625,0.025223,-0.078896,0.009072
2626,-0.008979,-0.15596,0.046465
2627,0.008122,-0.15596,0.027769
2628,0.008122,-0.117428,0.009072
2629,0.008122,-0.05963,0.027769
2630,0.008122,-0.001832,0.027769
2631,-0.026081,0.075232,-0.009625
2632,-0.008979,0.152296,-0.028322
2633,-0.008979,0.171562,0.009072
2634,0.008122,0.171562,-0.028322
2635,0.008122,0.055966,0.009072
2636,-0.008979,0.017434,0.027769
2637,0.008122,0.0367,0.065162
2638,0.008122,0.0367,0.027769
2639,0.008122,0.055966,0.046465
2640,-0.008979,-0.021098,0.027769
2641,-0.008979,0.017434,0.027769
2642,-0.008979,0.0367,0.027769
2643,0.008122,0.017434,0.027769
2644,0.008122,-0.001832,-0.047018
2645,-0.008979,-0.040364,0.009072
2646,0.008122,-0.05963,0.009072
2647,-0.008979,-0.040364,-0.009625
2648,0.008122,-0.021098,-0.009625
2649,0.008122,-0.021098,-0.028322
2650,-0.008979,-0.021098,-0.028322
2651,0.008122,-0.001832,-0.028322
2652,0.008122,0.017434,-0.009625
2653,-0.008979,0.0367,0.009072
2654,0.008122,0.055966,-0.009625
2655,0.008122,0.017434,-0.009625
2656,0.008122,0.0367,-0.028322
2657,-0.008979,0.017434,0.027769
2658,-0.008979,-0.001832,0.027769
2659,-0.008979,0.017434,0.046465
2660,-0.026081,-0.021098,0.009072
2661,-0.008979,-0.021098,0.009072
2662,0.008122,-0.001832,0.027769
2663,0.008122,-0.021098,-0.047018
2664,-0.008979,-0.001832,-0.047018
2665,0.025223,-0.001832,-0.028322
2666,0.008122,0.017434,-0.047018
2667,0.008122,-0.001832,-0.009625
2668,-0.008979,-0.001832,-0.028322
2669,-0.008979,0.017434,0.046465
2670,-0.008979,-0.021098,-0.009625
2671,-0.008979,0.017434,0.027769
2672,0.008122,-0.021098,0.027769
2673,-0.008979,-0.001832,0.046465
2674,-0.008979,-0.001832,0.065162
2675,-0.008979,-0.001832,0.009072
2676,-0.008979,0.017434,-0.009625
2677,0.008122,0.017434,-0.028322
2678,0.008122,-0.001832,-0.009625
2679,0.025223,-0.021098,-0.065715
2680,-0.008979,-0.040364,-0.047018
2681,-0.008979,-0.021098,-0.009625
2682,0.008122,-0.021098,0.009072
2683,-0.008979,-0.001832,0.027769
2684,-0.008979,-0.001832,0.009072
2685,0.008122,-0.001832,-0.009625
2686,-0.008979,0.0367,-0.009625
2687,0.008122,-0.001832,-0.009625
2688,-0.008979,-0.001832,-0.028322
2689,0.008122,-0.021098,0.009072
2690,-0.026081,-0.021098,0.027769
2691,-0.008979,-0.05963,0.046465
2692,-0.008979,-0.021098,0.027769
2693,-0.008979,-0.040364,0.027769
2694,0.008122,0.017434,-0.009625
2695,0.008122,-0.001832,-0.047018
2696,-0.008979,-0.040364,0.009072
2697,0.008122,-0.001832,0.009072
2698,0.008122,-0.021098,-0.009625
2699,0.008122,-0.040364,-0.009625
2700,0.008122,-0.001832,0.027769
2701,0.008122,-0.001832,0.009072
2702,0.008122,0.017434,0.009072
2703,-0.008979,0.0367,-0.009625
2704,-0.026081,-0.040364,-0.047018
2705,-0.026081,-0.05963,-0.047018
2706,-0.008979,-0.05963,-0.009625
2707,-0.008979,-0.021098,0.009072
2708,0.025223,-0.040364,-0.009625
2709,0.008122,0.0367,-0.028322
2710,0.008122,0.113764,-0.009625
2711,0.093629,0.13303,-0.028322
2712,0.008122,0.171562,-0.009625
2713,0.025223,0.152296,-0.009625
2714,0.008122,0.055966,0.009072
2715,-0.008979,-0.05963,0.009072
2716,0.008122,-0.05963,0.027769
2717,0.008122,-0.040364,0.009072
2718,0.008122,-0.021098,-0.009625
2719,-0.008979,-0.001832,0.009072
2720,-0.026081,0.075232,0.027769
2721,0.008122,0.055966,0.027769
2722,0.008122,0.152296,0.065162
2723,0.025223,0.113764,0.065162
2724,0.025223,0.055966,0.009072
2725,0.008122,0.055966,0.046465
2726,0.008122,-0.001832,-0.047018
2727,-0.008979,0.017434,-0.028322
2728,-0.008979,-0.021098,0.027769
2729,-0.008979,-0.05963,0.009072
2730,-0.008979,-0.001832,0.009072
2731,0.008122,-0.001832,-0.028322
2732,0.008122,0.017434,-0.028322
2733,0.008122,-0.05963,-0.047018
2734,-0.008979,-0.021098,0.009072
2735,-0.008979,-0.021098,0.009072
2736,0.008122,-0.040364,0.027769
2737,0.008122,-0.021098,0.009072
2738,0.008122,-0.001832,0.046465
2739,0.008122,-0.001832,0.009072
2740,0.008122,-0.021098,-0.028322
2741,-0.008979,-0.001832,-0.047018
2742,-0.008979,-0.001832,-0.028322
2743,0.008122,-0.001832,-0.009625
2744,0.008122,-0.001832,0.027769
2745,-0.008979,-0.021098,0.009072
2746,0.008122,-0.001832,-0.009625
2747,0.025223,-0.001832,0.027769
2748,-0.008979,-0.021098,0.065162
2749,0.025223,0.017434,0.065162
2750,0.008122,0.017434,0.083859
2751,0.008122,-0.001832,0.065162
2752,0.008122,0.017434,0.046465
2753,0.008122,0.017434,-0.009625
2754,0.008122,-0.001832,-0.047018
2755,0.008122,0.017434,-0.140502
2756,-0.008979,-0.040364,-0.047018
2757,0.008122,0.0367,-0.009625
2758,0.008122,0.017434,0.009072
2759,0.008122,-0.021098,0.027769
2760,-0.008979,-0.021098,0.009072
2761,0.008122,-0.021098,0.009072
2762,0.025223,-0.021098,-0.047018
2763,-0.008979,-0.040364,-0.047018
2764,0.008122,-0.021098,-0.028322
2765,-0.008979,-0.021098,-0.009625
2766,0.008122,-0.001832,0.009072
2767,0.008122,-0.001832,0.027769
2768,0.025223,-0.001832,-0.009625
2769,0.008122,-0.001832,0.009072
2770,0.008122,0.017434,0.046465
2771,0.008122,0.017434,0.027769
2772,-0.008979,-0.001832,-0.009625
2773,-0.008979,-0.001832,-0.009625
2774,-0.008979,-0.001832,-0.009625
2775,0.025223,0.017434,-0.028322
2776,0.008122,-0.001832,-0.009625
2777,-0.026081,0.017434,-0.028322
2778,-0.008979,-0.001832,-0.028322
2779,-0.008979,-0.040364,0.009072
2780,0.008122,-0.001832,0.046465
2781,0.008122,0.0367,0.009072
2782,0.008122,-0.001832,0.027769
2783,0.008122,-0.001832,0.009072
2784,0.025223,0.017434,-0.009625
2785,-0.008979,0.017434,-0.028322
2786,0.008122,-0.001832,-0.009625
2787,0.008122,-0.021098,0.009072
2788,0.025223,-0.001832,0.027769
2789,0.008122,0.017434,0.009072
2790,-0.008979,0.017434,0.046465
2791,-0.026081,-0.001832,0.027769
2792,0.008122,0.017434,0.065162
2793,0.008122,0.017434,0.046465
2794,-0.008979,-0.001832,-0.009625
2795,0.025223,0.017434,0.027769
2796,-0.008979,-0.021098,-0.047018
2797,-0.008979,-0.021098,-0.084412
2798,0.008122,-0.001832,-0.065715
2799,-0.008979,-0.021098,-0.028322
2800,0.008122,0.017434,-0.047018
2801,0.025223,-0.001832,0.009072
2802,0.008122,-0.001832,0.027769
2803,0.008122,-0.021098,0.046465
2804,0.008122,0.0367,-0.009625
2805,0.008122,-0.001832,0.027769
2806,-0.008979,-0.001832,0.009072
2807,-0.008979,-0.040364,-0.009625
2808,-0.008979,-0.021098,0.009072
2809,-0.008979,-0.05963,0.009072
2810,-0.026081,-0.040364,-0.009625
2811,-0.008979,-0.05963,0.065162
2812,-0.026081,-0.136694,0.083859
2813,-0.008979,-0.117428,0.083859
2814,-0.008979,-0.098162,0.027769
2815,-0.026081,-0.098162,-0.121806
2816,-0.008979,-0.078896,-0.140502
2817,0.008122,0.017434,-0.121806
2818,0.008122,0.113764,-0.065715
2819,0.025223,0.190828,-0.028322
2820,0.042325,0.22936,-0.009625
2821,0.042325,0.152296,0.027769
2822,0.008122,0.094498,-0.009625
2823,-0.008979,0.075232,-0.009625
2824,0.008122,0.075232,0.027769
2825,0.008122,0.055966,0.046465
2826,0.008122,0.0367,0.027769
2827,0.008122,0.0367,0.046465
2828,-0.008979,0.075232,-0.009625
2829,0.025223,0.055966,0.009072
2830,0.025223,-0.001832,0.009072
2831,-0.008979,-0.040364,0.027769
2832,0.008122,-0.078896,-0.009625
2833,-0.008979,-0.078896,-0.009625
2834,0.008122,-0.040364,0.009072
2835,-0.008979,-0.001832,0.009072
2836,-0.026081,-0.001832,0.009072
2837,0.008122,0.017434,0.027769
2838,0.025223,0.075232,0.009072
2839,0.008122,0.075232,0.009072
2840,0.025223,0.094498,0.046465
2841,0.008122,0.055966,0.027769
2842,-0.008979,0.017434,-0.009625
2843,-0.008979,-0.001832,-0.009625
2844,0.008122,-0.001832,-0.009625
2845,0.008122,-0.001832,-0.009625
2846,-0.008979,-0.001832,0.009072
2847,0.008122,-0.021098,0.009072
2848,-0.008979,0.017434,-0.009625
2849,0.008122,0.017434,0.027769
2850,0.008122,0.017434,0.009072
2851,0.008122,-0.001832,-0.009625
2852,-0.008979,0.017434,0.009072
2853,-0.008979,-0.001832,0.027769
2854,-0.008979,-0.001832,-0.028322
2855,0.008122,-0.021098,-0.028322
2856,-0.026081,-0.021098,-0.009625
2857,-0.026081,-0.021098,-0.009625
2858,-0.008979,-0.040364,-0.009625
2859,-0.008979,-0.021098,0.027769
2860,-0.026081,-0.05963,0.009072
2861,0.008122,-0.021098,0.009072
2862,0.008122,-0.040364,0.027769
2863,0.008122,-0.001832,0.009072
2864,0.008122,0.0367,0.009072
2865,0.025223,0.017434,-0.028322
2866,0.008122,0.017434,-0.009625
2867,0.025223,0.0367,-0.009625
2868,0.025223,-0.001832,-0.009625
2869,0.008122,0.017434,-0.009625
2870,0.008122,0.017434,0.009072
2871,0.008122,0.017434,0.009072
2872,0.008122,-0.021098,0.027769
2873,-0.008979,-0.040364,0.046465
2874,-0.008979,-0.001832,0.009072
2875,0.008122,-0.001832,0.009072
2876,-0.008979,-0.001832,0.046465
2877,-0.008979,-0.001832,-0.009625
2878,-0.008979,-0.001832,0.009072
2879,-0.008979,-0.021098,0.046465
2880,-0.008979,-0.021098,-0.009625
2881,-0.026081,-0.05963,0.009072
2882,0.008122,-0.040364,-0.009625
2883,0.008122,-0.001832,-0.047018
2884,-0.008979,-0.001832,-0.047018
2885,0.008122,-0.001832,-0.065715
2886,0.008122,0.017434,-0.065715
2887,0.008122,0.0367,-0.047018
2888,0.025223,0.017434,0.009072
2889,-0.008979,-0.021098,-0.009625
2890,0.008122,0.017434,0.027769
2891,0.008122,0.017434,0.027769
2892,-0.008979,0.017434,0.046465
2893,-0.008979,-0.021098,0.009072
2894,-0.008979,-0.040364,-0.047018
2895,-0.008979,-0.040364,-0.047018
2896,0.025223,-0.001832,-0.028322
2897,0.025223,0.017434,-0.047018
2898,0.025223,0.0367,-0.009625
2899,0.008122,0.0367,-0.028322
2900,-0.008979,0.0367,-0.009625
2901,-0.008979,0.017434,0.009072
2902,-0.008979,-0.021098,0.027769
2903,-0.008979,-0.040364,0.027769
2904,0.008122,-0.001832,0.046465
2905,0.008122,0.017434,0.046465
2906,0.008122,0.0367,0.027769
2907,-0.008979,0.0367,0.027769
2908,0.008122,-0.001832,0.009072
2909,0.008122,-0.001832,0.009072
2910,-0.026081,0.017434,-0.009625
2911,-0.008979,-0.001832,-0.009625
2912,-0.026081,0.017434,-0.028322
2913,-0.008979,-0.001832,0.009072
2914,-0.008979,-0.040364,0.027769
2915,-0.008979,-0.001832,0.009072
2916,-0.008979,0.0367,0.009072
2917,0.008122,0.017434,0.046465
2918,-0.008979,-0.001832,0.009072
2919,0.008122,-0.001832,-0.009625
2920,0.025223,0.017434,-0.028322
2921,0.008122,-0.021098,0.009072
2922,0.008122,-0.021098,-0.009625
2923,0.008122,-0.001832,-0.009625
2924,0.008122,-0.040364,0.065162
2925,-0.008979,-0.05963,0.046465
2926,0.008122,-0.001832,0.083859
2927,-0.008979,-0.001832,0.083859
2928,0.008122,0.017434,0.027769
2929,-0.008979,-0.001832,-0.028322
2930,0.008122,-0.001832,-0.028322
2931,0.025223,-0.001832,-0.065715
2932,0.008122,-0.021098,-0.084412
2933,0.008122,0.017434,0.009072
2934,-0.008979,0.017434,0.009072
2935,0.008122,0.017434,-0.028322
2936,-0.008979,-0.001832,-0.047018
2937,-0.008979,-0.040364,0.009072
2938,-0.008979,-0.021098,0.009072
2939,0.008122,-0.001832,0.027769
2940,-0.043182,-0.021098,0.009072
2941,-0.026081,-0.098162,0.027769
2942,0.008122,-0.078896,0.009072
2943,-0.026081,-0.05963,-0.028322
2944,-0.008979,-0.021098,-0.028322
2945,0.008122,0.0367,0.027769
2946,0.008122,0.055966,-0.047018
2947,0.008122,0.055966,-0.065715
2948,0.025223,0.075232,-0.047018
2949,0.008122,0.094498,0.027769
2950,0.008122,0.055966,0.009072
2951,0.008122,0.017434,0.009072
2952,0.025223,0.017434,-0.009625
2953,0.008122,0.017434,-0.028322
2954,0.008122,0.017434,-0.028322
2955,0.008122,-0.001832,0.027769
2956,-0.008979,-0.021098,0.009072
2957,-0.008979,-0.001832,0.009072
2958,0.008122,-0.001832,0.027769
2959,-0.008979,-0.001832,0.027769
2960,-0.008979,-0.05963,0.009072
2961,-0.008979,-0.05963,0.009072
2962,0.008122,-0.040364,0.027769
2963,-0.008979,-0.078896,-0.009625
2964,0.008122,-0.040364,-0.009625
2965,-0.008979,-0.021098,-0.009625
2966,-0.008979,0.017434,-0.009625
2967,-0.008979,0.094498,-0.009625
2968,0.008122,0.075232,0.009072
2969,0.008122,0.094498,0.027769
2970,0.025223,0.055966,-0.009625
2971,0.008122,0.0367,0.027769
2972,-0.008979,0.0367,0.027769
2973,-0.008979,0.017434,0.009072
2974,0.008122,-0.001832,0.009072
2975,-0.008979,0.017434,0.009072
2976,-0.008979,-0.001832,-0.009625
2977,0.008122,-0.001832,-0.009625
2978,0.008122,-0.001832,0.009072
2979,-0.008979,-0.001832,-0.028322
2980,0.008122,-0.021098,-0.009625
2981,0.008122,-0.001832,0.009072
2982,0.008122,-0.040364,-0.009625
2983,-0.008979,-0.001832,-0.009625
2984,-0.008979,-0.021098,0.009072
2985,0.025223,-0.001832,-0.009625
2986,-0.008979,-0.040364,-0.028322
2987,0.008122,-0.021098,-0.028322
2988,0.008122,-0.040364,-0.009625
2989,-0.008979,-0.040364,-0.009625
2990,0.008122,-0.05963,0.009072
2991,-0.008979,-0.021098,0.027769
2992,0.008122,-0.040364,0.027769
2993,-0.008979,-0.040364,0.027769
2994,-0.008979,-0.040364,0.046465
2995,0.025223,-0.040364,0.009072
2996,0.008122,0.055966,-0.009625
2997,0.008122,0.075232,0.009072
2998,0.008122,0.055966,-0.028322
2999,0.008122,0.055966,-0.009625
3000,0.008122,0.075232,0.027769
3001,0.008122,0.055966,0.065162
3002,0.025223,0.0367,0.046465
3003,0.008122,0.055966,0.009072
3004,-0.008979,0.0367,0.009072
3005,-0.008979,0.0367,0.009072
3006,-0.026081,0.017434,0.009072
3007,0.025223,0.017434,-0.065715
3008,0.008122,-0.001832,-0.028322
3009,0.008122,-0.001832,0.009072
3010,0.008122,0.017434,0.046465
3011,0.025223,-0.001832,0.065162
3012,0.025223,-0.001832,0.065162
3013,0.008122,-0.001832,0.046465
3014,0.008122,-0.001832,0.046465
3015,-0.008979,-0.021098,0.009072
3016,0.008122,-0.021098,-0.065715
3017,0.008122,-0.040364,-0.028322
3018,-0.008979,-0.021098,-0.065715
3019,0.008122,-0.040364,-0.009625
3020,0.008122,-0.021098,-0.065715
3021,-0.008979,-0.021098,-0.084412
3022,0.008122,-0.021098,0.027769
3023,-0.008979,0.017434,0.046465
3024,-0.008979,-0.021098,0.009072
3025,-0.008979,-0.001832,0.009072
3026,0.008122,-0.001832,-0.009625
3027,-0.008979,-0.001832,-0.065715
3028,0.008122,0.017434,0.027769
3029,-0.008979,-0.001832,-0.009625
3030,-0.008979,-0.001832,-0.028322
3031,0.008122,-0.001832,-0.009625
3032,-0.008979,-0.001832,0.009072
3033,0.008122,-0.001832,-0.028322
3034,-0.008979,-0.001832,-0.009625
3035,0.008122,0.017434,0.009072
3036,0.008122,-0.001832,0.046465
3037,0.025223,0.017434,0.009072
3038,0.008122,-0.001832,0.027769
3039,-0.008979,-0.001832,0.027769
3040,-0.008979,-0.001832,0.027769
3041,0.008122,-0.001832,0.009072
3042,0.008122,0.017434,-0.028322
3043,-0.008979,0.017434,-0.009625
3044,-0.008979,0.017434,0.009072
3045,-0.026081,0.055966,-0.009625
3046,-0.008979,-0.001832,-0.028322
3047,-0.008979,-0.001832,0.009072
3048,0.008122,0.017434,0.027769
3049,0.008122,-0.021098,0.027769
3050,0.025223,-0.021098,0.027769
3051,0.008122,-0.001832,0.046465
3052,-0.008979,-0.021098,0.009072
3053,-0.008979,-0.001832,-0.028322
3054,0.008122,-0.001832,-0.009625
3055,0.008122,-0.001832,-0.084412
3056,0.008122,-0.021098,-0.028322
3057,-0.008979,-0.001832,0.009072
3058,0.008122,-0.021098,0.027769
3059,0.025223,0.017434,0.009072
3060,-0.008979,-0.001832,0.027769
3061,-0.008979,-0.001832,0.009072
3062,-0.008979,-0.001832,0.009072
3063,0.008122,-0.001832,-0.028322
3064,0.008122,-0.001832,-0.028322
3065,0.008122,0.017434,-0.028322
3066,0.008122,-0.001832,-0.028322
3067,0.025223,-0.001832,0.027769
3068,0.025223,-0.021098,0.027769
3069,0.008122,0.017434,0.027769
3070,-0.008979,0.0367,0.046465
3071,-0.008979,0.017434,0.046465
3072,0.008122,0.0367,0.102556
3073,-0.008979,-0.001832,0.009072
3074,-0.008979,-0.001832,-0.028322
3075,-0.008979,-0.001832,-0.028322
3076,0.008122,-0.001832,0.009072
3077,0.008122,0.017434,0.046465
3078,0.008122,-0.001832,0.102556
3079,0.008122,0.017434,0.102556
3080,-0.008979,-0.040364,0.102556
3081,-0.008979,-0.021098,0.027769
3082,-0.008979,-0.05963,0.046465
3083,-0.008979,-0.117428,-0.009625
3084,-0.026081,-0.15596,-0.121806
3085,-0.008979,-0.078896,-0.084412
3086,-0.008979,0.017434,-0.177896
3087,-0.008979,0.017434,-0.196593
3088,-0.026081,0.017434,-0.065715
3089,-0.008979,0.055966,-0.009625
3090,0.008122,0.094498,0.027769
3091,0.025223,0.094498,0.009072
3092,0.025223,0.017434,0.046465
3093,0.008122,-0.001832,0.027769
3094,0.008122,-0.040364,-0.028322
3095,-0.008979,-0.001832,0.027769
3096,-0.008979,0.0367,0.027769
3097,0.025223,0.017434,-0.047018
3098,0.025223,0.075232,-0.009625
3099,-0.008979,0.113764,0.009072
3100,0.008122,0.055966,0.009072
3101,0.008122,0.0367,0.009072
3102,0.008122,-0.001832,0.046465
3103,-0.008979,-0.021098,0.027769
3104,-0.008979,-0.05963,0.027769
3105,-0.008979,-0.05963,0.009072
3106,-0.008979,-0.001832,-0.009625
3107,-0.008979,-0.05963,-0.009625
3108,-0.008979,-0.040364,-0.028322
3109,-0.008979,0.017434,-0.047018
3110,0.008122,0.017434,0.009072
3111,0.008122,0.075232,0.027769
3112,0.008122,0.094498,0.046465
3113,0.025223,0.075232,0.027769
3114,0.025223,0.075232,0.027769
3115,0.008122,0.0367,0.009072
3116,0.008122,0.055966,0.027769
3117,-0.026081,0.017434,0.046465
3118,-0.008979,-0.021098,-0.009625
3119,-0.008979,-0.021098,-0.028322
3120,-0.008979,-0.040364,0.009072
3121,0.008122,-0.040364,0.009072
3122,0.008122,0.017434,0.009072
3123,0.025223,0.017434,0.046465
3124,-0.008979,0.0367,0.046465
3125,0.008122,0.017434,0.009072
3126,-0.008979,0.017434,0.027769
3127,-0.008979,-0.021098,-0.028322
3128,0.025223,-0.001832,-0.028322
3129,-0.008979,0.017434,-0.028322
3130,0.008122,-0.001832,-0.009625
3131,0.025223,0.017434,-0.028322
3132,-0.008979,-0.001832,-0.009625
3133,0.008122,-0.001832,0.027769
3134,0.025223,-0.001832,0.027769
3135,0.008122,-0.001832,0.027769
3136,0.008122,0.0367,0.046465
3137,0.008122,0.017434,0.027769
3138,-0.026081,-0.021098,-0.009625
3139,-0.008979,-0.021098,-0.009625
3140,-0.008979,-0.040364,-0.047018
3141,-0.008979,-0.021098,-0.047018
3142,-0.008979,-0.021098,-0.028322
3143,-0.008979,-0.021098,0.009072
3144,0.008122,-0.021098,0.027769
3145,-0.008979,-0.021098,0.065162
3146,0.008122,-0.040364,0.083859
3147,-0.008979,-0.021098,0.046465
3148,0.042325,-0.021098,0.083859
3149,0.025223,-0.05963,0.009072
3150,-0.008979,-0.040364,-0.047018
3151,0.008122,-0.021098,-0.028322
3152,0.008122,-0.001832,-0.009625
3153,0.025223,0.055966,-0.047018
3154,0.025223,0.094498,0.009072
3155,0.008122,0.094498,0.009072
3156,0.025223,0.075232,-0.047018
3157,-0.008979,0.017434,-0.009625
3158,0.008122,0.017434,-0.009625
3159,0.008122,0.017434,-0.028322
3160,0.025223,-0.001832,0.009072
3161,0.008122,-0.021098,0.009072
3162,0.008122,0.017434,-0.047018
3163,-0.008979,-0.001832,-0.009625
3164,0.008122,0.017434,-0.009625
3165,0.008122,-0.001832,-0.028322
3166,-0.008979,-0.001832,-0.028322
3167,0.008122,-0.001832,0.009072
3168,0.008122,0.017434,0.027769
3169,-0.008979,0.0367,-0.065715
3170,-0.008979,-0.021098,-0.065715
3171,0.008122,0.017434,-0.009625
3172,0.008122,-0.001832,-0.009625
3173,0.025223,-0.040364,0.009072
3174,-0.008979,-0.021098,-0.009625
3175,-0.008979,0.017434,-0.009625
3176,0.008122,-0.001832,0.009072
3177,0.008122,0.017434,0.046465
3178,-0.008979,-0.021098,0.027769
3179,-0.008979,-0.001832,0.009072
3180,-0.008979,-0.001832,0.027769
3181,0.008122,0.017434,-0.009625
3182,0.008122,0.0367,-0.009625
3183,0.008122,-0.021098,-0.009625
3184,0.008122,-0.001832,-0.028322
3185,-0.008979,-0.001832,0.009072
3186,0.008122,-0.001832,0.027769
3187,0.008122,-0.001832,0.009072
3188,0.008122,-0.021098,0.027769
3189,-0.008979,0.0367,0.046465
3190,0.008122,-0.001832,0.046465
3191,0.025223,-0.001832,0.027769
3192,-0.008979,-0.001832,-0.009625
3193,-0.008979,-0.021098,0.009072
3194,-0.008979,-0.021098,-0.028322
3195,0.008122,-0.040364,-0.047018
3196,-0.008979,-0.05963,-0.009625
3197,-0.008979,-0.05963,-0.009625
3198,-0.008979,-0.040364,-0.009625
3199,0.008122,-0.001832,0.009072
3200,0.008122,0.0367,0.009072
3201,0.008122,-0.021098,-0.009625
3202,-0.008979,-0.021098,0.009072
3203,-0.026081,-0.040364,-0.009625
3204,-0.008979,-0.001832,-0.028322
3205,-0.008979,0.0367,-0.009625
3206,0.008122,0.075232,0.027769
3207,0.025223,0.094498,0.009072
3208,0.008122,0.094498,0.027769
3209,0.008122,0.055966,0.027769
3210,0.008122,0.017434,0.009072
3211,-0.008979,-0.021098,0.027769
3212,0.008122,-0.021098,0.009072
3213,0.025223,-0.040364,-0.047018
3214,0.025223,-0.001832,-0.028322
3215,0.008122,-0.021098,-0.009625
3216,-0.008979,-0.001832,0.009072
3217,-0.008979,-0.001832,0.027769
3218,-0.026081,-0.021098,0.009072
3219,-0.008979,-0.021098,0.027769
3220,-0.008979,-0.040364,0.009072
3221,-0.008979,-0.001832,-0.009625
3222,0.008122,-0.021098,-0.009625
3223,-0.008979,-0.021098,0.009072
3224,-0.008979,-0.001832,-0.028322
3225,0.008122,0.017434,0.027769
3226,0.008122,0.0367,0.065162
3227,0.008122,0.113764,0.083859
3228,0.025223,0.075232,0.083859
3229,0.008122,0.0367,0.027769
3230,0.008122,0.017434,-0.047018
3231,0.025223,-0.001832,-0.121806
3232,-0.008979,0.0367,-0.103109
3233,0.008122,-0.021098,-0.084412
3234,-0.008979,-0.021098,-0.028322
3235,-0.008979,-0.001832,-0.009625
3236,-0.026081,-0.001832,-0.009625
3237,-0.008979,0.017434,0.009072
3238,0.008122,0.017434,-0.028322
3239,0.008122,-0.021098,-0.009625
3240,-0.026081,-0.021098,0.027769
3241,0.008122,0.017434,0.027769
3242,0.008122,-0.001832,0.009072
3243,-0.008979,-0.001832,0.009072
3244,-0.008979,-0.021098,0.009072
3245,-0.008979,-0.001832,-0.009625
3246,0.008122,-0.001832,-0.009625
3247,0.008122,0.017434,-0.009625
3248,0.008122,-0.001832,0.009072
3249,0.008122,-0.001832,0.027769
3250,0.008122,-0.001832,0.065162
3251,-0.026081,-0.021098,0.046465
3252,0.008122,-0.021098,0.009072
3253,-0.026081,-0.021098,0.009072
3254,0.008122,-0.001832,-0.009625
3255,-0.026081,-0.021098,-0.009625
3256,-0.008979,-0.001832,0.027769
3257,0.008122,-0.001832,-0.009625
3258,-0.008979,0.017434,-0.009625
3259,-0.008979,-0.021098,-0.009625
3260,-0.008979,-0.001832,-0.009625
3261,-0.008979,-0.001832,0.009072
3262,-0.008979,0.017434,0.027769
3263,-0.008979,0.017434,-0.009625
3264,0.008122,0.017434,0.027769
3265,-0.008979,0.017434,0.027769
3266,0.008122,-0.021098,0.027769
3267,0.025223,0.017434,-0.028322
3268,-0.008979,-0.001832,-0.065715
3269,-0.008979,-0.021098,-0.047018
3270,0.025223,0.017434,0.009072
3271,0.008122,-0.021098,-0.028322
3272,-0.008979,-0.001832,0.046465
3273,0.008122,0.017434,0.027769
3274,0.008122,0.0367,0.046465
3275,-0.008979,-0.001832,0.046465
3276,-0.026081,-0.001832,0.009072
3277,-0.008979,0.0367,-0.009625
3278,-0.008979,-0.001832,0.009072
3279,0.008122,0.017434,0.009072
3280,0.008122,-0.001832,-0.009625
3281,0.008122,-0.001832,-0.047018
3282,-0.008979,-0.001832,-0.009625
3283,-0.008979,-0.021098,-0.028322
3284,0.008122,-0.001832,0.009072
3285,-0.008979,0.0367,0.009072
3286,0.008122,0.017434,-0.009625
3287,-0.008979,-0.021098,-0.028322
3288,0.008122,-0.021098,0.027769
3289,0.008122,-0.001832,0.009072
3290,-0.008979,0.017434,-0.009625
3291,-0.008979,-0.001832,0.027769
3292,-0.026081,-0.001832,0.009072
3293,-0.008979,-0.001832,0.009072
3294,-0.008979,-0.040364,0.009072
3295,-0.008979,-0.040364,0.027769
3296,0.025223,-0.040364,-0.028322
3297,-0.008979,-0.021098,-0.028322
3298,-0.008979,-0.040364,0.027769
3299,-0.008979,-0.001832,0.027769
3300,0.025223,0.0367,0.009072
3301,0.008122,0.0367,0.009072
3302,0.008122,0.0367,-0.009625
3303,0.025223,0.0367,-0.028322
3304,0.008122,0.0367,-0.009625
3305,-0.008979,0.0367,-0.084412
3306,-0.008979,0.0367,-0.065715
3307,0.008122,0.0367,0.027769
3308,-0.008979,0.017434,0.027769
3309,-0.008979,-0.021098,0.009072
3310,0.008122,-0.001832,0.046465
3311,-0.008979,-0.001832,0.027769
3312,-0.008979,-0.021098,-0.028322
3313,-0.008979,-0.021098,-0.028322
3314,0.008122,-0.001832,-0.009625
3315,-0.008979,0.017434,-0.009625
3316,0.008122,0.017434,0.027769
3317,-0.008979,-0.001832,0.065162
3318,-0.008979,-0.021098,0.027769
3319,-0.008979,-0.001832,0.046465
3320,-0.008979,-0.021098,0.046465
3321,0.008122,-0.021098,-0.028322
3322,-0.008979,-0.040364,-0.009625
3323,0.008122,-0.05963,0.027769
3324,-0.026081,-0.078896,-0.009625
3325,-0.026081,-0.040364,0.009072
3326,-0.026081,-0.021098,0.046465
3327,0.008122,0.055966,0.065162
3328,0.025223,0.055966,0.027769
3329,0.008122,0.055966,-0.028322
3330,0.008122,0.075232,-0.009625
3331,-0.008979,0.075232,-0.028322
3332,0.008122,0.017434,-0.009625
3333,0.008122,-0.001832,-0.009625
3334,0.025223,-0.001832,0.009072
3335,0.008122,0.017434,-0.009625
3336,0.008122,0.017434,-0.009625
3337,-0.008979,0.017434,-0.009625
3338,-0.008979,0.075232,0.009072
3339,0.008122,0.055966,0.027769
3340,0.008122,0.094498,0.027769
3341,0.042325,0.094498,0.027769
3342,0.025223,0.055966,0.009072
3343,-0.008979,0.055966,-0.047018
3344,0.008122,-0.001832,-0.028322
3345,-0.008979,-0.001832,-0.047018
3346,-0.008979,-0.040364,-0.009625
3347,-0.026081,0.017434,-0.028322
3348,0.008122,-0.001832,0.027769
3349,0.025223,0.017434,0.046465
3350,0.042325,0.0367,0.009072
3351,0.008122,0.0367,-0.009625
3352,-0.008979,-0.021098,0.027769
3353,0.008122,-0.021098,0.009072
3354,-0.008979,-0.040364,-0.009625
3355,0.008122,-0.021098,0.009072
3356,-0.008979,-0.021098,0.009072
3357,-0.008979,0.017434,0.009072
3358,0.008122,-0.001832,-0.009625
3359,-0.008979,-0.001832,-0.028322
3360,-0.008979,-0.021098,-0.047018
3361,0.008122,-0.001832,-0.009625
3362,-0.008979,-0.040364,-0.009625
3363,-0.008979,0.017434,0.009072
3364,-0.008979,-0.021098,0.009072
3365,0.008122,-0.021098,0.046465
3366,0.008122,-0.040364,-0.009625
3367,-0.008979,-0.021098,-0.009625
3368,0.008122,0.017434,-0.009625
3369,0.025223,-0.001832,-0.009625
3370,0.025223,-0.021098,-0.028322
3371,0.008122,-0.001832,-0.009625
3372,0.008122,-0.021098,0.009072
3373,0.008122,0.017434,-0.009625
3374,-0.008979,0.017434,0.027769
3375,-0.008979,-0.001832,0.046465
3376,0.008122,-0.001832,0.009072
3377,-0.008979,-0.001832,0.009072
3378,0.008122,-0.001832,0.046465
3379,0.008122,-0.001832,0.009072
3380,-0.008979,0.017434,0.046465
3381,0.008122,-0.001832,0.083859
3382,-0.008979,0.0367,0.009072
3383,0.008122,-0.001832,-0.121806
3384,0.008122,-0.001832,-0.103109
3385,0.008122,-0.001832,-0.084412
3386,-0.008979,0.017434,-0.009625
3387,0.008122,-0.021098,0.009072
3388,0.008122,-0.001832,0.009072
3389,0.008122,0.017434,0.027769
3390,0.025223,0.017434,-0.028322
3391,0.025223,-0.001832,0.009072
3392,-0.008979,-0.001832,-0.028322
3393,-0.008979,-0.001832,-0.009625
3394,0.008122,0.017434,0.009072
3395,0.008122,-0.001832,-0.009625
3396,0.008122,0.017434,0.009072
3397,0.008122,-0.001832,0.027769
3398,0.008122,0.017434,0.009072
3399,0.008122,0.017434,-0.028322
3400,0.008122,-0.001832,0.009072
3401,-0.008979,0.017434,-0.009625
3402,0.008122,-0.001832,0.009072
3403,0.008122,-0.001832,-0.028322
3404,-0.026081,-0.021098,-0.028322
3405,0.008122,-0.001832,-0.028322
3406,0.008122,0.017434,0.027769
3407,-0.008979,-0.001832,0.027769
3408,-0.008979,-0.040364,0.009072
3409,-0.008979,-0.021098,0.027769
3410,0.008122,-0.040364,0.009072
3411,0.008122,-0.021098,0.009072
3412,-0.008979,-0.040364,-0.028322
3413,0.008122,-0.021098,-0.009625
3414,0.008122,-0.021098,-0.009625
3415,0.008122,0.0367,-0.009625
3416,0.042325,0.113764,0.009072
3417,0.008122,0.055966,0.027769
3418,0.008122,0.094498,0.009072
3419,0.008122,0.0367,0.027769
3420,-0.008979,-0.001832,0.009072
3421,0.008122,-0.040364,0.009072
3422,-0.008979,-0.05963,0.027769
3423,0.093629,-0.040364,0.027769
3424,0.008122,-0.001832,-0.009625
3425,-0.026081,0.017434,-0.009625
3426,-0.008979,-0.021098,0.009072
3427,0.008122,-0.001832,-0.009625
3428,0.025223,0.017434,0.027769
3429,0.025223,-0.021098,0.027769
3430,0.008122,-0.040364,0.009072
3431,-0.008979,0.0367,0.009072
3432,0.008122,0.055966,0.027769
3433,0.008122,0.055966,0.009072
3434,0.025223,0.075232,-0.009625
3435,-0.008979,0.017434,0.009072
3436,-0.008979,-0.021098,0.009072
3437,-0.008979,-0.040364,-0.028322
3438,0.008122,-0.001832,-0.028322
3439,0.008122,-0.001832,-0.009625
3440,0.008122,0.017434,0.009072
3441,0.008122,0.055966,0.009072
3442,0.008122,0.055966,0.065162
3443,0.008122,0.0367,0.046465
3444,0.008122,-0.001832,0.009072
3445,-0.026081,0.0367,0.027769
3446,0.008122,-0.001832,-0.009625
3447,0.008122,-0.021098,-0.028322
3448,-0.008979,-0.021098,-0.047018
3449,-0.008979,0.017434,-0.028322
3450,-0.008979,-0.040364,-0.028322
3451,0.008122,-0.021098,-0.009625
3452,0.008122,-0.001832,0.009072
3453,-0.008979,-0.001832,-0.009625
3454,0.008122,-0.001832,0.009072
3455,-0.008979,-0.021098,-0.009625
3456,0.025223,0.0367,-0.028322
3457,-0.008979,-0.001832,-0.047018
3458,0.008122,0.017434,-0.009625
3459,-0.008979,0.017434,-0.009625
3460,0.008122,-0.001832,-0.009625
3461,0.008122,0.017434,-0.009625
3462,0.008122,0.017434,0.027769
3463,0.008122,0.017434,0.009072
3464,0.025223,0.017434,0.027769
3465,0.025223,0.017434,0.027769
3466,0.008122,-0.021098,0.027769
3467,-0.008979,-0.001832,0.027769
3468,0.008122,0.017434,0.009072
3469,0.008122,-0.021098,-0.028322
3470,-0.008979,-0.021098,-0.009625
3471,0.008122,-0.001832,-0.009625
3472,-0.008979,-0.021098,-0.009625
3473,0.008122,-0.001832,0.046465
3474,0.008122,0.017434,0.065162
3475,0.008122,-0.001832,0.065162
3476,-0.008979,0.0367,0.065162
3477,-0.026081,0.017434,0.065162
3478,-0.008979,0.017434,0.046465
3479,0.008122,-0.001832,0.009072
3480,-0.008979,-0.001832,0.027769
3481,-0.008979,0.0367,0.027769
3482,-0.008979,-0.040364,-0.065715
3483,0.025223,-0.021098,-0.121806
3484,0.008122,-0.001832,-0.047018
3485,0.008122,-0.001832,-0.065715
3486,-0.008979,-0.001832,-0.047018
3487,0.008122,-0.021098,0.009072
3488,0.008122,-0.040364,0.009072
3489,-0.026081,-0.021098,-0.009625
3490,0.008122,-0.021098,-0.009625
3491,-0.008979,-0.001832,-0.028322
3492,-0.008979,0.017434,-0.028322
3493,0.008122,0.017434,0.009072
3494,0.008122,0.0367,-0.009625
3495,0.008122,0.0367,0.009072
3496,-0.008979,0.017434,0.009072
3497,0.008122,0.017434,0.009072
3498,0.025223,0.017434,-0.028322
3499,0.008122,-0.001832,-0.009625
3500,0.008122,0.017434,-0.009625
3501,0.008122,0.017434,-0.009625
3502,0.025223,0.017434,-0.009625
3503,0.008122,0.0367,0.027769
3504,-0.008979,0.0367,-0.009625
3505,0.008122,-0.021098,0.009072
3506,-0.008979,-0.021098,0.027769
3507,-0.008979,-0.001832,0.046465
3508,-0.008979,-0.001832,0.027769
3509,-0.026081,-0.021098,0.009072
3510,0.008122,-0.040364,0.009072
3511,-0.026081,-0.098162,-0.047018
3512,-0.008979,-0.098162,-0.009625
3513,0.008122,-0.05963,-0.028322
3514,0.008122,-0.021098,-0.028322
3515,0.008122,-0.001832,-0.009625
3516,0.008122,0.075232,0.102556
3517,0.025223,0.113764,0.009072
3518,0.025223,0.113764,-0.009625
3519,0.025223,0.094498,0.027769
3520,0.008122,-0.021098,-0.009625
3521,-0.008979,-0.040364,0.027769
3522,-0.008979,-0.021098,0.009072
3523,0.025223,-0.021098,0.009072
3524,-0.026081,-0.021098,-0.047018
3525,0.008122,-0.001832,-0.009625
3526,0.025223,-0.001832,-0.009625
3527,0.025223,0.017434,0.009072
3528,0.025223,-0.001832,0.009072
3529,0.008122,-0.021098,0.009072
3530,-0.008979,-0.001832,0.027769
3531,0.008122,0.0367,0.046465
3532,0.025223,0.0367,0.009072
3533,0.008122,-0.001832,-0.009625
3534,0.008122,0.0367,-0.009625
3535,-0.008979,0.017434,0.009072
3536,0.008122,0.0367,0.027769
3537,0.008122,0.0367,0.027769
3538,-0.008979,0.017434,0.046465
3539,-0.008979,-0.021098,0.027769
3540,-0.008979,-0.021098,0.065162
3541,-0.026081,-0.021098,0.027769
3542,0.008122,-0.040364,-0.009625
3543,-0.008979,-0.05963,-0.009625
3544,-0.008979,-0.040364,-0.065715
3545,0.008122,-0.078896,-0.103109
3546,0.008122,-0.021098,-0.065715
3547,0.008122,0.017434,-0.028322
3548,0.008122,0.0367,-0.065715
3549,0.008122,0.0367,-0.028322
3550,0.008122,0.075232,0.009072
3551,0.008122,0.075232,0.027769
3552,0.008122,0.075232,0.009072
3553,0.008122,0.055966,0.027769
3554,0.008122,0.0367,0.009072
3555,-0.008979,-0.001832,-0.009625
3556,0.008122,-0.021098,-0.009625
3557,-0.008979,-0.021098,0.009072
3558,0.008122,0.017434,-0.009625
3559,0.008122,0.017434,0.027769
3560,0.008122,-0.001832,0.027769
3561,0.008122,0.017434,0.065162
3562,0.008122,0.017434,0.009072
3563,-0.008979,-0.021098,-0.028322
3564,0.008122,-0.021098,-0.028322
3565,-0.008979,-0.001832,-0.065715
3566,-0.008979,-0.021098,0.009072
3567,0.008122,-0.021098,-0.028322
3568,0.008122,-0.001832,-0.028322
3569,-0.008979,-0.001832,-0.009625
3570,-0.008979,-0.001832,0.009072
3571,0.008122,-0.001832,-0.028322
3572,-0.008979,-0.021098,0.027769
3573,-0.008979,-0.001832,0.046465
3574,-0.008979,-0.021098,0.027769
3575,-0.026081,-0.040364,0.046465
3576,-0.008979,-0.040364,0.046465
3577,-0.008979,-0.021098,0.027769
3578,-0.008979,-0.001832,0.009072
3579,0.008122,-0.001832,-0.028322
3580,0.008122,0.017434,-0.028322
3581,0.025223,0.017434,-0.084412
3582,0.008122,0.017434,0.009072
3583,0.008122,0.017434,0.065162
3584,-0.008979,-0.001832,0.027769
3585,0.008122,-0.021098,0.083859
3586,0.008122,-0.040364,0.046465
3587,0.008122,-0.001832,0.027769
3588,0.008122,0.017434,-0.103109
3589,-0.008979,-0.001832,-0.047018
3590,0.008122,0.0367,-0.084412
3591,-0.008979,-0.001832,-0.028322
3592,0.008122,0.094498,-0.009625
3593,0.008122,-0.001832,-0.047018
3594,0.025223,0.017434,-0.028322
3595,0.025223,-0.001832,0.009072
3596,0.025223,-0.001832,0.027769
3597,0.008122,0.017434,0.027769
3598,-0.008979,-0.021098,0.027769
3599,0.008122,-0.021098,0.009072
3600,0.008122,0.0367,-0.009625
3601,0.008122,-0.021098,0.009072
3602,0.008122,-0.001832,0.009072
3603,-0.008979,-0.021098,-0.009625
3604,-0.008979,0.017434,0.027769
3605,0.008122,0.0367,0.046465
3606,0.025223,0.017434,0.027769
3607,0.008122,0.017434,0.027769
3608,-0.008979,-0.021098,0.027769
3609,0.008122,0.0367,0.009072
3610,-0.008979,-0.001832,-0.009625
3611,-0.008979,-0.021098,-0.009625
3612,-0.008979,-0.021098,-0.028322
3613,-0.008979,-0.021098,-0.009625
3614,0.008122,-0.040364,0.027769
3615,0.008122,-0.021098,-0.009625
3616,-0.008979,-0.021098,0.046465
3617,0.008122,-0.021098,0.083859
3618,-0.008979,-0.021098,0.083859
3619,-0.026081,-0.001832,0.027769
3620,0.008122,0.017434,-0.009625
3621,-0.008979,0.055966,-0.084412
3622,-0.008979,0.0367,-0.047018
3623,0.008122,0.017434,-0.047018
3624,-0.008979,0.017434,-0.028322
3625,0.008122,-0.001832,-0.028322
3626,-0.008979,-0.021098,-0.009625
3627,0.008122,-0.021098,-0.009625
3628,-0.008979,-0.021098,-0.009625
