# Requested Sampling Rate (Hz):,1000
# Actual Sampling Rate (Hz):,1008.662
# Requested Duration (s):,5.0
# Actual Duration (s):,4.999
# REST Calibration:,831.5250689655151,832.0950689655182,831.5147931034478
# MAX Calibration:,890.0000,884.0000,885.0000
# Normalization: MVC-based  (x_norm = (x - REST) / (MAX - REST))
sample_idx,EMG1,EMG2,EMG3
0,0.008122,-0.040364,-0.028322
1,-0.008979,-0.001832,-0.028322
2,0.008122,-0.001832,-0.009625
3,0.008122,-0.001832,0.009072
4,0.025223,-0.001832,-0.009625
5,-0.008979,-0.021098,-0.009625
6,-0.008979,-0.001832,-0.047018
7,-0.008979,-0.040364,-0.009625
8,-0.008979,-0.040364,0.009072
9,-0.008979,-0.021098,-0.028322
10,-0.026081,-0.040364,0.046465
11,-0.026081,-0.001832,0.027769
12,-0.008979,-0.040364,-0.009625
13,0.025223,-0.040364,-0.009625
14,0.025223,-0.021098,-0.028322
15,-0.026081,-0.021098,-0.047018
16,0.008122,-0.040364,-0.009625
17,-0.008979,0.017434,0.027769
18,-0.008979,0.0367,0.046465
19,0.008122,0.017434,0.046465
20,0.008122,-0.001832,0.027769
21,0.025223,0.055966,-0.009625
22,-0.008979,0.0367,-0.028322
23,0.008122,0.017434,-0.009625
24,0.008122,0.017434,-0.028322
25,0.025223,0.075232,-0.009625
26,0.025223,0.075232,0.027769
27,0.008122,0.094498,-0.047018
28,0.025223,0.075232,0.027769
29,0.008122,-0.001832,0.046465
30,-0.026081,-0.05963,0.009072
31,-0.026081,-0.05963,0.009072
32,0.008122,-0.001832,0.065162
33,-0.008979,-0.040364,0.009072
34,-0.026081,-0.040364,-0.047018
35,0.008122,-0.001832,-0.065715
36,0.008122,0.0367,-0.047018
37,0.025223,0.075232,0.009072
38,-0.008979,0.113764,0.027769
39,0.025223,0.075232,0.027769
40,0.008122,0.0367,0.027769
41,-0.008979,-0.001832,0.065162
42,0.008122,-0.021098,0.009072
43,-0.008979,0.017434,0.009072
44,-0.008979,-0.021098,-0.047018
45,-0.008979,-0.001832,-0.047018
46,-0.008979,-0.021098,-0.065715
47,-0.026081,-0.040364,0.009072
48,-0.008979,-0.021098,-0.009625
49,0.008122,-0.040364,-0.028322
50,-0.008979,-0.040364,0.009072
51,-0.026081,-0.001832,0.027769
52,-0.008979,-0.001832,-0.009625
53,0.008122,0.017434,-0.028322
54,0.008122,-0.001832,0.009072
55,-0.026081,0.0367,-0.028322
56,-0.008979,0.055966,-0.047018
57,0.008122,0.0367,0.009072
58,0.008122,-0.021098,0.027769
59,-0.008979,-0.001832,0.046465
60,0.008122,-0.040364,0.027769
61,0.008122,0.017434,0.009072
62,-0.008979,-0.001832,-0.028322
63,0.008122,-0.001832,-0.028322
64,-0.008979,-0.001832,-0.028322
65,0.008122,-0.021098,-0.009625
66,-0.008979,-0.021098,0.009072
67,0.025223,-0.040364,0.027769
68,-0.008979,-0.040364,0.065162
69,-0.026081,-0.040364,0.046465
70,-0.008979,-0.040364,0.009072
71,-0.026081,-0.001832,0.009072
72,-0.026081,0.0367,0.009072
73,0.008122,0.0367,-0.028322
74,-0.008979,0.0367,-0.065715
75,0.008122,0.017434,-0.084412
76,0.025223,0.017434,-0.009625
77,0.025223,0.017434,-0.028322
78,-0.008979,0.0367,0.027769
79,0.008122,-0.040364,0.027769
80,-0.008979,-0.040364,0.009072
81,-0.008979,-0.040364,-0.009625
82,-0.008979,-0.001832,0.027769
83,-0.008979,-0.001832,0.009072
84,-0.008979,-0.001832,0.009072
85,0.008122,-0.021098,0.065162
86,0.008122,0.055966,0.009072
87,0.008122,0.0367,0.027769
88,0.008122,0.017434,0.027769
89,0.025223,0.0367,-0.009625
90,0.008122,0.017434,-0.084412
91,0.008122,-0.021098,0.027769
92,0.008122,-0.021098,0.009072
93,0.025223,-0.001832,-0.009625
94,0.008122,-0.021098,-0.009625
95,-0.026081,-0.021098,0.009072
96,-0.008979,-0.001832,0.009072
97,0.008122,0.0367,0.009072
98,0.008122,0.0367,-0.009625
99,0.008122,-0.001832,0.009072
100,-0.008979,0.017434,-0.009625
101,-0.008979,-0.040364,0.009072
102,-0.008979,0.017434,-0.009625
103,0.008122,-0.001832,0.009072
104,-0.008979,-0.001832,0.027769
105,0.025223,-0.021098,0.009072
106,0.008122,-0.021098,0.009072
107,0.008122,-0.001832,0.027769
108,0.008122,-0.05963,-0.047018
109,-0.008979,-0.001832,0.009072
110,0.008122,-0.040364,-0.047018
111,-0.008979,-0.001832,-0.028322
112,0.008122,-0.040364,-0.009625
113,-0.008979,0.017434,0.046465
114,0.008122,0.0367,0.027769
115,0.008122,0.017434,0.009072
116,-0.008979,-0.001832,-0.028322
117,-0.008979,0.017434,-0.009625
118,-0.008979,-0.021098,-0.028322
119,0.093629,-0.021098,-0.047018
120,0.025223,-0.001832,-0.009625
121,0.025223,0.017434,0.046465
122,0.042325,0.094498,-0.009625
123,0.008122,-0.001832,-0.009625
124,0.008122,-0.001832,-0.009625
125,0.008122,0.055966,-0.028322
126,0.008122,-0.040364,-0.047018
127,0.008122,-0.078896,0.009072
128,-0.008979,-0.021098,-0.009625
129,-0.026081,-0.021098,0.009072
130,-0.008979,-0.001832,0.046465
131,-0.008979,0.017434,0.046465
132,0.008122,0.0367,0.027769
133,-0.008979,0.055966,0.027769
134,0.008122,0.113764,0.009072
135,-0.008979,0.017434,-0.028322
136,0.008122,0.017434,-0.065715
137,0.025223,0.017434,-0.009625
138,0.025223,0.0367,0.046465
139,0.025223,0.017434,-0.009625
140,0.008122,-0.001832,0.027769
141,-0.008979,-0.001832,-0.009625
142,-0.026081,-0.040364,-0.028322
143,0.008122,-0.040364,0.009072
144,0.008122,-0.021098,-0.009625
145,-0.008979,-0.040364,-0.047018
146,0.025223,-0.040364,0.009072
147,-0.008979,-0.098162,0.027769
148,0.008122,-0.078896,0.009072
149,-0.008979,-0.078896,0.027769
150,0.008122,-0.05963,0.046465
151,-0.008979,-0.040364,0.046465
152,-0.008979,0.0367,0.083859
153,0.025223,0.094498,0.046465
154,-0.026081,0.13303,0.027769
155,-0.026081,0.075232,-0.009625
156,-0.008979,0.017434,-0.084412
157,0.008122,0.055966,-0.084412
158,-0.008979,0.017434,-0.028322
159,-0.008979,0.017434,0.009072
160,0.008122,0.055966,0.009072
161,0.025223,0.055966,0.027769
162,0.025223,0.055966,-0.009625
163,0.025223,-0.021098,-0.028322
164,0.025223,-0.001832,-0.028322
165,0.008122,-0.021098,-0.028322
166,0.025223,-0.021098,-0.009625
167,-0.026081,0.017434,0.027769
168,0.008122,0.0367,0.027769
169,0.008122,0.0367,0.065162
170,-0.008979,0.075232,0.046465
171,-0.008979,0.055966,0.046465
172,0.025223,0.055966,-0.028322
173,0.008122,0.0367,-0.047018
174,0.008122,-0.021098,0.009072
175,0.008122,-0.001832,-0.009625
176,-0.026081,-0.021098,-0.028322
177,-0.008979,-0.001832,0.009072
178,0.008122,0.017434,0.027769
179,-0.008979,-0.001832,-0.009625
180,0.025223,0.017434,0.046465
181,-0.008979,0.017434,0.009072
182,-0.008979,-0.021098,0.009072
183,-0.008979,-0.001832,0.027769
184,0.008122,-0.001832,-0.009625
185,0.008122,-0.040364,-0.028322
186,0.025223,0.017434,0.009072
187,0.008122,0.017434,-0.009625
188,0.025223,0.094498,0.027769
189,-0.008979,0.0367,0.046465
190,0.008122,-0.021098,0.083859
191,-0.008979,-0.001832,0.009072
192,0.025223,-0.040364,0.027769
193,-0.008979,-0.001832,0.027769
194,-0.008979,-0.040364,0.027769
195,-0.008979,-0.05963,-0.009625
196,-0.008979,-0.021098,-0.047018
197,-0.026081,-0.021098,-0.028322
198,0.025223,0.055966,-0.009625
199,0.008122,-0.001832,-0.028322
200,-0.008979,-0.021098,-0.084412
201,0.025223,0.017434,-0.009625
202,0.025223,0.0367,-0.009625
203,-0.008979,0.017434,0.009072
204,0.008122,0.017434,-0.028322
205,-0.008979,-0.001832,-0.009625
206,0.008122,0.0367,-0.009625
207,-0.008979,-0.001832,0.009072
208,-0.008979,-0.040364,0.027769
209,-0.008979,-0.001832,0.027769
210,0.008122,-0.021098,0.046465
211,-0.008979,-0.001832,0.046465
212,0.008122,-0.001832,0.027769
213,0.008122,0.017434,-0.065715
214,0.008122,0.017434,-0.047018
215,-0.008979,0.017434,-0.028322
216,0.008122,0.017434,-0.028322
217,0.008122,-0.021098,0.009072
218,0.025223,-0.001832,-0.009625
219,0.008122,-0.001832,-0.009625
220,-0.008979,-0.001832,-0.009625
221,-0.008979,-0.001832,0.009072
222,-0.026081,-0.040364,-0.047018
223,-0.008979,-0.021098,0.009072
224,-0.008979,-0.001832,0.009072
225,-0.008979,-0.001832,-0.047018
226,0.008122,-0.001832,-0.047018
227,-0.008979,-0.021098,-0.009625
228,0.008122,0.0367,-0.028322
229,0.008122,0.017434,0.009072
230,0.008122,0.017434,0.027769
231,0.008122,-0.001832,0.046465
232,-0.008979,-0.001832,0.046465
233,-0.008979,-0.021098,-0.009625
234,-0.026081,-0.021098,-0.028322
235,0.008122,0.017434,-0.009625
236,-0.008979,-0.001832,-0.009625
237,0.008122,0.094498,-0.047018
238,-0.008979,0.017434,-0.009625
239,-0.008979,0.0367,-0.009625
240,0.008122,-0.040364,0.009072
241,0.008122,-0.05963,0.065162
242,0.025223,-0.040364,0.065162
243,0.008122,-0.021098,0.046465
244,0.008122,0.017434,0.009072
245,0.008122,0.0367,0.046465
246,0.008122,0.0367,-0.009625
247,0.042325,0.0367,-0.065715
248,0.025223,0.017434,-0.047018
249,0.008122,0.0367,-0.047018
250,0.008122,-0.021098,0.009072
251,0.008122,-0.001832,0.046465
252,0.008122,0.0367,-0.009625
253,-0.008979,-0.001832,0.027769
254,0.025223,-0.001832,-0.009625
255,-0.008979,-0.001832,-0.028322
256,-0.008979,-0.021098,-0.009625
257,-0.008979,-0.021098,0.046465
258,-0.008979,-0.021098,0.009072
259,0.008122,-0.021098,0.009072
260,-0.008979,-0.021098,0.046465
261,-0.026081,-0.040364,0.027769
262,0.008122,-0.078896,0.027769
263,-0.026081,-0.040364,-0.047018
264,0.008122,-0.021098,-0.047018
265,0.008122,-0.001832,-0.028322
266,0.008122,-0.001832,0.046465
267,0.008122,0.017434,-0.028322
268,-0.008979,0.017434,0.009072
269,-0.008979,0.017434,0.046465
270,0.025223,0.0367,0.046465
271,0.008122,0.017434,0.065162
272,0.008122,-0.021098,0.046465
273,0.025223,-0.021098,0.027769
274,0.025223,0.017434,0.027769
275,-0.008979,0.075232,0.027769
276,0.025223,0.075232,-0.009625
277,0.008122,0.0367,-0.047018
278,0.025223,0.017434,-0.047018
279,0.008122,-0.001832,0.009072
280,-0.008979,-0.021098,0.009072
281,0.008122,0.0367,0.027769
282,-0.008979,-0.001832,0.009072
283,-0.008979,0.055966,-0.028322
284,-0.008979,-0.001832,0.009072
285,0.025223,0.017434,0.009072
286,0.025223,-0.001832,-0.028322
287,-0.008979,-0.001832,0.065162
288,0.008122,-0.021098,0.065162
289,-0.008979,-0.021098,0.027769
290,-0.008979,-0.021098,0.046465
291,-0.008979,0.017434,-0.009625
292,-0.008979,-0.001832,-0.065715
293,0.025223,0.055966,-0.028322
294,0.008122,0.055966,-0.028322
295,0.025223,-0.001832,-0.028322
296,0.008122,-0.040364,0.009072
297,-0.008979,-0.021098,-0.028322
298,0.008122,-0.021098,-0.009625
299,0.008122,-0.001832,0.009072
300,0.008122,-0.001832,0.027769
301,-0.008979,0.017434,0.009072
302,0.008122,0.017434,0.009072
303,-0.008979,0.0367,0.027769
304,0.008122,0.055966,-0.028322
305,-0.008979,0.0367,-0.009625
306,0.008122,-0.001832,-0.009625
307,-0.008979,-0.001832,-0.028322
308,-0.026081,-0.021098,0.027769
309,0.008122,-0.021098,0.009072
310,-0.008979,0.017434,0.065162
311,0.025223,0.017434,0.065162
312,-0.008979,0.0367,0.027769
313,0.008122,-0.001832,-0.028322
314,0.025223,0.017434,-0.028322
315,0.025223,-0.001832,-0.028322
316,0.008122,-0.001832,-0.047018
317,0.008122,-0.021098,-0.028322
318,-0.008979,-0.001832,0.009072
319,-0.008979,-0.021098,-0.028322
320,0.025223,-0.001832,-0.009625
321,0.008122,-0.001832,0.027769
322,0.025223,0.017434,-0.028322
323,0.008122,-0.021098,-0.028322
324,-0.008979,-0.021098,-0.028322
325,-0.008979,-0.001832,-0.028322
326,0.008122,-0.021098,0.009072
327,-0.008979,-0.001832,0.009072
328,0.008122,-0.040364,-0.028322
329,-0.008979,-0.05963,0.009072
330,0.008122,-0.021098,0.046465
331,0.008122,-0.021098,0.027769
332,0.008122,-0.021098,-0.028322
333,-0.008979,-0.001832,-0.009625
334,0.008122,0.0367,-0.009625
335,-0.026081,0.0367,-0.009625
336,-0.008979,0.0367,0.009072
337,-0.008979,-0.001832,-0.009625
338,0.025223,-0.001832,-0.028322
339,0.042325,-0.021098,0.046465
340,0.008122,-0.001832,0.027769
341,-0.008979,0.017434,0.046465
342,-0.008979,0.0367,0.083859
343,0.008122,0.017434,0.027769
344,0.025223,-0.001832,-0.047018
345,0.008122,0.0367,-0.065715
346,-0.008979,-0.05963,-0.084412
347,-0.008979,-0.05963,-0.028322
348,-0.008979,-0.001832,0.009072
349,-0.008979,-0.001832,0.027769
350,-0.026081,-0.001832,0.027769
351,0.008122,-0.001832,0.027769
352,0.008122,0.017434,0.009072
353,-0.008979,-0.001832,-0.009625
354,0.008122,-0.001832,-0.009625
355,0.008122,-0.021098,-0.028322
356,-0.008979,0.017434,-0.009625
357,0.025223,0.017434,-0.009625
358,0.008122,0.0367,0.009072
359,0.008122,-0.021098,0.009072
360,-0.008979,-0.001832,0.065162
361,0.008122,-0.021098,0.027769
362,0.008122,-0.040364,0.027769
363,-0.008979,-0.05963,0.065162
364,-0.008979,-0.05963,0.009072
365,0.008122,-0.001832,0.009072
366,0.008122,-0.021098,-0.047018
367,0.008122,0.017434,-0.009625
368,0.008122,0.075232,-0.047018
369,0.008122,0.055966,-0.009625
370,0.008122,0.055966,0.027769
371,-0.008979,0.017434,-0.009625
372,-0.008979,0.0367,0.027769
373,0.025223,0.075232,0.027769
374,0.093629,-0.001832,0.009072
375,0.008122,-0.078896,0.027769
376,-0.008979,-0.05963,0.046465
377,-0.026081,-0.05963,0.009072
378,-0.026081,-0.021098,0.009072
379,-0.026081,0.017434,0.009072
380,-0.008979,-0.001832,-0.009625
381,0.008122,0.055966,-0.028322
382,0.025223,0.094498,-0.009625
383,0.008122,0.0367,-0.047018
384,0.025223,0.0367,-0.028322
385,0.025223,0.0367,-0.028322
386,0.008122,0.017434,-0.028322
387,-0.008979,-0.021098,-0.028322
388,0.008122,-0.040364,0.009072
389,0.008122,-0.021098,0.027769
390,-0.008979,-0.021098,0.009072
391,0.042325,0.017434,-0.009625
392,-0.026081,0.0367,0.027769
393,-0.026081,0.0367,0.027769
394,-0.008979,0.017434,0.027769
395,0.008122,-0.040364,0.027769
396,0.008122,-0.040364,0.009072
397,0.008122,-0.040364,0.009072
398,0.008122,-0.021098,-0.065715
399,0.008122,-0.021098,-0.065715
400,-0.008979,-0.001832,-0.009625
401,0.008122,-0.001832,0.027769
402,-0.026081,0.017434,0.027769
403,-0.008979,-0.021098,0.046465
404,-0.008979,-0.001832,0.027769
405,0.008122,-0.021098,0.027769
406,-0.008979,-0.040364,-0.009625
407,0.008122,-0.001832,-0.009625
408,-0.008979,-0.021098,0.009072
409,0.025223,0.017434,-0.028322
410,-0.008979,0.0367,-0.009625
411,0.025223,0.055966,-0.028322
412,0.008122,0.113764,-0.009625
413,0.008122,0.075232,-0.028322
414,0.025223,0.017434,-0.028322
415,0.008122,0.017434,-0.028322
416,0.008122,0.017434,0.009072
417,0.008122,-0.021098,-0.028322
418,0.008122,0.0367,-0.028322
419,0.025223,-0.001832,0.027769
420,-0.008979,0.017434,0.027769
421,-0.008979,-0.001832,0.027769
422,-0.008979,-0.021098,0.027769
423,0.008122,-0.001832,-0.009625
424,-0.008979,-0.021098,-0.028322
425,-0.008979,-0.021098,-0.028322
426,-0.008979,-0.001832,0.009072
427,0.008122,-0.001832,-0.009625
428,0.025223,0.017434,0.046465
429,0.025223,-0.001832,0.046465
430,0.025223,0.017434,0.065162
431,-0.008979,-0.001832,0.065162
432,0.008122,-0.001832,0.027769
433,0.008122,-0.021098,-0.065715
434,-0.008979,-0.040364,-0.047018
435,0.025223,0.017434,-0.047018
436,-0.008979,-0.021098,-0.047018
437,-0.026081,-0.040364,-0.028322
438,-0.008979,-0.001832,-0.028322
439,0.008122,-0.001832,-0.028322
440,-0.026081,0.017434,0.027769
441,0.008122,0.0367,0.027769
442,-0.026081,0.017434,0.027769
443,-0.008979,0.017434,0.027769
444,0.008122,-0.001832,0.009072
445,0.008122,-0.001832,-0.065715
446,-0.008979,0.017434,-0.009625
447,-0.008979,-0.021098,-0.028322
448,0.025223,-0.021098,0.009072
449,0.008122,-0.040364,0.009072
450,0.008122,-0.021098,-0.009625
451,0.008122,-0.001832,-0.028322
452,0.008122,-0.001832,0.009072
453,0.008122,-0.021098,0.009072
454,0.008122,-0.040364,-0.009625
455,0.025223,-0.040364,-0.009625
456,0.008122,-0.021098,-0.047018
457,0.008122,-0.001832,-0.028322
458,-0.008979,0.017434,-0.009625
459,-0.008979,0.017434,-0.009625
460,-0.008979,0.055966,-0.009625
461,0.008122,0.055966,0.009072
462,0.008122,0.055966,0.046465
463,0.008122,-0.021098,0.009072
464,-0.008979,-0.021098,0.027769
465,0.008122,-0.001832,0.009072
466,-0.008979,0.0367,0.009072
467,-0.008979,0.017434,0.009072
468,-0.008979,-0.021098,0.065162
469,0.025223,0.017434,-0.009625
470,0.008122,-0.001832,0.027769
471,-0.008979,-0.021098,0.046465
472,0.008122,-0.040364,0.009072
473,-0.008979,-0.05963,0.046465
474,0.008122,-0.078896,0.009072
475,-0.008979,-0.021098,-0.028322
476,0.008122,-0.021098,-0.009625
477,0.008122,-0.001832,0.009072
478,-0.008979,0.017434,-0.047018
479,-0.026081,0.075232,-0.009625
480,-0.008979,0.017434,0.009072
481,-0.008979,-0.001832,-0.009625
482,-0.008979,0.017434,0.009072
483,0.008122,-0.021098,0.009072
484,0.008122,-0.021098,-0.009625
485,0.025223,-0.001832,-0.009625
486,0.025223,0.0367,-0.028322
487,0.025223,0.094498,-0.009625
488,0.008122,0.094498,-0.028322
489,0.008122,0.0367,-0.009625
490,0.008122,0.017434,0.046465
491,0.008122,0.0367,0.009072
492,0.008122,0.094498,0.083859
493,-0.008979,-0.001832,0.046465
494,0.042325,-0.001832,0.009072
495,-0.008979,-0.001832,0.065162
496,-0.008979,-0.001832,0.027769
497,0.025223,0.0367,0.009072
498,-0.008979,0.017434,-0.009625
499,-0.008979,-0.021098,0.009072
500,0.008122,-0.021098,0.009072
501,0.008122,-0.078896,-0.028322
502,-0.008979,-0.098162,-0.028322
503,0.008122,-0.040364,-0.009625
504,0.008122,-0.05963,0.009072
505,0.008122,-0.040364,-0.047018
506,-0.026081,0.017434,-0.047018
507,-0.008979,0.0367,0.009072
508,0.008122,0.055966,-0.009625
509,0.008122,0.113764,-0.028322
510,0.008122,0.0367,0.009072
511,-0.008979,0.017434,0.065162
512,-0.026081,-0.001832,-0.009625
513,0.008122,0.055966,0.065162
514,0.008122,0.0367,0.027769
515,0.008122,0.0367,-0.028322
516,0.008122,0.055966,-0.084412
517,-0.008979,0.0367,-0.065715
518,-0.008979,0.017434,-0.047018
519,0.008122,0.017434,0.009072
520,0.008122,-0.021098,0.065162
521,0.008122,-0.001832,0.027769
522,0.008122,-0.021098,0.009072
523,-0.008979,-0.001832,0.027769
524,0.008122,0.017434,0.009072
525,-0.008979,0.017434,0.009072
526,-0.026081,-0.001832,-0.009625
527,0.008122,-0.040364,-0.047018
528,-0.008979,-0.001832,-0.028322
529,0.008122,-0.05963,0.027769
530,-0.008979,-0.001832,-0.028322
531,-0.008979,0.0367,-0.009625
532,0.025223,-0.021098,0.046465
533,0.025223,-0.001832,0.046465
534,0.008122,0.017434,0.009072
535,-0.008979,0.0367,0.046465
536,0.025223,0.094498,0.009072
537,0.008122,-0.001832,-0.047018
538,0.008122,-0.021098,-0.028322
539,-0.026081,-0.040364,0.009072
540,-0.008979,0.017434,0.027769
541,0.008122,-0.001832,0.009072
542,-0.008979,-0.021098,0.009072
543,0.008122,-0.040364,-0.009625
544,0.008122,-0.001832,0.009072
545,0.008122,-0.001832,-0.047018
546,0.008122,-0.040364,-0.028322
547,0.008122,-0.021098,0.009072
548,-0.008979,-0.021098,-0.009625
549,-0.008979,0.017434,-0.028322
550,0.008122,0.017434,-0.009625
551,0.008122,-0.001832,0.009072
552,0.008122,-0.001832,-0.028322
553,0.008122,-0.001832,0.065162
554,0.008122,-0.021098,-0.009625
555,0.008122,0.017434,0.009072
556,-0.026081,-0.001832,-0.028322
557,-0.008979,-0.001832,-0.009625
558,0.008122,0.017434,-0.047018
559,0.008122,0.0367,0.009072
560,0.025223,0.017434,0.027769
561,0.008122,0.017434,-0.009625
562,0.025223,-0.001832,0.027769
563,0.025223,0.017434,0.046465
564,-0.008979,-0.001832,-0.028322
565,0.025223,0.017434,-0.028322
566,-0.008979,0.017434,0.009072
567,-0.008979,0.017434,-0.009625
568,-0.026081,0.017434,-0.009625
569,-0.008979,-0.040364,0.009072
570,-0.008979,-0.05963,-0.009625
571,0.008122,-0.078896,0.009072
572,0.025223,-0.040364,0.046465
573,0.008122,-0.078896,0.009072
574,0.008122,-0.05963,0.046465
575,0.008122,-0.021098,0.009072
576,0.008122,0.017434,-0.047018
577,0.025223,-0.001832,-0.028322
578,0.042325,0.075232,0.009072
579,-0.008979,0.075232,-0.009625
580,0.008122,0.075232,0.009072
581,0.025223,0.094498,-0.009625
582,-0.008979,0.0367,0.046465
583,0.008122,-0.001832,0.065162
584,0.008122,-0.021098,0.065162
585,0.008122,-0.021098,0.027769
586,0.008122,-0.05963,-0.028322
587,0.025223,-0.021098,0.027769
588,0.008122,-0.001832,-0.065715
589,0.008122,-0.001832,-0.028322
590,0.008122,-0.05963,0.009072
591,0.008122,-0.040364,0.027769
592,-0.008979,-0.040364,0.009072
593,-0.026081,-0.001832,0.046465
594,0.025223,-0.001832,-0.028322
595,-0.026081,0.017434,-0.009625
596,0.008122,0.055966,-0.028322
597,0.042325,0.0367,0.009072
598,0.008122,0.0367,-0.009625
599,0.008122,0.017434,0.009072
600,0.025223,-0.001832,0.027769
601,0.008122,0.017434,0.027769
602,0.008122,0.017434,0.046465
603,0.008122,0.017434,0.027769
604,0.025223,-0.001832,-0.047018
605,0.025223,0.017434,-0.009625
606,0.025223,0.055966,-0.028322
607,0.008122,-0.001832,-0.047018
608,-0.026081,0.017434,-0.028322
609,-0.008979,-0.021098,0.009072
610,0.008122,-0.001832,-0.009625
611,0.008122,-0.001832,0.027769
612,-0.008979,0.0367,0.027769
613,0.008122,0.017434,-0.028322
614,-0.026081,-0.021098,0.046465
615,0.008122,-0.040364,0.009072
616,0.008122,-0.040364,-0.009625
617,-0.008979,-0.001832,-0.028322
618,-0.008979,-0.001832,-0.028322
619,-0.008979,0.055966,0.009072
620,-0.008979,0.017434,0.009072
621,-0.026081,-0.001832,0.083859
622,0.008122,-0.040364,0.009072
623,-0.026081,-0.021098,-0.009625
624,-0.008979,-0.021098,-0.009625
625,-0.008979,0.017434,-0.009625
626,-0.008979,-0.040364,-0.009625
627,0.008122,0.0367,0.009072
628,0.025223,-0.05963,0.009072
629,-0.008979,-0.001832,0.009072
630,-0.026081,0.017434,0.009072
631,-0.008979,0.017434,0.027769
632,-0.008979,0.055966,0.027769
633,0.008122,-0.021098,0.046465
634,0.008122,-0.001832,0.009072
635,0.008122,-0.021098,0.009072
636,-0.026081,0.017434,0.046465
637,0.008122,-0.021098,-0.009625
638,0.008122,-0.021098,-0.065715
639,-0.008979,-0.040364,-0.028322
640,-0.008979,-0.001832,-0.084412
641,0.008122,-0.040364,-0.065715
642,-0.008979,-0.001832,0.009072
643,-0.008979,0.0367,-0.009625
644,-0.008979,0.017434,0.027769
645,0.008122,-0.001832,0.046465
646,0.008122,0.075232,0.027769
647,0.025223,0.055966,-0.009625
648,0.025223,0.055966,0.009072
649,0.008122,-0.001832,-0.065715
650,-0.008979,0.0367,-0.028322
651,0.008122,0.0367,0.009072
652,0.008122,-0.001832,0.046465
653,-0.008979,-0.021098,-0.009625
654,-0.008979,-0.05963,0.009072
655,0.025223,-0.001832,0.027769
656,-0.008979,-0.021098,-0.028322
657,-0.008979,-0.021098,0.009072
658,0.042325,0.017434,-0.047018
659,0.025223,-0.001832,-0.028322
660,0.008122,-0.040364,0.027769
661,-0.026081,-0.040364,0.046465
662,0.008122,-0.05963,0.009072
663,0.008122,-0.021098,0.027769
664,0.025223,-0.040364,0.009072
665,0.025223,-0.098162,0.009072
666,0.008122,-0.078896,-0.047018
667,0.025223,-0.05963,-0.028322
668,0.025223,0.055966,-0.028322
669,-0.008979,0.113764,-0.009625
670,0.008122,0.13303,0.027769
671,0.025223,0.113764,0.009072
672,-0.008979,0.094498,0.046465
673,0.008122,0.0367,0.027769
674,0.008122,0.0367,-0.009625
675,-0.008979,0.055966,0.009072
676,-0.008979,0.094498,0.009072
677,-0.008979,0.075232,0.027769
678,0.025223,0.017434,-0.009625
679,0.008122,-0.040364,0.027769
680,0.008122,-0.098162,-0.028322
681,0.008122,-0.05963,0.009072
682,0.025223,-0.040364,0.009072
683,0.008122,-0.05963,-0.028322
684,0.008122,-0.021098,0.009072
685,-0.026081,0.017434,0.009072
686,0.025223,0.0367,0.046465
687,-0.008979,0.094498,-0.009625
688,-0.008979,0.075232,0.027769
689,-0.008979,0.017434,-0.009625
690,0.008122,-0.001832,0.009072
691,0.008122,-0.001832,-0.047018
692,0.025223,-0.021098,-0.047018
693,-0.008979,-0.040364,0.009072
694,0.008122,0.0367,-0.009625
695,0.008122,-0.001832,-0.009625
696,0.008122,-0.040364,-0.028322
697,0.093629,-0.040364,0.009072
698,-0.008979,-0.021098,-0.047018
699,0.008122,-0.021098,-0.028322
700,-0.008979,-0.001832,0.027769
701,0.008122,-0.001832,0.046465
702,-0.008979,-0.001832,0.009072
703,0.008122,0.0367,0.027769
704,-0.008979,-0.001832,0.009072
705,-0.008979,-0.001832,-0.028322
706,-0.008979,-0.040364,-0.009625
707,0.008122,0.017434,-0.009625
708,-0.008979,-0.001832,-0.009625
709,-0.008979,-0.001832,0.046465
710,0.042325,0.017434,0.083859
711,0.008122,-0.001832,0.046465
712,0.008122,0.017434,0.027769
713,0.008122,0.0367,0.046465
714,-0.026081,-0.001832,-0.028322
715,-0.008979,0.017434,0.009072
716,0.008122,-0.001832,0.027769
717,0.025223,-0.001832,0.027769
718,0.025223,-0.001832,0.046465
719,0.008122,0.017434,0.027769
720,-0.026081,0.017434,-0.009625
721,0.008122,-0.001832,-0.028322
722,-0.008979,-0.021098,-0.028322
723,-0.008979,-0.021098,-0.009625
724,-0.008979,-0.021098,0.027769
725,0.008122,0.017434,-0.047018
726,0.008122,-0.001832,-0.065715
727,0.008122,-0.021098,-0.047018
728,0.008122,0.0367,-0.028322
729,0.008122,-0.021098,-0.028322
730,0.008122,-0.021098,-0.047018
731,-0.008979,-0.001832,-0.009625
732,-0.008979,-0.001832,0.009072
733,-0.008979,-0.021098,0.027769
734,0.008122,-0.021098,0.009072
735,-0.008979,-0.021098,-0.028322
736,-0.008979,0.017434,-0.047018
737,0.025223,-0.001832,-0.028322
738,-0.008979,0.017434,-0.047018
739,0.042325,0.017434,0.009072
740,0.008122,0.0367,0.009072
741,-0.026081,0.017434,0.046465
742,0.025223,0.017434,0.046465
743,-0.008979,0.017434,0.027769
744,0.008122,0.0367,0.009072
745,0.025223,-0.021098,0.009072
746,-0.008979,-0.001832,0.027769
747,0.008122,-0.001832,0.009072
748,-0.026081,-0.021098,0.027769
749,-0.026081,-0.001832,0.027769
750,0.008122,-0.001832,0.009072
751,0.008122,-0.001832,-0.009625
752,0.042325,-0.021098,0.027769
753,-0.008979,-0.021098,-0.009625
754,0.025223,0.017434,-0.009625
755,-0.008979,-0.040364,0.009072
756,-0.008979,-0.021098,-0.009625
757,0.025223,0.017434,-0.009625
758,0.008122,-0.021098,0.009072
759,0.008122,-0.021098,-0.047018
760,0.008122,-0.001832,-0.028322
761,-0.008979,0.075232,-0.009625
762,0.008122,0.055966,-0.028322
763,-0.008979,0.0367,-0.028322
764,0.008122,0.017434,-0.009625
765,0.025223,-0.001832,0.027769
766,-0.008979,-0.021098,-0.009625
767,-0.026081,0.017434,0.027769
768,-0.008979,-0.021098,-0.009625
769,0.008122,0.017434,0.009072
770,0.008122,0.017434,0.027769
771,0.025223,0.0367,0.027769
772,0.008122,0.055966,-0.047018
773,0.008122,-0.001832,0.027769
774,0.008122,-0.021098,-0.009625
775,0.025223,-0.001832,-0.047018
776,0.025223,-0.001832,-0.028322
777,-0.008979,0.017434,-0.009625
778,0.025223,0.0367,-0.028322
779,-0.008979,-0.05963,-0.028322
780,-0.026081,-0.117428,-0.009625
781,-0.008979,-0.078896,-0.009625
782,0.008122,-0.05963,0.027769
783,-0.008979,-0.021098,0.009072
784,-0.008979,0.0367,-0.009625
785,-0.008979,0.075232,-0.028322
786,0.008122,0.075232,0.009072
787,0.025223,0.055966,-0.028322
788,-0.008979,0.0367,0.009072
789,0.025223,0.0367,0.027769
790,0.025223,-0.040364,-0.009625
791,0.008122,-0.040364,0.009072
792,0.025223,-0.078896,-0.009625
793,0.008122,-0.117428,0.009072
794,-0.008979,-0.098162,0.046465
795,0.008122,-0.021098,0.027769
796,-0.026081,-0.001832,0.009072
797,-0.008979,-0.001832,0.009072
798,-0.026081,0.055966,0.027769
799,0.008122,0.13303,-0.028322
800,0.025223,0.13303,-0.028322
801,0.008122,0.075232,0.009072
802,-0.008979,0.017434,-0.009625
803,0.008122,0.0367,0.046465
804,0.008122,0.055966,-0.009625
805,0.008122,-0.001832,-0.028322
806,-0.008979,-0.001832,0.009072
807,0.008122,0.017434,0.027769
808,-0.008979,0.017434,0.027769
809,0.008122,0.017434,0.065162
810,0.008122,0.017434,0.027769
811,0.008122,-0.001832,0.009072
812,0.008122,-0.001832,0.046465
813,-0.026081,-0.021098,0.009072
814,0.008122,-0.001832,-0.009625
815,0.008122,-0.021098,-0.028322
816,-0.026081,-0.001832,-0.028322
817,0.008122,0.094498,-0.009625
818,0.008122,-0.001832,0.046465
819,-0.008979,-0.040364,0.027769
820,-0.008979,-0.021098,-0.009625
821,-0.026081,-0.021098,0.027769
822,0.008122,-0.021098,-0.009625
823,-0.008979,-0.001832,-0.065715
824,-0.008979,-0.001832,-0.103109
825,0.008122,0.017434,-0.047018
826,-0.008979,-0.05963,-0.028322
827,0.008122,-0.021098,-0.009625
828,0.008122,-0.040364,0.009072
829,-0.026081,-0.001832,-0.009625
830,0.008122,-0.021098,0.009072
831,0.008122,-0.001832,0.046465
832,0.008122,0.017434,0.009072
833,0.008122,-0.001832,-0.009625
834,0.025223,0.017434,-0.028322
835,-0.008979,-0.001832,-0.028322
836,0.008122,-0.001832,-0.009625
837,-0.008979,0.055966,0.009072
838,0.008122,-0.001832,0.009072
839,0.008122,-0.001832,0.009072
840,0.008122,0.017434,0.027769
841,0.008122,-0.001832,0.009072
842,0.025223,0.0367,-0.009625
843,0.008122,-0.001832,0.027769
844,-0.008979,-0.001832,0.009072
845,-0.008979,-0.001832,0.009072
846,0.008122,-0.001832,0.009072
847,0.008122,-0.001832,-0.028322
848,0.008122,-0.001832,-0.065715
849,0.008122,-0.001832,0.009072
850,0.008122,-0.001832,0.009072
851,-0.008979,-0.021098,0.009072
852,0.008122,0.017434,0.009072
853,0.008122,-0.021098,0.009072
854,-0.008979,-0.05963,0.009072
855,0.008122,-0.001832,0.027769
856,0.008122,-0.040364,-0.028322
857,0.008122,-0.001832,-0.028322
858,-0.008979,-0.001832,-0.009625
859,0.008122,-0.001832,-0.065715
860,0.008122,0.0367,-0.009625
861,0.008122,0.0367,0.027769
862,-0.026081,-0.001832,0.009072
863,-0.008979,-0.001832,0.009072
864,0.008122,-0.001832,0.009072
865,0.008122,0.017434,0.009072
866,0.008122,-0.001832,0.009072
867,-0.008979,-0.001832,-0.009625
868,-0.008979,0.017434,0.046465
869,-0.008979,-0.021098,0.027769
870,0.008122,0.0367,0.065162
871,0.008122,0.017434,0.027769
872,0.025223,-0.021098,-0.028322
873,-0.008979,-0.001832,-0.065715
874,-0.026081,-0.040364,-0.028322
875,-0.008979,-0.078896,-0.065715
876,-0.026081,-0.021098,-0.009625
877,-0.008979,-0.001832,0.009072
878,0.008122,0.017434,0.009072
879,-0.026081,-0.001832,0.065162
880,-0.026081,-0.001832,0.009072
881,0.008122,-0.021098,-0.009625
882,-0.008979,-0.040364,0.027769
883,0.008122,-0.001832,-0.028322
884,-0.008979,-0.021098,-0.028322
885,0.008122,-0.021098,0.027769
886,-0.008979,-0.021098,0.009072
887,0.025223,-0.001832,0.009072
888,0.008122,-0.001832,0.009072
889,-0.008979,-0.040364,-0.009625
890,0.008122,-0.021098,0.009072
891,0.008122,0.017434,0.046465
892,0.008122,0.017434,-0.009625
893,0.008122,0.0367,-0.009625
894,0.025223,0.0367,-0.009625
895,0.008122,0.094498,0.027769
896,0.008122,0.075232,-0.009625
897,-0.026081,0.0367,0.046465
898,0.008122,-0.021098,0.102556
899,-0.008979,0.017434,0.027769
900,0.008122,-0.001832,0.027769
901,0.008122,-0.021098,-0.009625
902,-0.008979,0.017434,-0.103109
903,-0.026081,-0.001832,-0.084412
904,0.025223,0.017434,-0.028322
905,0.025223,-0.021098,-0.028322
906,0.008122,-0.078896,-0.009625
907,-0.008979,-0.098162,0.027769
908,-0.008979,-0.098162,0.046465
909,0.008122,-0.15596,0.009072
910,-0.008979,-0.136694,0.046465
911,0.008122,-0.078896,0.027769
912,0.008122,-0.021098,-0.009625
913,0.008122,0.094498,0.009072
914,0.008122,0.13303,-0.009625
915,0.042325,0.190828,-0.009625
916,0.025223,0.152296,-0.028322
917,0.025223,0.171562,-0.047018
918,0.025223,0.075232,-0.028322
919,0.025223,0.017434,0.027769
920,-0.026081,-0.001832,-0.047018
921,0.008122,-0.05963,-0.047018
922,-0.008979,-0.021098,-0.047018
923,-0.008979,0.017434,-0.009625
924,-0.008979,0.017434,-0.047018
925,0.008122,0.017434,0.009072
926,-0.008979,0.017434,0.027769
927,-0.008979,0.055966,0.027769
928,-0.026081,0.0367,0.027769
929,0.008122,0.0367,-0.009625
930,0.025223,0.017434,-0.028322
931,0.025223,0.017434,-0.028322
932,0.025223,-0.001832,0.009072
933,0.008122,0.017434,-0.009625
934,-0.008979,-0.001832,-0.009625
935,-0.008979,-0.001832,0.027769
936,-0.008979,-0.05963,0.027769
937,0.025223,-0.040364,0.065162
938,-0.008979,-0.001832,0.083859
939,0.008122,-0.05963,-0.009625
940,0.008122,-0.001832,-0.009625
941,-0.008979,0.017434,-0.009625
942,-0.008979,0.017434,-0.047018
943,-0.008979,0.0367,-0.065715
944,-0.008979,0.0367,-0.009625
945,-0.008979,0.017434,-0.028322
946,-0.008979,-0.001832,0.009072
947,-0.008979,-0.021098,0.027769
948,0.025223,-0.021098,-0.009625
949,0.008122,-0.001832,-0.028322
950,-0.008979,-0.021098,0.027769
951,-0.008979,-0.021098,-0.009625
952,-0.008979,-0.001832,-0.028322
953,0.008122,-0.001832,-0.047018
954,0.025223,0.017434,-0.047018
955,0.025223,-0.001832,-0.009625
956,0.008122,-0.001832,0.027769
957,-0.026081,-0.001832,0.046465
958,-0.008979,-0.040364,0.027769
959,0.008122,-0.001832,0.027769
960,0.008122,-0.001832,0.009072
961,0.008122,-0.021098,0.009072
962,0.008122,-0.001832,-0.009625
963,0.008122,-0.021098,-0.047018
964,0.008122,-0.001832,-0.047018
965,0.008122,-0.001832,0.009072
966,0.008122,0.017434,0.027769
967,-0.008979,-0.021098,0.009072
968,-0.008979,-0.001832,0.027769
969,0.008122,0.0367,-0.009625
970,0.025223,0.017434,0.009072
971,0.008122,-0.001832,-0.009625
972,0.008122,0.017434,-0.009625
973,-0.008979,-0.001832,-0.009625
974,0.008122,-0.001832,0.027769
975,0.025223,0.017434,-0.028322
976,0.008122,0.017434,-0.009625
977,0.025223,0.017434,-0.028322
978,0.008122,-0.001832,-0.009625
979,0.008122,-0.001832,0.009072
980,0.008122,0.017434,-0.028322
981,-0.008979,-0.021098,0.009072
982,0.008122,-0.001832,-0.028322
983,0.008122,-0.001832,-0.009625
984,-0.008979,-0.001832,0.009072
985,-0.008979,-0.001832,0.046465
986,0.008122,-0.021098,0.009072
987,-0.008979,-0.001832,0.046465
988,-0.026081,-0.021098,0.046465
989,0.025223,-0.001832,-0.009625
990,0.008122,-0.001832,0.027769
991,-0.008979,0.017434,0.027769
992,0.025223,0.017434,-0.028322
993,-0.008979,0.017434,-0.028322
994,0.008122,-0.001832,0.009072
995,0.025223,-0.040364,-0.009625
996,0.025223,0.017434,0.009072
997,0.008122,-0.001832,0.009072
998,-0.008979,-0.040364,-0.009625
999,0.008122,0.017434,-0.028322
1000,-0.026081,-0.021098,-0.009625
1001,0.008122,-0.001832,0.009072
1002,-0.026081,-0.001832,0.009072
1003,-0.008979,0.0367,0.027769
1004,-0.008979,0.0367,-0.009625
1005,-0.008979,-0.001832,0.027769
1006,0.008122,-0.021098,-0.009625
1007,0.008122,0.017434,-0.028322
1008,0.008122,0.017434,-0.009625
1009,-0.008979,0.017434,-0.009625
1010,-0.008979,-0.021098,-0.028322
1011,0.008122,-0.040364,-0.028322
1012,-0.026081,-0.078896,0.009072
1013,0.008122,-0.136694,-0.028322
1014,0.008122,-0.098162,-0.009625
1015,-0.026081,-0.098162,0.027769
1016,-0.008979,-0.021098,0.046465
1017,-0.026081,-0.001832,0.027769
1018,-0.043182,0.094498,0.046465
1019,0.008122,0.113764,-0.009625
1020,0.008122,0.113764,-0.009625
1021,0.008122,0.094498,0.009072
1022,0.008122,0.0367,-0.028322
1023,0.008122,-0.040364,-0.028322
1024,0.008122,-0.05963,0.009072
1025,0.008122,-0.001832,0.027769
1026,0.008122,0.017434,-0.028322
1027,-0.008979,0.0367,0.046465
1028,-0.026081,0.055966,0.009072
1029,0.008122,0.075232,0.009072
1030,0.042325,0.017434,-0.028322
1031,0.008122,-0.040364,0.009072
1032,0.025223,-0.040364,-0.009625
1033,0.042325,-0.021098,-0.009625
1034,-0.008979,-0.05963,0.027769
1035,0.008122,-0.040364,0.009072
1036,-0.008979,0.0367,-0.009625
1037,-0.026081,0.13303,0.027769
1038,-0.008979,0.13303,-0.009625
1039,-0.008979,0.075232,-0.009625
1040,0.008122,0.017434,0.009072
1041,-0.008979,-0.021098,-0.009625
1042,0.025223,-0.001832,-0.047018
1043,-0.008979,0.017434,-0.009625
1044,-0.008979,-0.001832,-0.047018
1045,-0.008979,-0.021098,0.027769
1046,-0.026081,-0.021098,0.046465
1047,-0.008979,-0.040364,0.009072
1048,-0.026081,0.017434,-0.009625
1049,0.008122,0.0367,0.009072
1050,-0.026081,-0.040364,-0.009625
1051,-0.008979,0.0367,-0.028322
1052,-0.008979,0.017434,0.009072
1053,0.008122,-0.001832,-0.047018
1054,0.025223,0.017434,0.009072
1055,0.025223,0.017434,0.027769
1056,0.008122,0.017434,0.065162
1057,0.025223,0.075232,0.083859
1058,0.008122,0.017434,0.083859
1059,0.025223,0.0367,0.027769
1060,0.025223,0.0367,0.009072
1061,0.008122,-0.001832,-0.047018
1062,0.008122,-0.001832,-0.103109
1063,-0.008979,-0.021098,-0.084412
1064,-0.008979,-0.021098,-0.028322
1065,-0.008979,-0.021098,-0.009625
1066,-0.026081,-0.040364,-0.009625
1067,0.008122,-0.040364,0.027769
1068,0.008122,-0.001832,0.009072
1069,-0.008979,0.017434,0.009072
1070,0.008122,0.017434,-0.028322
1071,0.008122,-0.001832,0.046465
1072,0.008122,0.017434,-0.009625
1073,0.008122,0.0367,0.027769
1074,0.008122,-0.021098,0.009072
1075,0.008122,0.017434,0.065162
1076,0.025223,-0.021098,0.046465
1077,0.008122,-0.040364,0.046465
1078,0.008122,0.017434,-0.009625
1079,-0.008979,-0.05963,-0.084412
1080,-0.008979,-0.040364,-0.084412
1081,0.008122,0.017434,-0.047018
1082,0.008122,-0.001832,-0.047018
1083,-0.008979,0.017434,0.046465
1084,-0.008979,-0.001832,0.065162
1085,-0.008979,0.0367,-0.009625
1086,-0.008979,-0.001832,0.027769
1087,0.008122,-0.021098,-0.084412
1088,0.025223,-0.021098,-0.047018
1089,-0.008979,-0.001832,0.009072
1090,-0.008979,-0.001832,0.046465
1091,0.008122,-0.001832,0.046465
1092,0.025223,-0.021098,0.046465
1093,0.008122,0.017434,0.065162
1094,0.008122,-0.001832,0.065162
1095,-0.008979,-0.001832,0.027769
1096,0.025223,0.017434,0.009072
1097,-0.008979,-0.021098,-0.177896
1098,-0.008979,0.017434,-0.084412
1099,-0.008979,-0.05963,-0.028322
1100,-0.026081,-0.098162,-0.009625
1101,-0.008979,-0.098162,-0.028322
1102,-0.008979,-0.05963,-0.028322
1103,-0.026081,-0.05963,-0.047018
1104,-0.008979,-0.001832,0.009072
1105,-0.008979,0.0367,-0.028322
1106,-0.008979,0.075232,0.009072
1107,0.025223,0.094498,0.027769
1108,0.025223,0.094498,0.027769
1109,0.059426,0.075232,-0.009625
1110,0.025223,0.075232,0.009072
1111,0.008122,-0.001832,0.027769
1112,0.025223,-0.001832,-0.009625
1113,-0.008979,-0.021098,-0.009625
1114,-0.008979,-0.021098,0.027769
1115,0.008122,-0.040364,0.009072
1116,0.008122,-0.021098,0.046465
1117,-0.008979,0.0367,0.027769
1118,0.025223,-0.001832,0.009072
1119,-0.008979,-0.001832,-0.028322
1120,0.025223,0.0367,-0.009625
1121,0.008122,0.017434,-0.009625
1122,0.025223,0.0367,0.027769
1123,0.008122,-0.021098,0.046465
1124,-0.008979,0.017434,0.083859
1125,0.025223,0.055966,0.065162
1126,-0.008979,0.0367,0.083859
1127,-0.043182,0.0367,0.046465
1128,0.008122,-0.040364,-0.009625
1129,-0.008979,-0.021098,-0.009625
1130,0.008122,-0.040364,-0.009625
1131,0.008122,-0.021098,-0.065715
1132,0.008122,0.017434,-0.028322
1133,-0.026081,-0.001832,0.027769
1134,0.008122,0.017434,0.009072
1135,-0.008979,0.017434,0.046465
1136,-0.008979,-0.040364,0.009072
1137,0.042325,-0.040364,0.083859
1138,-0.008979,-0.001832,0.027769
1139,0.008122,-0.021098,0.027769
1140,0.025223,-0.001832,-0.047018
1141,0.008122,-0.001832,-0.103109
1142,0.008122,-0.001832,-0.047018
1143,0.008122,-0.001832,-0.028322
1144,-0.008979,0.017434,0.009072
1145,0.008122,0.055966,-0.009625
1146,0.008122,0.017434,-0.009625
1147,-0.008979,0.017434,-0.009625
1148,-0.008979,-0.021098,0.121252
1149,-0.026081,-0.021098,0.139949
1150,0.008122,-0.05963,0.121252
1151,-0.008979,-0.05963,0.083859
1152,-0.008979,-0.021098,-0.047018
1153,0.025223,-0.001832,-0.047018
1154,0.008122,-0.001832,-0.047018
1155,0.025223,0.017434,-0.103109
1156,0.025223,0.075232,-0.121806
1157,0.025223,0.0367,0.046465
1158,0.008122,0.113764,0.065162
1159,-0.008979,-0.001832,0.009072
1160,-0.026081,-0.021098,-0.065715
1161,-0.008979,-0.040364,-0.084412
1162,-0.008979,-0.001832,-0.047018
1163,0.008122,0.017434,-0.047018
1164,-0.008979,-0.021098,-0.047018
1165,-0.008979,-0.021098,-0.028322
1166,-0.008979,0.017434,0.009072
1167,-0.008979,-0.021098,0.009072
1168,0.025223,0.017434,-0.009625
1169,0.042325,0.017434,0.009072
1170,-0.008979,0.017434,0.009072
1171,0.008122,0.055966,0.009072
1172,0.025223,0.017434,0.065162
1173,0.008122,0.017434,0.102556
1174,-0.008979,0.017434,0.027769
1175,0.008122,-0.021098,0.083859
1176,0.025223,-0.021098,-0.009625
1177,0.008122,-0.021098,0.046465
1178,0.008122,0.055966,0.102556
1179,0.025223,0.075232,0.083859
1180,0.042325,-0.001832,-0.047018
1181,-0.008979,0.017434,-0.047018
1182,-0.008979,0.017434,-0.009625
1183,0.008122,-0.040364,0.121252
1184,-0.043182,-0.040364,0.083859
1185,-0.008979,-0.040364,0.083859
1186,-0.026081,-0.05963,-0.009625
1187,-0.043182,-0.098162,-0.252683
1188,-0.026081,-0.05963,-0.290076
1189,-0.008979,-0.021098,-0.140502
1190,-0.008979,0.017434,-0.084412
1191,0.008122,0.0367,-0.028322
1192,0.008122,0.113764,0.046465
1193,0.025223,0.094498,0.009072
1194,0.025223,0.075232,0.065162
1195,0.025223,0.094498,0.046465
1196,0.025223,0.017434,0.027769
1197,0.008122,-0.021098,0.121252
1198,0.008122,-0.05963,0.121252
1199,0.008122,-0.021098,0.139949
1200,-0.008979,-0.021098,0.158646
1201,0.008122,0.0367,0.121252
1202,0.025223,0.055966,0.027769
1203,0.008122,0.017434,-0.009625
1204,0.042325,0.075232,-0.047018
1205,0.008122,0.0367,-0.065715
1206,0.008122,-0.021098,0.027769
1207,0.025223,0.017434,0.027769
1208,0.008122,-0.078896,-0.009625
1209,0.008122,-0.05963,0.027769
1210,-0.008979,-0.040364,0.027769
1211,-0.026081,-0.001832,-0.028322
1212,-0.008979,-0.021098,-0.084412
1213,-0.026081,0.0367,-0.103109
1214,-0.008979,0.075232,-0.140502
1215,-0.008979,0.055966,-0.121806
1216,-0.026081,0.017434,0.009072
1217,0.008122,-0.001832,-0.009625
1218,-0.008979,-0.001832,-0.084412
1219,0.025223,-0.001832,-0.047018
1220,0.008122,0.017434,-0.047018
1221,0.008122,-0.021098,-0.065715
1222,0.008122,-0.021098,-0.047018
1223,0.008122,0.017434,0.027769
1224,0.025223,0.017434,0.027769
1225,-0.008979,0.017434,0.083859
1226,0.025223,0.017434,0.065162
1227,0.008122,-0.001832,0.027769
1228,0.008122,-0.001832,0.009072
1229,0.042325,-0.001832,0.009072
1230,0.025223,-0.040364,-0.065715
1231,-0.008979,-0.001832,-0.047018
1232,-0.008979,-0.001832,0.027769
1233,0.008122,-0.001832,0.027769
1234,0.008122,0.055966,0.083859
1235,0.008122,0.075232,0.139949
1236,0.008122,0.0367,0.027769
1237,-0.008979,0.017434,-0.028322
1238,0.008122,0.075232,0.102556
1239,-0.008979,0.0367,0.083859
1240,0.008122,-0.021098,0.102556
1241,-0.026081,-0.021098,0.270826
1242,-0.026081,-0.040364,0.233433
1243,-0.008979,-0.05963,0.233433
1244,0.008122,-0.001832,0.083859
1245,-0.008979,-0.021098,0.083859
1246,-0.008979,-0.021098,0.009072
1247,-0.008979,-0.021098,-0.159199
1248,0.008122,0.017434,-0.177896
1249,-0.043182,-0.001832,-0.32747
1250,-0.008979,0.017434,-0.308773
1251,0.042325,-0.040364,-0.252683
1252,0.025223,-0.040364,-0.159199
1253,0.008122,-0.098162,-0.065715
1254,0.008122,-0.136694,-0.047018
1255,-0.008979,-0.117428,-0.047018
1256,-0.043182,-0.078896,-0.047018
1257,-0.026081,0.017434,-0.065715
1258,-0.026081,0.075232,-0.047018
1259,-0.008979,0.13303,-0.009625
1260,0.025223,0.13303,0.027769
1261,0.025223,0.152296,0.046465
1262,0.008122,0.113764,0.065162
1263,-0.008979,0.0367,0.027769
1264,0.025223,-0.001832,0.009072
1265,0.008122,0.017434,0.046465
1266,0.008122,0.0367,0.046465
1267,0.008122,0.0367,-0.065715
1268,0.008122,0.055966,-0.121806
1269,0.008122,-0.001832,-0.009625
1270,0.008122,0.017434,0.009072
1271,0.008122,0.017434,0.102556
1272,0.008122,-0.001832,0.102556
1273,-0.026081,-0.001832,0.046465
1274,-0.026081,-0.021098,-0.028322
1275,0.008122,-0.021098,-0.009625
1276,-0.008979,-0.05963,-0.065715
1277,0.008122,-0.05963,-0.065715
1278,0.008122,-0.040364,0.027769
1279,-0.008979,-0.021098,0.009072
1280,-0.026081,-0.001832,0.009072
1281,-0.008979,0.017434,0.027769
1282,-0.008979,0.0367,-0.009625
1283,0.008122,0.0367,-0.009625
1284,-0.008979,0.017434,-0.009625
1285,-0.008979,-0.021098,0.009072
1286,0.008122,-0.040364,-0.009625
1287,0.008122,-0.001832,0.046465
1288,0.008122,-0.040364,0.121252
1289,0.025223,-0.001832,0.158646
1290,0.025223,-0.001832,0.121252
1291,0.008122,0.017434,0.121252
1292,0.042325,0.094498,0.083859
1293,0.025223,0.0367,-0.084412
1294,-0.008979,0.0367,-0.028322
1295,-0.008979,-0.001832,0.009072
1296,-0.008979,-0.001832,0.102556
1297,0.008122,-0.040364,0.102556
1298,0.008122,0.0367,0.009072
1299,-0.008979,-0.001832,-0.028322
1300,-0.008979,-0.021098,-0.028322
1301,0.025223,-0.021098,-0.047018
1302,-0.008979,-0.040364,-0.065715
1303,-0.008979,-0.040364,-0.103109
1304,-0.008979,-0.021098,-0.121806
1305,-0.008979,-0.040364,-0.121806
1306,0.008122,-0.040364,-0.065715
1307,-0.008979,-0.05963,-0.084412
1308,-0.008979,-0.040364,-0.009625
1309,0.008122,-0.001832,0.177343
1310,0.008122,-0.040364,0.233433
1311,-0.008979,-0.021098,0.214736
1312,-0.008979,-0.001832,0.196039
1313,0.025223,0.0367,0.121252
1314,0.025223,0.0367,0.009072
1315,0.025223,0.055966,-0.028322
1316,0.025223,0.094498,-0.159199
1317,0.059426,0.055966,-0.009625
1318,0.042325,0.075232,0.121252
1319,0.008122,0.017434,0.139949
1320,0.008122,-0.001832,0.009072
1321,-0.008979,-0.040364,-0.121806
1322,-0.008979,-0.021098,-0.103109
1323,-0.026081,-0.021098,-0.084412
1324,-0.008979,-0.001832,-0.121806
1325,-0.026081,-0.040364,-0.177896
1326,-0.026081,-0.001832,-0.121806
1327,0.008122,-0.021098,-0.065715
1328,0.008122,-0.001832,0.027769
1329,-0.008979,0.0367,-0.065715
1330,0.008122,-0.001832,-0.009625
1331,0.008122,-0.001832,0.065162
1332,0.025223,0.017434,0.065162
1333,0.008122,-0.05963,0.027769
1334,0.008122,-0.078896,-0.047018
1335,-0.008979,-0.021098,0.009072
1336,-0.008979,-0.001832,-0.009625
1337,0.008122,0.0367,0.009072
1338,-0.008979,0.017434,0.214736
1339,0.025223,0.0367,0.177343
1340,0.042325,0.13303,0.196039
1341,0.025223,0.055966,0.177343
1342,0.025223,0.055966,0.214736
1343,0.025223,0.017434,-0.009625
1344,-0.026081,-0.021098,-0.215289
1345,-0.008979,-0.040364,-0.290076
1346,-0.008979,-0.05963,-0.215289
1347,0.042325,-0.001832,-0.159199
1348,0.025223,-0.021098,-0.196593
1349,-0.008979,-0.021098,-0.177896
1350,-0.008979,0.017434,-0.140502
1351,0.008122,0.0367,-0.009625
1352,-0.026081,-0.001832,0.065162
1353,-0.008979,-0.040364,0.121252
1354,-0.043182,-0.040364,0.046465
1355,-0.008979,-0.001832,0.065162
1356,0.008122,0.017434,0.009072
1357,0.008122,0.017434,0.083859
1358,0.042325,-0.021098,0.083859
1359,0.008122,0.055966,0.121252
1360,0.042325,0.0367,0.121252
1361,0.025223,0.017434,0.121252
1362,-0.008979,-0.040364,0.121252
1363,-0.008979,-0.078896,0.102556
1364,-0.026081,-0.078896,0.009072
1365,-0.043182,-0.021098,-0.121806
1366,0.008122,-0.021098,-0.215289
1367,0.008122,-0.001832,-0.159199
1368,0.025223,0.075232,0.065162
1369,0.008122,0.094498,0.196039
1370,0.025223,0.055966,0.30822
1371,0.008122,0.055966,0.289523
1372,-0.008979,-0.040364,0.102556
1373,-0.008979,-0.05963,-0.084412
1374,0.008122,0.017434,-0.065715
1375,-0.008979,0.0367,-0.159199
1376,0.008122,0.0367,-0.121806
1377,-0.008979,-0.001832,-0.028322
1378,-0.008979,-0.078896,-0.140502
1379,0.008122,-0.05963,-0.159199
1380,-0.008979,-0.098162,-0.121806
1381,-0.008979,-0.05963,-0.233986
1382,-0.026081,-0.040364,-0.121806
1383,0.008122,-0.001832,0.009072
1384,-0.008979,-0.021098,0.009072
1385,0.008122,0.017434,0.027769
1386,0.008122,0.113764,0.139949
1387,0.042325,0.075232,0.139949
1388,0.025223,0.017434,0.102556
1389,0.008122,0.0367,0.102556
1390,0.008122,0.017434,0.083859
1391,0.025223,0.0367,0.046465
1392,0.008122,-0.001832,0.009072
1393,0.008122,-0.001832,-0.028322
1394,0.008122,-0.001832,0.027769
1395,0.008122,-0.001832,0.046465
1396,-0.008979,-0.001832,-0.009625
1397,0.008122,0.017434,-0.028322
1398,-0.008979,-0.021098,-0.028322
1399,0.025223,0.017434,-0.009625
1400,0.042325,0.0367,0.009072
1401,0.025223,0.0367,0.065162
1402,0.008122,0.017434,0.158646
1403,0.008122,-0.001832,0.158646
1404,0.008122,0.0367,0.121252
1405,0.025223,0.017434,0.027769
1406,0.008122,0.017434,-0.047018
1407,0.008122,-0.001832,0.027769
1408,0.025223,-0.001832,0.102556
1409,-0.008979,0.017434,-0.028322
1410,-0.008979,-0.078896,-0.103109
1411,0.025223,-0.021098,-0.047018
1412,0.008122,0.0367,0.083859
1413,0.025223,-0.021098,0.027769
1414,0.025223,-0.040364,-0.028322
1415,-0.008979,-0.05963,-0.159199
1416,-0.008979,-0.078896,-0.233986
1417,-0.008979,-0.05963,-0.38356
1418,-0.008979,0.094498,-0.084412
1419,0.008122,0.0367,0.139949
1420,0.025223,0.075232,0.083859
1421,0.059426,0.113764,0.083859
1422,0.042325,0.075232,-0.028322
1423,0.025223,-0.021098,-0.215289
1424,0.008122,-0.05963,-0.103109
1425,-0.008979,-0.078896,0.046465
1426,0.008122,-0.136694,-0.028322
1427,-0.008979,-0.098162,-0.084412
1428,-0.008979,-0.078896,0.083859
1429,0.042325,0.0367,0.383007
1430,0.042325,0.075232,0.495188
1431,0.025223,-0.001832,0.457794
1432,0.059426,0.0367,0.233433
1433,0.025223,0.0367,-0.103109
1434,0.025223,0.017434,-0.32747
1435,0.042325,0.055966,-0.38356
1436,0.008122,0.055966,-0.084412
1437,-0.008979,-0.001832,-0.047018
1438,-0.026081,0.017434,-0.047018
1439,-0.008979,-0.001832,-0.196593
1440,-0.026081,-0.040364,-0.103109
1441,-0.008979,-0.001832,-0.215289
1442,-0.008979,-0.040364,-0.084412
1443,0.025223,0.017434,0.027769
1444,0.008122,-0.05963,0.102556
1445,-0.008979,-0.040364,0.121252
1446,0.008122,-0.001832,-0.065715
1447,0.008122,-0.040364,-0.215289
1448,-0.008979,-0.040364,-0.140502
1449,0.025223,0.017434,-0.065715
1450,-0.008979,-0.021098,-0.103109
1451,-0.008979,0.0367,-0.196593
1452,0.025223,-0.040364,-0.215289
1453,-0.008979,-0.078896,-0.215289
1454,0.008122,-0.078896,-0.196593
1455,0.008122,-0.021098,0.083859
1456,0.025223,0.075232,0.25213
1457,0.008122,0.055966,0.196039
1458,0.025223,0.017434,0.30822
1459,0.008122,0.017434,0.345613
1460,0.008122,-0.001832,0.345613
1461,0.042325,-0.001832,0.233433
1462,0.008122,-0.05963,0.083859
1463,0.042325,0.055966,-0.103109
1464,0.025223,0.0367,-0.047018
1465,0.008122,-0.021098,0.065162
1466,-0.008979,0.0367,0.046465
1467,0.025223,-0.001832,-0.028322
1468,0.025223,-0.098162,-0.065715
1469,-0.008979,-0.021098,0.083859
1470,-0.008979,-0.040364,0.121252
1471,0.025223,-0.021098,0.177343
1472,-0.008979,-0.05963,-0.047018
1473,-0.008979,-0.021098,-0.121806
1474,-0.008979,0.094498,-0.233986
1475,0.025223,0.017434,-0.047018
1476,0.025223,0.075232,0.196039
1477,0.025223,0.094498,0.30822
1478,0.042325,0.075232,0.196039
1479,0.008122,0.017434,0.027769
1480,0.042325,0.055966,0.027769
1481,0.025223,0.0367,0.102556
1482,0.059426,0.075232,0.139949
1483,0.059426,0.055966,0.083859
1484,0.042325,0.017434,-0.215289
1485,-0.026081,-0.001832,-0.308773
1486,-0.008979,-0.021098,-0.252683
1487,-0.026081,-0.078896,-0.308773
1488,-0.008979,-0.05963,-0.159199
1489,0.008122,-0.040364,-0.047018
1490,-0.008979,-0.040364,0.139949
1491,0.025223,-0.040364,0.121252
1492,0.025223,-0.001832,0.027769
1493,0.008122,0.0367,0.102556
1494,-0.008979,-0.021098,0.214736
1495,0.042325,-0.021098,0.139949
1496,0.042325,-0.021098,0.009072
1497,0.025223,-0.001832,-0.196593
1498,0.025223,-0.001832,-0.215289
1499,0.008122,-0.001832,-0.065715
1500,0.008122,-0.021098,0.027769
1501,-0.008979,0.017434,-0.084412
1502,-0.008979,-0.001832,-0.32747
1503,-0.026081,-0.021098,-0.27138
1504,-0.026081,-0.05963,0.009072
1505,-0.008979,0.017434,0.25213
1506,0.025223,0.0367,0.158646
1507,0.025223,0.055966,-0.084412
1508,0.025223,-0.001832,-0.196593
1509,0.042325,-0.021098,-0.009625
1510,0.008122,0.0367,0.270826
1511,0.008122,-0.001832,0.270826
1512,-0.008979,-0.098162,0.009072
1513,0.008122,-0.040364,0.046465
1514,-0.008979,-0.05963,0.027769
1515,0.008122,-0.040364,0.102556
1516,0.008122,0.055966,0.102556
1517,0.008122,0.113764,0.046465
1518,-0.008979,-0.001832,0.009072
1519,0.008122,-0.040364,-0.103109
1520,-0.008979,-0.001832,-0.065715
1521,0.059426,-0.040364,0.027769
1522,0.008122,-0.078896,-0.009625
1523,-0.008979,-0.040364,0.102556
1524,0.008122,-0.040364,-0.047018
1525,0.008122,0.075232,0.027769
1526,0.008122,0.017434,-0.196593
1527,0.025223,0.055966,-0.252683
1528,0.042325,0.075232,-0.084412
1529,0.025223,0.017434,-0.065715
1530,0.025223,0.094498,0.046465
1531,0.008122,0.094498,0.158646
1532,0.042325,0.075232,0.196039
1533,0.025223,0.017434,0.046465
1534,0.025223,-0.040364,-0.028322
1535,-0.008979,-0.021098,-0.27138
1536,0.025223,-0.05963,-0.047018
1537,0.008122,-0.136694,-0.047018
1538,0.025223,-0.078896,0.065162
1539,-0.008979,-0.05963,0.30822
1540,0.042325,0.017434,0.383007
1541,0.008122,0.055966,0.214736
1542,0.042325,0.094498,-0.065715
1543,0.025223,0.0367,-0.047018
1544,-0.008979,0.017434,0.027769
1545,-0.026081,-0.021098,-0.140502
1546,-0.008979,-0.001832,0.009072
1547,0.008122,0.055966,-0.215289
1548,-0.008979,0.017434,-0.177896
1549,0.025223,0.094498,0.083859
1550,0.042325,0.055966,0.121252
1551,0.042325,0.075232,0.121252
1552,0.042325,0.075232,0.027769
1553,0.059426,0.0367,-0.159199
1554,0.042325,0.0367,-0.047018
1555,0.042325,-0.021098,0.102556
1556,0.042325,0.0367,0.102556
1557,0.042325,0.055966,-0.047018
1558,0.008122,-0.040364,-0.233986
1559,0.008122,-0.021098,-0.346167
1560,-0.026081,-0.117428,-0.38356
1561,-0.026081,-0.078896,-0.065715
1562,0.008122,-0.040364,0.139949
1563,0.059426,-0.021098,0.158646
1564,0.042325,-0.021098,-0.065715
1565,-0.008979,-0.05963,0.046465
1566,-0.008979,-0.001832,0.102556
1567,-0.008979,0.0367,0.121252
1568,0.008122,0.0367,0.270826
1569,-0.008979,0.075232,0.36431
1570,0.008122,0.055966,0.196039
1571,0.008122,-0.021098,0.177343
1572,0.008122,-0.001832,0.027769
1573,0.025223,-0.021098,-0.27138
1574,0.008122,-0.078896,-0.589224
1575,0.008122,-0.05963,-0.215289
1576,0.042325,-0.021098,0.121252
1577,-0.008979,-0.001832,0.233433
1578,0.008122,0.113764,0.36431
1579,0.042325,0.055966,0.25213
1580,-0.008979,-0.021098,0.214736
1581,0.008122,-0.040364,0.046465
1582,-0.026081,-0.05963,-0.252683
1583,0.008122,-0.021098,-0.159199
1584,0.008122,0.017434,-0.233986
1585,0.008122,0.094498,-0.047018
1586,-0.008979,0.0367,-0.121806
1587,0.008122,0.017434,-0.121806
1588,-0.008979,-0.001832,-0.159199
1589,0.025223,-0.021098,0.046465
1590,0.008122,-0.021098,0.121252
1591,-0.008979,-0.021098,0.139949
1592,-0.026081,-0.040364,0.083859
1593,0.025223,-0.05963,-0.084412
1594,-0.026081,-0.021098,-0.121806
1595,0.008122,0.055966,-0.121806
1596,0.025223,-0.001832,-0.103109
1597,-0.008979,-0.021098,-0.121806
1598,0.042325,-0.001832,-0.065715
1599,0.042325,0.017434,-0.047018
1600,0.025223,0.075232,0.158646
1601,0.076527,0.075232,0.270826
1602,0.025223,0.017434,0.214736
1603,0.008122,-0.098162,-0.159199
1604,-0.008979,-0.078896,-0.402257
1605,-0.008979,0.017434,-0.252683
1606,-0.008979,-0.021098,-0.140502
1607,0.008122,0.017434,0.177343
1608,0.008122,0.0367,0.345613
1609,0.025223,-0.078896,0.046465
1610,0.025223,-0.001832,-0.047018
1611,0.025223,-0.021098,0.177343
1612,-0.026081,-0.05963,0.065162
1613,0.008122,-0.021098,0.027769
1614,-0.008979,-0.021098,0.158646
1615,0.008122,0.055966,0.196039
1616,0.059426,0.055966,0.214736
1617,0.025223,0.017434,0.102556
1618,0.008122,-0.001832,-0.196593
1619,0.008122,-0.021098,-0.028322
1620,0.008122,0.113764,0.476491
1621,0.042325,0.113764,0.532581
1622,0.025223,0.094498,0.083859
1623,-0.008979,0.055966,-0.477044
1624,-0.026081,-0.05963,-0.701405
1625,-0.026081,-0.098162,-0.402257
1626,0.008122,-0.040364,-0.009625
1627,0.076527,-0.001832,0.158646
1628,0.076527,0.113764,0.270826
1629,0.059426,0.152296,0.139949
1630,0.042325,0.055966,0.158646
1631,-0.008979,-0.021098,-0.084412
1632,-0.043182,-0.15596,-0.252683
1633,-0.026081,-0.117428,-0.177896
1634,-0.008979,-0.021098,-0.159199
1635,-0.026081,-0.040364,-0.252683
1636,0.042325,0.017434,0.046465
1637,0.076527,0.113764,0.551278
1638,0.025223,0.075232,0.289523
1639,-0.026081,0.017434,-0.196593
1640,-0.008979,-0.021098,-0.159199
1641,0.008122,-0.001832,0.139949
1642,0.008122,-0.05963,0.009072
1643,-0.026081,-0.098162,-0.047018
1644,-0.026081,-0.117428,0.009072
1645,0.008122,-0.040364,0.102556
1646,0.008122,0.017434,-0.047018
1647,0.008122,0.094498,-0.32747
1648,0.059426,0.0367,-0.084412
1649,0.008122,-0.001832,0.326917
1650,-0.008979,-0.001832,0.401704
1651,0.025223,-0.040364,0.065162
1652,0.025223,0.017434,-0.159199
1653,0.042325,0.075232,-0.215289
1654,0.008122,-0.001832,-0.233986
1655,0.008122,0.055966,-0.084412
1656,0.025223,0.094498,-0.196593
1657,-0.008979,-0.001832,-0.103109
1658,-0.008979,-0.040364,-0.084412
1659,0.025223,-0.021098,-0.047018
1660,-0.008979,-0.117428,-0.233986
1661,-0.008979,-0.136694,-0.346167
1662,-0.008979,-0.117428,-0.32747
1663,0.008122,-0.001832,0.083859
1664,0.025223,0.075232,0.401704
1665,0.025223,0.113764,0.439097
1666,0.042325,0.210094,0.551278
1667,0.008122,0.094498,0.102556
1668,0.025223,0.0367,-0.233986
1669,-0.008979,0.0367,0.065162
1670,0.025223,0.017434,-0.065715
1671,0.025223,-0.040364,-0.140502
1672,0.025223,-0.078896,-0.196593
1673,-0.026081,-0.098162,-0.27138
1674,0.008122,-0.040364,0.009072
1675,0.042325,0.094498,0.158646
1676,0.025223,0.055966,0.30822
1677,-0.008979,-0.021098,0.326917
1678,-0.008979,-0.021098,0.046465
1679,0.008122,-0.021098,-0.121806
1680,0.008122,0.017434,-0.159199
1681,0.025223,0.0367,-0.065715
1682,0.025223,-0.001832,0.139949
1683,0.008122,0.055966,0.25213
1684,0.025223,-0.040364,0.027769
1685,0.042325,-0.05963,-0.121806
1686,-0.008979,-0.040364,0.009072
1687,0.025223,-0.040364,0.196039
1688,0.008122,0.055966,0.513884
1689,0.042325,0.113764,0.4204
1690,0.025223,0.0367,0.139949
1691,0.008122,-0.021098,-0.252683
1692,0.008122,0.075232,-0.215289
1693,0.059426,0.113764,-0.009625
1694,0.025223,0.13303,-0.009625
1695,0.008122,0.055966,-0.215289
1696,-0.026081,-0.021098,-0.346167
1697,-0.026081,-0.040364,-0.140502
1698,0.025223,0.017434,0.177343
1699,0.059426,0.017434,0.065162
1700,0.025223,-0.040364,-0.159199
1701,-0.008979,-0.05963,-0.27138
1702,-0.060283,-0.136694,-0.177896
1703,-0.008979,-0.001832,0.177343
1704,0.008122,-0.001832,0.121252
1705,0.008122,-0.05963,0.102556
1706,0.008122,0.075232,0.027769
1707,-0.008979,0.0367,-0.458347
1708,-0.043182,-0.117428,-0.701405
1709,-0.026081,-0.194492,-0.458347
1710,-0.008979,-0.194492,-0.308773
1711,-0.008979,-0.040364,0.326917
1712,0.008122,0.055966,0.495188
1713,0.025223,0.113764,0.532581
1714,0.042325,0.13303,0.25213
1715,0.042325,0.094498,-0.084412
1716,0.025223,-0.001832,-0.233986
1717,0.008122,-0.021098,-0.084412
1718,-0.008979,0.0367,0.36431
1719,0.008122,0.094498,0.177343
1720,0.025223,0.0367,-0.028322
1721,-0.008979,0.017434,-0.084412
1722,0.008122,-0.021098,-0.065715
1723,-0.008979,0.017434,0.121252
1724,0.042325,0.017434,0.121252
1725,0.008122,-0.001832,0.083859
1726,0.008122,-0.021098,0.065162
1727,-0.008979,-0.040364,0.121252
1728,0.025223,-0.001832,0.139949
1729,0.025223,0.017434,0.065162
1730,0.008122,-0.040364,0.009072
1731,0.025223,-0.021098,0.102556
1732,0.008122,-0.001832,-0.084412
1733,0.025223,0.055966,0.326917
1734,0.042325,-0.001832,0.196039
1735,0.076527,0.094498,0.196039
1736,0.042325,0.13303,0.4204
1737,0.008122,0.113764,-0.065715
1738,-0.077385,-0.001832,-0.589224
1739,-0.026081,-0.117428,-0.458347
1740,-0.026081,-0.194492,-0.43965
1741,-0.043182,-0.175226,-0.252683
1742,0.008122,-0.098162,0.102556
1743,0.042325,0.0367,0.30822
1744,0.059426,0.152296,0.401704
1745,0.008122,0.152296,-0.159199
1746,-0.008979,0.017434,-0.402257
1747,0.008122,-0.021098,-0.159199
1748,0.059426,0.0367,0.046465
1749,0.042325,-0.021098,0.121252
1750,0.008122,-0.05963,0.065162
1751,-0.026081,-0.117428,-0.43965
1752,-0.077385,-0.136694,-0.458347
1753,-0.026081,-0.040364,0.158646
1754,0.025223,0.0367,-0.177896
1755,0.042325,0.0367,-0.047018
1756,0.042325,0.075232,0.177343
1757,0.008122,0.113764,0.270826
1758,-0.043182,-0.05963,-0.233986
1759,0.008122,-0.078896,0.121252
1760,0.008122,-0.078896,0.439097
1761,-0.008979,0.055966,0.775639
1762,0.008122,0.13303,0.495188
1763,-0.008979,0.113764,-0.196593
1764,-0.008979,0.075232,-0.215289
1765,0.008122,0.017434,-0.140502
1766,-0.008979,-0.098162,-0.215289
1767,-0.026081,-0.05963,-0.103109
1768,-0.008979,-0.040364,-0.009625
1769,0.025223,-0.021098,0.046465
1770,-0.008979,-0.001832,-0.065715
1771,-0.008979,0.0367,-0.140502
1772,-0.008979,-0.021098,-0.159199
1773,0.025223,0.017434,-0.009625
1774,0.008122,-0.021098,0.027769
1775,0.025223,-0.001832,-0.028322
1776,0.008122,-0.021098,-0.028322
1777,0.025223,-0.040364,-0.140502
1778,0.025223,0.017434,-0.009625
1779,-0.008979,-0.001832,-0.121806
1780,0.025223,-0.001832,-0.028322
1781,0.008122,-0.001832,0.046465
1782,-0.026081,-0.040364,0.065162
1783,0.008122,-0.001832,0.196039
1784,0.008122,-0.001832,-0.159199
1785,0.008122,0.0367,-0.103109
1786,0.025223,0.017434,-0.047018
1787,0.008122,-0.05963,0.083859
1788,0.008122,-0.05963,0.102556
1789,-0.008979,-0.040364,-0.028322
1790,-0.008979,-0.001832,-0.047018
1791,0.025223,0.113764,-0.028322
1792,0.025223,0.055966,-0.065715
1793,0.008122,0.0367,0.065162
1794,0.025223,0.055966,0.009072
1795,0.025223,0.055966,0.046465
1796,0.008122,0.017434,-0.009625
1797,0.008122,0.017434,-0.252683
1798,0.025223,-0.001832,-0.32747
1799,0.008122,0.017434,-0.047018
1800,0.042325,-0.001832,0.270826
1801,0.025223,-0.040364,0.401704
1802,-0.008979,-0.117428,0.027769
1803,-0.026081,-0.078896,-0.233986
1804,-0.043182,-0.040364,-0.009625
1805,-0.008979,0.075232,0.513884
1806,0.008122,0.152296,0.25213
1807,0.025223,0.075232,0.009072
1808,0.025223,-0.001832,0.009072
1809,0.008122,-0.021098,-0.121806
1810,-0.026081,-0.021098,-0.121806
1811,0.008122,-0.040364,-0.028322
1812,0.025223,-0.040364,-0.047018
1813,-0.008979,-0.040364,-0.121806
1814,-0.026081,-0.05963,-0.103109
1815,-0.008979,-0.001832,-0.028322
1816,-0.008979,0.017434,0.121252
1817,0.008122,0.055966,0.083859
1818,0.008122,0.055966,0.027769
1819,-0.008979,0.0367,-0.028322
1820,0.008122,-0.078896,0.046465
1821,-0.008979,-0.040364,0.065162
1822,0.008122,-0.040364,0.083859
1823,-0.008979,-0.021098,-0.103109
1824,-0.008979,-0.001832,-0.159199
1825,0.008122,0.017434,-0.103109
1826,0.008122,0.017434,-0.047018
1827,-0.008979,0.017434,-0.009625
1828,0.025223,-0.040364,0.046465
1829,0.025223,0.017434,0.083859
1830,0.042325,0.017434,0.027769
1831,0.008122,-0.001832,-0.028322
1832,0.008122,-0.021098,0.027769
1833,0.008122,-0.040364,0.046465
1834,0.008122,0.0367,0.083859
1835,0.008122,0.0367,-0.009625
1836,0.008122,-0.001832,-0.065715
1837,0.008122,0.017434,-0.028322
1838,0.025223,0.017434,-0.065715
1839,0.025223,-0.021098,-0.047018
1840,0.042325,-0.021098,-0.009625
1841,0.025223,-0.001832,0.102556
1842,0.008122,-0.001832,0.009072
1843,-0.026081,-0.021098,-0.047018
1844,-0.008979,-0.021098,-0.103109
1845,-0.008979,-0.021098,-0.028322
1846,-0.026081,-0.040364,-0.009625
1847,-0.008979,-0.001832,0.009072
1848,0.008122,-0.001832,0.009072
1849,0.008122,-0.021098,0.027769
1850,0.008122,0.055966,0.083859
1851,0.008122,0.0367,0.009072
1852,0.008122,-0.001832,-0.084412
1853,0.008122,-0.001832,-0.196593
1854,0.025223,-0.001832,-0.009625
1855,0.025223,0.0367,0.158646
1856,0.008122,0.017434,0.158646
1857,0.008122,0.017434,0.139949
1858,-0.008979,-0.021098,-0.009625
1859,0.008122,-0.05963,-0.084412
1860,-0.008979,-0.078896,-0.065715
1861,-0.008979,-0.040364,-0.065715
1862,-0.008979,-0.001832,-0.084412
1863,0.008122,0.055966,-0.047018
1864,0.008122,0.017434,-0.028322
1865,-0.026081,-0.001832,-0.009625
1866,0.008122,-0.021098,0.009072
1867,0.025223,0.055966,0.065162
1868,0.025223,0.017434,0.102556
1869,0.025223,0.017434,0.083859
1870,0.008122,-0.001832,0.158646
1871,-0.008979,0.0367,0.121252
1872,0.008122,-0.021098,0.046465
1873,0.008122,-0.001832,-0.065715
1874,-0.008979,-0.001832,-0.047018
1875,-0.008979,-0.05963,-0.159199
1876,-0.008979,-0.098162,-0.121806
1877,0.008122,-0.136694,0.009072
1878,0.025223,-0.117428,-0.028322
1879,-0.008979,-0.117428,0.065162
1880,-0.026081,-0.098162,0.009072
1881,-0.026081,0.017434,-0.047018
1882,-0.008979,0.055966,-0.084412
1883,-0.026081,0.055966,-0.159199
1884,-0.077385,0.0367,-0.215289
1885,-0.026081,0.055966,-0.103109
1886,0.008122,0.055966,-0.121806
1887,0.042325,0.017434,0.102556
1888,0.042325,-0.001832,0.158646
1889,0.042325,0.017434,0.326917
1890,0.025223,0.075232,0.36431
1891,0.076527,0.267892,0.383007
1892,0.093629,0.152296,-0.009625
1893,0.042325,0.13303,-0.047018
1894,0.059426,0.075232,0.083859
1895,-0.026081,0.017434,-0.028322
1896,0.008122,-0.021098,-0.103109
1897,-0.008979,-0.040364,-0.140502
1898,-0.008979,-0.078896,-0.065715
1899,0.008122,-0.021098,0.027769
1900,-0.008979,-0.021098,0.027769
1901,-0.008979,-0.001832,-0.009625
1902,0.008122,-0.001832,-0.028322
1903,-0.026081,-0.001832,-0.065715
1904,-0.008979,-0.021098,-0.047018
1905,-0.008979,0.017434,-0.028322
1906,0.025223,-0.001832,0.009072
1907,0.025223,-0.021098,0.027769
1908,-0.008979,-0.040364,0.027769
1909,0.008122,-0.05963,0.027769
1910,-0.008979,-0.001832,0.027769
1911,0.025223,-0.05963,-0.009625
1912,-0.008979,0.055966,-0.028322
1913,0.008122,0.055966,-0.009625
1914,-0.008979,0.075232,-0.028322
1915,-0.008979,0.017434,-0.065715
1916,0.008122,-0.040364,-0.047018
1917,-0.026081,-0.040364,0.027769
1918,0.008122,-0.098162,0.065162
1919,0.025223,-0.040364,0.214736
1920,0.008122,0.017434,0.270826
1921,0.025223,0.017434,0.009072
1922,-0.008979,-0.001832,-0.215289
1923,-0.008979,-0.001832,-0.140502
1924,-0.008979,-0.001832,-0.028322
1925,-0.008979,0.017434,0.027769
1926,0.025223,0.075232,0.177343
1927,0.008122,0.075232,0.009072
1928,0.008122,0.017434,0.046465
1929,-0.008979,-0.05963,-0.103109
1930,-0.008979,-0.098162,-0.047018
1931,-0.008979,-0.098162,-0.028322
1932,-0.043182,-0.098162,0.027769
1933,-0.026081,-0.05963,-0.084412
1934,-0.008979,-0.098162,-0.065715
1935,-0.008979,-0.078896,-0.009625
1936,-0.008979,-0.078896,0.009072
1937,-0.008979,-0.098162,0.009072
1938,-0.043182,-0.05963,0.046465
1939,-0.043182,-0.040364,-0.009625
1940,-0.026081,0.0367,0.046465
1941,-0.008979,0.0367,0.009072
1942,-0.008979,0.094498,-0.028322
1943,-0.008979,0.152296,-0.009625
1944,0.008122,0.171562,-0.028322
1945,0.059426,0.171562,-0.047018
1946,0.059426,0.13303,0.027769
1947,0.059426,0.055966,0.009072
1948,0.042325,-0.021098,-0.009625
1949,0.025223,-0.040364,0.009072
1950,-0.060283,-0.040364,-0.028322
1951,0.008122,0.017434,-0.009625
1952,0.025223,0.0367,-0.028322
1953,0.025223,0.0367,-0.047018
1954,0.025223,0.0367,-0.028322
1955,0.008122,0.017434,-0.009625
1956,0.025223,-0.021098,0.009072
1957,-0.008979,-0.078896,0.027769
1958,0.008122,-0.136694,0.046465
1959,0.008122,-0.05963,0.065162
1960,0.059426,-0.001832,0.009072
1961,0.059426,0.055966,-0.009625
1962,0.042325,0.094498,0.009072
1963,0.076527,0.113764,-0.047018
1964,-0.008979,0.094498,0.009072
1965,-0.060283,0.094498,0.009072
1966,-0.043182,0.075232,-0.009625
1967,0.008122,-0.001832,0.009072
1968,0.059426,-0.040364,0.027769
1969,0.059426,-0.021098,-0.065715
1970,0.008122,-0.021098,-0.065715
1971,0.008122,-0.001832,-0.047018
1972,-0.008979,-0.021098,0.046465
1973,0.008122,-0.021098,0.177343
1974,0.008122,-0.021098,0.270826
1975,0.025223,-0.001832,0.139949
1976,0.025223,0.0367,0.009072
1977,0.008122,-0.040364,-0.233986
1978,0.008122,-0.040364,-0.233986
1979,-0.026081,-0.001832,-0.028322
1980,-0.008979,-0.001832,-0.047018
1981,-0.026081,-0.001832,-0.084412
1982,-0.008979,0.0367,-0.047018
1983,-0.026081,-0.001832,0.009072
1984,0.008122,0.017434,-0.047018
1985,-0.008979,-0.021098,-0.028322
1986,-0.008979,-0.001832,-0.009625
1987,-0.008979,0.017434,0.027769
1988,-0.008979,-0.021098,0.083859
1989,0.008122,-0.021098,0.083859
1990,0.025223,-0.021098,0.009072
1991,-0.008979,-0.021098,-0.028322
1992,-0.008979,-0.021098,0.009072
1993,0.008122,0.017434,0.027769
1994,-0.026081,-0.001832,0.065162
1995,0.008122,0.017434,0.009072
1996,-0.008979,0.075232,0.065162
1997,0.042325,0.0367,0.102556
1998,0.025223,0.017434,0.027769
1999,0.025223,0.017434,-0.009625
2000,-0.026081,0.017434,-0.009625
2001,-0.026081,-0.001832,-0.028322
2002,0.008122,-0.040364,-0.028322
2003,-0.008979,-0.021098,-0.047018
2004,-0.008979,-0.001832,0.009072
2005,-0.008979,-0.040364,0.065162
2006,-0.008979,-0.05963,0.009072
2007,0.025223,-0.040364,0.009072
2008,-0.026081,-0.021098,0.009072
2009,-0.008979,-0.05963,-0.009625
2010,0.008122,-0.05963,-0.028322
2011,-0.043182,-0.040364,-0.047018
2012,0.008122,-0.040364,-0.065715
2013,-0.008979,0.0367,-0.009625
2014,-0.008979,0.0367,0.046465
2015,0.008122,0.0367,0.046465
2016,-0.008979,0.055966,0.027769
2017,-0.008979,-0.001832,0.046465
2018,-0.008979,-0.05963,-0.028322
2019,-0.026081,-0.078896,0.027769
2020,-0.008979,-0.078896,-0.009625
2021,0.008122,-0.040364,-0.009625
2022,-0.008979,-0.117428,-0.009625
2023,-0.026081,-0.15596,-0.028322
2024,-0.043182,-0.078896,-0.028322
2025,-0.008979,0.0367,0.009072
2026,-0.008979,0.113764,0.046465
2027,0.042325,0.113764,-0.009625
2028,-0.026081,0.13303,0.046465
2029,-0.043182,0.075232,0.009072
2030,-0.060283,-0.021098,-0.009625
2031,-0.077385,-0.175226,0.009072
2032,-0.077385,-0.348619,0.065162
2033,-0.060283,-0.367885,0.009072
2034,-0.043182,-0.348619,0.027769
2035,-0.026081,-0.310087,0.046465
2036,-0.043182,-0.271555,-0.009625
2037,-0.043182,-0.15596,0.009072
2038,-0.14579,0.055966,-0.047018
2039,-0.14579,0.210094,-0.065715
2040,0.093629,0.383488,-0.065715
2041,0.179135,0.441286,-0.028322
2042,0.315946,0.499084,-0.047018
2043,0.264642,0.576148,0.009072
2044,0.213338,0.460552,0.027769
2045,0.11073,0.287158,0.027769
2046,0.076527,0.13303,0.027769
2047,0.059426,0.0367,0.065162
2048,0.076527,0.0367,0.027769
2049,0.076527,0.0367,0.046465
2050,-0.060283,0.017434,0.065162
2051,-0.043182,0.017434,0.009072
2052,-0.026081,-0.001832,-0.028322
2053,-0.008979,-0.040364,-0.047018
2054,-0.026081,-0.078896,-0.047018
2055,-0.026081,-0.05963,-0.009625
2056,-0.043182,-0.040364,0.046465
2057,-0.043182,-0.05963,0.009072
2058,-0.026081,0.017434,0.009072
2059,-0.060283,-0.040364,-0.028322
2060,-0.026081,0.017434,-0.047018
2061,-0.008979,-0.001832,-0.028322
2062,0.008122,0.017434,0.009072
2063,-0.008979,-0.021098,0.009072
2064,-0.008979,-0.040364,0.046465
2065,-0.008979,-0.021098,0.065162
2066,0.008122,-0.021098,0.065162
2067,0.025223,0.017434,0.065162
2068,0.008122,-0.021098,-0.009625
2069,0.008122,-0.021098,-0.084412
2070,-0.026081,-0.078896,-0.009625
2071,0.008122,-0.001832,0.046465
2072,-0.008979,-0.001832,0.027769
2073,0.025223,0.017434,0.065162
2074,0.008122,0.0367,0.083859
2075,-0.008979,-0.001832,-0.009625
2076,0.008122,-0.05963,-0.028322
2077,0.008122,-0.040364,-0.047018
2078,-0.026081,-0.040364,-0.103109
2079,0.008122,-0.021098,-0.103109
2080,0.008122,-0.001832,-0.028322
2081,-0.026081,-0.021098,-0.047018
2082,-0.026081,-0.021098,-0.047018
2083,-0.026081,-0.001832,0.009072
2084,0.008122,-0.001832,-0.009625
2085,-0.008979,-0.021098,0.009072
2086,0.008122,-0.05963,0.027769
2087,-0.008979,-0.001832,0.027769
2088,-0.008979,-0.001832,-0.028322
2089,0.025223,-0.001832,-0.009625
2090,0.008122,-0.001832,-0.028322
2091,-0.008979,-0.001832,-0.028322
2092,-0.008979,0.017434,-0.009625
2093,0.008122,-0.021098,0.046465
2094,0.008122,-0.021098,-0.009625
2095,0.025223,0.017434,0.027769
2096,-0.008979,0.017434,0.046465
2097,0.008122,-0.021098,0.027769
2098,-0.026081,-0.040364,0.083859
2099,-0.026081,-0.021098,0.046465
2100,-0.008979,-0.021098,-0.028322
2101,-0.043182,0.017434,0.027769
2102,-0.026081,-0.001832,-0.028322
2103,-0.043182,-0.021098,-0.065715
2104,-0.060283,-0.05963,-0.009625
2105,-0.060283,-0.117428,0.027769
2106,-0.043182,-0.117428,-0.009625
2107,0.008122,-0.05963,-0.028322
2108,0.008122,-0.001832,0.009072
2109,-0.026081,0.055966,0.009072
2110,0.025223,0.094498,-0.028322
2111,0.059426,0.094498,-0.009625
2112,0.042325,0.055966,0.027769
2113,-0.043182,0.075232,0.065162
2114,0.042325,0.0367,0.065162
2115,0.059426,-0.040364,0.065162
2116,0.042325,-0.001832,0.046465
2117,0.025223,0.0367,-0.121806
2118,0.059426,0.055966,-0.177896
2119,0.025223,-0.021098,-0.103109
2120,-0.008979,-0.021098,-0.047018
2121,-0.043182,-0.040364,-0.047018
2122,-0.043182,-0.098162,0.009072
2123,-0.060283,-0.136694,0.046465
2124,-0.077385,-0.15596,0.065162
2125,-0.111587,-0.136694,0.046465
2126,-0.111587,-0.117428,0.046465
2127,-0.026081,-0.15596,-0.009625
2128,0.076527,-0.117428,-0.009625
2129,0.179135,0.017434,0.027769
2130,0.162034,0.113764,-0.028322
2131,0.127831,0.171562,-0.065715
2132,0.076527,0.248626,-0.028322
2133,0.008122,0.171562,-0.028322
2134,-0.077385,0.171562,-0.028322
2135,-0.162891,0.171562,-0.009625
2136,-0.179993,0.152296,0.027769
2137,-0.077385,0.075232,0.009072
2138,-0.043182,0.0367,0.065162
2139,0.008122,0.094498,0.009072
2140,0.059426,0.017434,-0.028322
2141,0.093629,-0.001832,0.009072
2142,0.042325,-0.021098,-0.028322
2143,0.008122,-0.021098,0.009072
2144,0.008122,-0.021098,0.027769
2145,0.008122,-0.040364,0.027769
2146,-0.008979,-0.078896,-0.009625
2147,0.025223,-0.078896,0.027769
2148,-0.008979,-0.05963,0.027769
2149,-0.008979,-0.040364,0.009072
2150,-0.026081,0.017434,-0.009625
2151,-0.043182,0.0367,0.009072
2152,-0.043182,0.055966,0.009072
2153,-0.026081,0.0367,0.009072
2154,0.008122,0.0367,0.046465
2155,0.008122,0.0367,0.009072
2156,0.008122,-0.001832,0.027769
2157,0.008122,-0.001832,0.046465
2158,-0.008979,-0.001832,-0.009625
2159,0.008122,-0.05963,-0.028322
2160,-0.008979,-0.021098,-0.009625
2161,-0.008979,0.017434,0.009072
2162,-0.008979,0.017434,0.065162
2163,-0.008979,0.017434,0.046465
2164,-0.008979,0.017434,0.027769
2165,-0.008979,0.017434,0.027769
2166,-0.026081,-0.001832,0.027769
2167,-0.008979,-0.040364,-0.028322
2168,0.008122,0.0367,-0.009625
2169,-0.008979,0.0367,0.046465
2170,-0.008979,-0.001832,0.009072
2171,0.008122,-0.001832,-0.065715
2172,0.008122,-0.040364,-0.047018
2173,-0.008979,-0.021098,-0.103109
2174,-0.026081,-0.040364,-0.103109
2175,-0.043182,-0.040364,-0.047018
2176,-0.026081,-0.001832,-0.028322
2177,-0.008979,-0.040364,0.009072
2178,-0.026081,-0.001832,0.009072
2179,-0.026081,-0.021098,-0.009625
2180,0.008122,-0.001832,-0.028322
2181,-0.008979,-0.001832,0.009072
2182,-0.008979,-0.021098,-0.028322
2183,0.008122,-0.001832,0.009072
2184,-0.008979,-0.05963,0.027769
2185,-0.008979,-0.05963,0.046465
2186,0.008122,-0.05963,0.009072
2187,-0.008979,-0.040364,0.046465
2188,-0.026081,-0.001832,0.027769
2189,-0.043182,-0.001832,-0.009625
2190,0.008122,0.0367,0.046465
2191,-0.008979,0.055966,0.046465
2192,0.025223,0.075232,0.046465
2193,0.025223,0.0367,0.046465
2194,0.008122,0.017434,0.027769
2195,-0.026081,0.017434,-0.009625
2196,-0.008979,-0.001832,-0.009625
2197,-0.060283,-0.098162,-0.084412
2198,-0.060283,-0.136694,-0.121806
2199,-0.043182,-0.117428,-0.028322
2200,-0.008979,-0.078896,-0.028322
2201,-0.008979,-0.078896,-0.009625
2202,-0.026081,-0.040364,0.046465
2203,-0.008979,-0.001832,0.027769
2204,0.042325,0.094498,-0.028322
2205,0.059426,0.13303,-0.028322
2206,0.076527,0.113764,0.027769
2207,0.025223,0.055966,-0.009625
2208,-0.077385,0.055966,-0.009625
2209,-0.077385,0.055966,-0.028322
2210,0.025223,0.075232,-0.009625
2211,0.059426,-0.021098,-0.028322
2212,0.008122,-0.021098,-0.028322
2213,-0.008979,-0.001832,-0.047018
2214,-0.026081,-0.001832,-0.009625
2215,-0.008979,0.0367,0.027769
2216,-0.026081,-0.001832,-0.009625
2217,0.008122,-0.040364,-0.028322
2218,-0.026081,-0.05963,-0.009625
2219,-0.008979,-0.021098,-0.009625
2220,-0.026081,-0.021098,-0.047018
2221,-0.008979,-0.05963,0.009072
2222,0.025223,-0.040364,-0.009625
2223,-0.008979,-0.05963,-0.028322
2224,0.008122,-0.136694,0.027769
2225,-0.060283,-0.098162,0.027769
2226,-0.060283,-0.05963,0.009072
2227,-0.043182,-0.001832,0.046465
2228,-0.060283,0.055966,0.027769
2229,-0.060283,0.094498,-0.009625
2230,-0.043182,0.190828,0.009072
2231,0.059426,0.210094,0.009072
2232,0.11073,0.13303,-0.028322
2233,0.213338,0.094498,-0.009625
2234,0.213338,0.0367,0.027769
2235,0.042325,0.017434,0.009072
2236,0.008122,0.094498,0.027769
2237,-0.111587,-0.001832,0.046465
2238,-0.077385,0.017434,-0.028322
2239,-0.043182,-0.040364,0.046465
2240,-0.026081,-0.021098,-0.009625
2241,-0.008979,-0.05963,-0.028322
2242,-0.026081,-0.175226,-0.028322
2243,-0.008979,-0.252289,-0.047018
2244,-0.008979,-0.213758,-0.028322
2245,-0.008979,-0.098162,0.009072
2246,-0.043182,-0.021098,0.027769
2247,-0.043182,0.055966,0.009072
2248,-0.077385,0.13303,0.009072
2249,-0.026081,0.190828,0.027769
2250,-0.008979,0.267892,0.009072
2251,0.042325,0.13303,-0.028322
2252,0.008122,-0.001832,-0.009625
2253,-0.008979,-0.021098,-0.047018
2254,-0.008979,0.017434,-0.028322
2255,0.025223,0.0367,0.009072
2256,0.042325,0.0367,0.046465
2257,0.042325,0.055966,0.009072
2258,0.008122,0.0367,0.046465
2259,-0.008979,0.075232,-0.009625
2260,-0.026081,0.017434,-0.065715
2261,-0.026081,-0.001832,-0.009625
2262,-0.008979,0.017434,0.009072
2263,0.008122,-0.021098,-0.047018
2264,-0.008979,-0.021098,-0.009625
2265,-0.008979,-0.021098,0.009072
2266,-0.008979,-0.040364,0.027769
2267,-0.008979,-0.021098,0.027769
2268,-0.008979,-0.040364,-0.028322
2269,-0.043182,-0.021098,-0.065715
2270,-0.008979,-0.078896,-0.009625
2271,-0.043182,-0.040364,-0.065715
2272,0.008122,-0.021098,-0.028322
2273,-0.008979,-0.040364,-0.009625
2274,-0.008979,-0.040364,0.009072
2275,0.008122,0.017434,0.027769
2276,0.008122,-0.001832,0.046465
2277,0.008122,0.017434,0.046465
2278,0.008122,0.0367,0.027769
2279,-0.026081,-0.001832,0.027769
2280,0.008122,0.017434,0.009072
2281,-0.008979,-0.001832,0.046465
2282,-0.008979,0.017434,0.046465
2283,0.008122,0.017434,0.065162
2284,-0.008979,0.017434,0.009072
2285,0.008122,0.017434,-0.009625
2286,-0.008979,-0.021098,-0.047018
2287,-0.008979,-0.040364,-0.159199
2288,-0.026081,-0.078896,-0.140502
2289,0.008122,-0.05963,-0.028322
2290,0.008122,-0.040364,-0.028322
2291,-0.008979,-0.05963,-0.047018
2292,-0.043182,-0.021098,-0.009625
2293,-0.026081,0.017434,-0.065715
2294,-0.026081,-0.001832,-0.047018
2295,-0.008979,0.017434,-0.009625
2296,-0.008979,0.0367,-0.047018
2297,0.008122,0.017434,-0.028322
2298,0.025223,-0.001832,0.046465
2299,0.025223,-0.001832,0.027769
2300,0.025223,-0.001832,-0.009625
2301,0.025223,0.017434,0.027769
2302,0.008122,-0.021098,0.027769
2303,0.025223,0.055966,-0.047018
2304,-0.008979,0.017434,-0.047018
2305,-0.026081,-0.05963,-0.047018
2306,-0.026081,-0.078896,-0.009625
2307,-0.026081,-0.098162,0.027769
2308,-0.026081,-0.05963,0.009072
2309,-0.008979,-0.001832,0.027769
2310,-0.008979,-0.001832,0.046465
2311,-0.026081,0.017434,0.009072
2312,0.025223,0.017434,-0.009625
2313,0.025223,0.0367,-0.047018
2314,-0.128689,0.017434,0.009072
2315,-0.043182,0.017434,-0.028322
2316,0.025223,-0.040364,0.009072
2317,0.059426,-0.040364,0.027769
2318,0.059426,-0.021098,0.009072
2319,0.025223,-0.021098,0.009072
2320,0.025223,-0.001832,0.009072
2321,0.025223,0.055966,0.027769
2322,-0.008979,0.055966,-0.009625
2323,-0.008979,0.075232,-0.009625
2324,-0.026081,0.075232,0.027769
2325,-0.043182,0.094498,0.009072
2326,-0.026081,0.017434,0.027769
2327,-0.043182,-0.001832,0.027769
2328,-0.026081,-0.001832,0.027769
2329,-0.043182,-0.021098,0.027769
2330,-0.008979,-0.001832,-0.009625
2331,-0.008979,0.017434,0.009072
2332,0.008122,-0.001832,-0.028322
2333,0.008122,0.0367,-0.009625
2334,-0.026081,-0.001832,-0.009625
2335,-0.026081,0.017434,0.009072
2336,0.025223,-0.021098,-0.028322
2337,-0.008979,-0.078896,-0.009625
2338,0.025223,-0.078896,0.027769
2339,-0.008979,-0.05963,-0.009625
2340,-0.043182,-0.040364,0.102556
2341,-0.008979,0.017434,-0.009625
2342,0.008122,0.055966,-0.028322
2343,0.059426,0.075232,-0.028322
2344,0.059426,0.0367,-0.009625
2345,0.025223,-0.021098,-0.028322
2346,-0.060283,-0.021098,-0.009625
2347,-0.043182,-0.05963,0.027769
2348,-0.043182,-0.001832,0.027769
2349,-0.026081,0.055966,0.027769
2350,-0.008979,-0.001832,0.046465
2351,0.008122,-0.021098,-0.009625
2352,-0.008979,-0.001832,-0.028322
2353,-0.026081,-0.001832,0.009072
2354,-0.026081,-0.021098,-0.047018
2355,-0.026081,0.0367,-0.009625
2356,-0.026081,-0.001832,0.009072
2357,-0.043182,0.0367,0.009072
2358,-0.008979,0.113764,0.009072
2359,0.025223,0.113764,0.027769
2360,0.008122,0.055966,-0.009625
2361,-0.008979,0.017434,0.027769
2362,0.008122,0.017434,0.027769
2363,-0.008979,-0.001832,0.027769
2364,0.008122,-0.021098,-0.009625
2365,-0.008979,-0.021098,0.009072
2366,-0.026081,-0.021098,-0.009625
2367,-0.026081,-0.001832,-0.047018
2368,-0.008979,-0.05963,-0.009625
2369,0.008122,0.094498,0.046465
2370,0.008122,-0.001832,0.027769
2371,-0.008979,-0.001832,0.083859
2372,-0.008979,-0.021098,0.046465
2373,0.008122,-0.001832,0.046465
2374,-0.026081,-0.021098,0.065162
2375,-0.026081,-0.021098,0.046465
2376,-0.008979,-0.021098,-0.047018
2377,-0.008979,-0.021098,-0.121806
2378,-0.026081,-0.001832,-0.065715
2379,-0.008979,-0.021098,-0.028322
2380,0.008122,-0.001832,0.009072
2381,0.008122,0.0367,-0.103109
2382,0.025223,-0.040364,-0.028322
2383,0.025223,-0.021098,-0.103109
2384,0.008122,0.017434,-0.028322
2385,0.008122,-0.021098,-0.028322
2386,0.008122,-0.021098,-0.047018
2387,-0.008979,0.017434,-0.047018
2388,-0.026081,-0.001832,0.027769
2389,-0.008979,-0.021098,0.027769
2390,-0.026081,0.017434,0.046465
2391,0.008122,-0.001832,0.046465
2392,0.008122,-0.001832,-0.009625
2393,0.025223,0.017434,-0.028322
2394,0.008122,-0.021098,-0.028322
2395,0.025223,-0.021098,-0.009625
2396,-0.008979,0.017434,0.027769
2397,-0.026081,-0.001832,0.046465
2398,-0.026081,0.017434,0.009072
2399,0.008122,-0.021098,0.009072
2400,-0.008979,-0.040364,-0.009625
2401,0.008122,-0.021098,0.009072
2402,0.008122,-0.021098,-0.065715
2403,0.008122,0.017434,-0.009625
2404,-0.008979,-0.001832,-0.009625
2405,0.008122,-0.05963,0.009072
2406,-0.008979,-0.078896,0.027769
2407,-0.043182,-0.117428,-0.009625
2408,-0.060283,-0.117428,0.027769
2409,-0.043182,-0.117428,0.046465
2410,-0.060283,-0.001832,0.009072
2411,-0.026081,0.055966,-0.047018
2412,-0.008979,0.113764,0.009072
2413,-0.008979,0.152296,-0.009625
2414,0.025223,0.13303,-0.028322
2415,0.076527,0.113764,0.009072
2416,0.025223,0.113764,-0.028322
2417,0.025223,0.055966,0.046465
2418,-0.008979,-0.040364,0.027769
2419,0.008122,-0.078896,0.027769
2420,-0.043182,-0.175226,-0.009625
2421,0.008122,-0.136694,-0.009625
2422,-0.008979,-0.098162,-0.009625
2423,-0.008979,-0.05963,-0.065715
2424,0.008122,0.075232,-0.009625
2425,0.008122,0.152296,-0.009625
2426,-0.008979,0.113764,0.027769
2427,0.008122,0.094498,0.027769
2428,0.008122,0.075232,0.046465
2429,0.008122,0.017434,0.009072
2430,0.025223,0.0367,0.046465
2431,0.025223,0.0367,-0.009625
2432,0.025223,0.055966,-0.047018
2433,0.008122,-0.001832,-0.028322
2434,0.008122,-0.05963,-0.047018
2435,-0.043182,-0.05963,-0.047018
2436,-0.026081,-0.098162,0.009072
2437,-0.043182,-0.040364,0.027769
2438,-0.043182,-0.05963,-0.009625
2439,-0.008979,-0.021098,0.046465
2440,0.025223,0.055966,0.009072
2441,0.059426,0.0367,0.009072
2442,0.008122,-0.001832,-0.009625
2443,-0.008979,-0.040364,0.009072
2444,-0.026081,0.017434,-0.028322
2445,-0.043182,0.094498,0.027769
2446,-0.043182,0.113764,0.027769
2447,-0.008979,0.13303,0.046465
2448,-0.008979,0.055966,-0.009625
2449,-0.008979,0.017434,0.027769
2450,-0.008979,0.017434,-0.009625
2451,-0.026081,-0.05963,-0.028322
2452,-0.008979,-0.040364,0.009072
2453,-0.026081,-0.021098,-0.009625
2454,-0.026081,0.017434,-0.009625
2455,0.008122,0.075232,0.046465
2456,-0.008979,0.0367,-0.009625
2457,0.008122,-0.001832,0.027769
2458,-0.008979,0.017434,0.065162
2459,-0.008979,0.0367,0.009072
2460,0.025223,0.0367,0.009072
2461,-0.008979,0.017434,0.046465
2462,-0.008979,-0.001832,0.009072
2463,0.025223,-0.021098,-0.028322
2464,-0.026081,-0.021098,-0.028322
2465,0.008122,0.017434,-0.028322
2466,0.008122,-0.021098,-0.009625
2467,-0.008979,-0.021098,-0.009625
2468,-0.026081,-0.040364,0.046465
2469,-0.026081,-0.05963,-0.028322
2470,-0.026081,-0.021098,-0.009625
2471,-0.008979,-0.040364,0.009072
2472,-0.008979,-0.001832,-0.009625
2473,-0.026081,-0.021098,0.046465
2474,-0.026081,-0.021098,0.065162
2475,-0.008979,0.017434,-0.047018
2476,-0.008979,-0.001832,0.009072
2477,-0.008979,-0.021098,0.009072
2478,-0.026081,0.017434,0.009072
2479,0.008122,-0.001832,0.009072
2480,-0.008979,-0.001832,-0.009625
2481,0.025223,0.017434,-0.121806
2482,0.008122,-0.001832,-0.121806
2483,-0.008979,-0.021098,-0.065715
2484,-0.008979,-0.040364,-0.047018
2485,-0.026081,-0.021098,-0.047018
2486,-0.043182,-0.001832,0.009072
2487,-0.008979,-0.021098,0.027769
2488,-0.026081,-0.001832,0.027769
2489,-0.008979,-0.021098,0.009072
2490,-0.008979,-0.021098,0.065162
2491,-0.008979,-0.001832,0.046465
2492,-0.008979,0.017434,0.065162
2493,-0.008979,-0.001832,0.027769
2494,0.008122,-0.021098,0.009072
2495,0.008122,-0.001832,-0.047018
2496,-0.008979,-0.021098,-0.028322
2497,0.025223,-0.001832,-0.009625
2498,-0.008979,0.017434,0.027769
2499,-0.008979,-0.001832,0.027769
2500,0.008122,-0.001832,0.065162
2501,-0.008979,-0.021098,0.027769
2502,-0.008979,-0.001832,0.027769
2503,-0.008979,-0.021098,0.009072
2504,0.025223,0.017434,-0.028322
2505,-0.008979,-0.021098,0.009072
2506,-0.026081,-0.021098,-0.047018
2507,0.008122,-0.040364,-0.009625
2508,-0.008979,0.017434,0.009072
2509,0.008122,-0.021098,0.009072
2510,-0.008979,-0.001832,-0.028322
2511,0.008122,-0.040364,-0.009625
2512,-0.008979,-0.05963,-0.028322
2513,-0.026081,-0.117428,-0.047018
2514,-0.026081,-0.078896,-0.028322
2515,-0.008979,-0.117428,-0.028322
2516,-0.026081,-0.078896,-0.028322
2517,-0.026081,-0.021098,0.046465
2518,-0.008979,-0.021098,0.009072
2519,0.008122,0.113764,-0.028322
2520,-0.008979,0.13303,0.009072
2521,0.008122,0.113764,-0.028322
2522,-0.008979,0.094498,-0.009625
2523,0.008122,0.094498,0.009072
2524,0.025223,0.017434,-0.028322
2525,-0.008979,0.017434,-0.009625
2526,-0.008979,-0.040364,0.027769
2527,-0.026081,-0.040364,0.009072
2528,-0.043182,0.017434,-0.009625
2529,-0.026081,0.017434,0.046465
2530,-0.008979,0.0367,0.009072
2531,0.008122,-0.001832,-0.028322
2532,0.025223,-0.001832,0.009072
2533,-0.008979,-0.001832,-0.047018
2534,-0.026081,-0.001832,-0.009625
2535,-0.008979,0.017434,0.027769
2536,0.008122,0.0367,0.027769
2537,0.025223,0.055966,-0.009625
2538,0.008122,0.0367,0.027769
2539,0.008122,0.055966,-0.009625
2540,0.025223,0.0367,-0.009625
2541,0.008122,0.017434,-0.028322
2542,0.008122,0.0367,-0.009625
2543,-0.008979,-0.001832,-0.028322
2544,-0.026081,-0.001832,-0.009625
2545,-0.008979,-0.001832,0.046465
2546,-0.008979,-0.001832,0.009072
2547,-0.008979,-0.021098,0.046465
2548,-0.008979,-0.040364,0.009072
2549,-0.026081,-0.05963,0.009072
2550,-0.008979,-0.117428,-0.009625
2551,-0.008979,-0.05963,0.027769
2552,-0.008979,-0.001832,-0.009625
2553,-0.008979,0.0367,-0.009625
2554,-0.043182,0.055966,0.027769
2555,-0.043182,0.055966,0.027769
2556,-0.008979,0.017434,0.046465
2557,-0.008979,0.055966,0.065162
2558,0.025223,0.017434,0.009072
2559,0.008122,-0.021098,-0.009625
2560,0.025223,-0.021098,-0.009625
2561,-0.008979,-0.021098,-0.047018
2562,-0.008979,-0.021098,-0.009625
2563,-0.008979,-0.040364,0.009072
2564,-0.008979,0.017434,0.027769
2565,-0.008979,0.017434,0.009072
2566,-0.008979,-0.001832,0.009072
2567,-0.008979,-0.001832,0.027769
2568,0.008122,-0.001832,-0.028322
2569,0.008122,-0.001832,0.009072
2570,-0.008979,-0.001832,-0.009625
2571,-0.008979,-0.021098,-0.065715
2572,-0.008979,-0.078896,-0.047018
2573,-0.026081,-0.021098,-0.009625
2574,-0.043182,-0.001832,0.009072
2575,-0.008979,-0.001832,0.009072
2576,-0.008979,-0.001832,0.046465
2577,-0.008979,0.017434,0.009072
2578,0.008122,0.017434,0.046465
2579,-0.008979,0.0367,0.009072
2580,-0.008979,-0.001832,0.009072
2581,-0.043182,0.017434,-0.009625
2582,-0.008979,0.017434,0.065162
2583,0.008122,0.017434,0.046465
2584,-0.008979,0.017434,0.065162
2585,-0.008979,-0.021098,0.009072
2586,-0.026081,-0.021098,0.027769
2587,0.008122,-0.021098,0.027769
2588,0.008122,-0.021098,0.027769
2589,-0.008979,-0.001832,-0.047018
2590,-0.008979,-0.021098,-0.103109
2591,0.008122,-0.001832,-0.140502
2592,-0.026081,0.0367,-0.103109
2593,0.008122,-0.001832,-0.140502
2594,-0.008979,-0.021098,-0.065715
2595,-0.008979,0.017434,-0.028322
2596,-0.008979,-0.001832,0.009072
2597,-0.008979,-0.021098,0.046465
2598,-0.008979,-0.040364,0.027769
2599,-0.008979,-0.05963,-0.009625
2600,-0.008979,-0.040364,-0.009625
2601,-0.026081,-0.078896,-0.028322
2602,0.008122,-0.078896,-0.009625
2603,-0.026081,-0.136694,0.009072
2604,-0.008979,-0.117428,0.009072
2605,-0.008979,-0.05963,0.027769
2606,-0.026081,-0.040364,0.009072
2607,-0.008979,0.0367,0.027769
2608,0.008122,0.094498,0.027769
2609,0.008122,0.094498,0.009072
2610,0.008122,0.113764,0.027769
2611,0.008122,0.094498,-0.009625
2612,0.008122,0.055966,-0.009625
2613,0.008122,0.0367,0.046465
2614,0.025223,0.0367,-0.047018
2615,0.025223,0.017434,0.009072
2616,0.008122,-0.021098,0.027769
2617,0.008122,-0.040364,0.009072
2618,-0.026081,-0.001832,-0.028322
2619,-0.008979,-0.040364,0.009072
2620,-0.008979,-0.021098,-0.009625
2621,0.008122,0.017434,-0.047018
2622,0.042325,-0.001832,0.009072
2623,0.008122,-0.001832,-0.028322
2624,-0.008979,-0.001832,0.009072
2625,0.008122,0.0367,0.027769
2626,-0.026081,0.075232,0.009072
2627,-0.008979,0.075232,-0.028322
2628,-0.026081,0.055966,0.009072
2629,-0.026081,0.017434,-0.009625
2630,-0.008979,-0.001832,-0.028322
2631,-0.008979,0.017434,0.027769
2632,0.008122,0.0367,-0.047018
2633,0.025223,-0.001832,-0.047018
2634,0.008122,-0.021098,0.046465
2635,0.008122,-0.001832,0.065162
2636,-0.008979,-0.001832,0.009072
2637,-0.026081,-0.021098,0.046465
2638,-0.008979,-0.021098,0.009072
2639,-0.008979,-0.021098,-0.028322
2640,-0.026081,-0.040364,-0.028322
2641,0.008122,0.017434,0.009072
2642,-0.026081,-0.021098,-0.009625
2643,-0.026081,-0.021098,0.027769
2644,-0.008979,-0.021098,0.027769
2645,0.008122,-0.021098,0.027769
2646,0.025223,-0.001832,0.027769
2647,0.025223,-0.001832,-0.028322
2648,0.008122,-0.021098,-0.009625
2649,0.025223,-0.001832,-0.028322
2650,0.008122,0.0367,-0.047018
2651,-0.008979,0.0367,-0.028322
2652,0.008122,0.0367,0.009072
2653,-0.008979,0.017434,0.009072
2654,0.008122,-0.021098,0.009072
2655,0.008122,-0.021098,0.046465
2656,0.008122,0.017434,0.009072
2657,0.025223,0.0367,0.009072
2658,-0.008979,-0.021098,-0.028322
2659,-0.008979,-0.021098,0.009072
2660,-0.008979,-0.040364,-0.009625
2661,0.025223,-0.040364,-0.009625
2662,0.008122,-0.001832,-0.028322
2663,0.008122,-0.021098,0.009072
2664,-0.026081,-0.021098,-0.009625
2665,0.025223,-0.001832,0.027769
2666,0.008122,-0.021098,-0.009625
2667,-0.008979,0.017434,-0.047018
2668,-0.008979,-0.001832,0.027769
2669,-0.008979,-0.001832,0.046465
2670,0.008122,0.017434,0.065162
2671,0.008122,-0.021098,0.102556
2672,0.008122,-0.001832,0.046465
2673,-0.008979,-0.001832,0.065162
2674,-0.026081,-0.001832,0.009072
2675,-0.008979,-0.021098,-0.047018
2676,-0.008979,-0.040364,-0.159199
2677,-0.008979,-0.001832,-0.065715
2678,0.008122,-0.001832,-0.065715
2679,0.008122,-0.021098,-0.140502
2680,-0.008979,-0.001832,-0.047018
2681,-0.008979,-0.021098,-0.047018
2682,-0.008979,-0.001832,-0.028322
2683,0.042325,0.017434,0.027769
2684,-0.008979,0.017434,0.046465
2685,-0.008979,0.017434,0.009072
2686,-0.008979,-0.001832,0.046465
2687,0.008122,-0.021098,0.009072
2688,-0.008979,-0.040364,-0.047018
2689,0.008122,-0.021098,-0.009625
2690,-0.008979,-0.001832,0.009072
2691,-0.008979,-0.021098,-0.009625
2692,0.008122,0.017434,-0.028322
2693,0.008122,0.0367,-0.009625
2694,-0.008979,-0.021098,-0.028322
2695,-0.008979,-0.001832,0.027769
2696,-0.008979,-0.001832,0.027769
2697,0.008122,-0.001832,-0.009625
2698,0.008122,-0.021098,-0.009625
2699,-0.008979,-0.021098,-0.009625
2700,-0.008979,-0.001832,-0.009625
2701,-0.008979,-0.078896,0.027769
2702,-0.008979,-0.078896,0.027769
2703,-0.008979,-0.078896,-0.028322
2704,-0.008979,-0.098162,0.046465
2705,-0.008979,-0.021098,0.027769
2706,0.008122,-0.001832,0.009072
2707,0.008122,-0.001832,-0.009625
2708,-0.008979,0.055966,-0.065715
2709,0.008122,0.094498,-0.065715
2710,0.025223,0.13303,-0.028322
2711,0.008122,0.13303,0.009072
2712,-0.026081,0.055966,0.009072
2713,0.008122,0.0367,0.046465
2714,-0.008979,0.017434,0.046465
2715,-0.008979,0.0367,0.009072
2716,-0.026081,0.017434,-0.009625
2717,-0.026081,0.017434,-0.028322
2718,-0.008979,-0.001832,-0.009625
2719,-0.008979,-0.021098,-0.028322
2720,0.008122,0.017434,0.027769
2721,0.008122,-0.040364,0.027769
2722,0.008122,-0.040364,-0.009625
2723,-0.026081,0.017434,0.027769
2724,0.008122,-0.040364,0.009072
2725,-0.008979,-0.040364,-0.028322
2726,0.008122,-0.05963,-0.009625
2727,0.008122,-0.078896,0.027769
2728,0.008122,-0.098162,-0.009625
2729,-0.026081,-0.021098,0.009072
2730,-0.026081,-0.040364,0.009072
2731,-0.008979,0.0367,-0.009625
2732,-0.008979,0.0367,0.009072
2733,0.008122,0.075232,0.009072
2734,0.008122,0.055966,0.027769
2735,0.008122,0.0367,0.027769
2736,0.008122,0.0367,0.009072
2737,0.008122,-0.001832,-0.009625
2738,-0.008979,-0.001832,-0.028322
2739,0.008122,0.0367,0.027769
2740,-0.026081,0.0367,0.009072
2741,0.008122,0.0367,0.027769
2742,0.008122,0.0367,0.046465
2743,0.008122,0.017434,0.065162
2744,-0.008979,-0.001832,0.065162
2745,-0.008979,-0.001832,0.027769
2746,0.008122,-0.021098,-0.009625
2747,0.008122,-0.021098,-0.084412
2748,0.025223,-0.021098,-0.047018
2749,-0.008979,-0.001832,-0.084412
2750,-0.008979,-0.040364,-0.009625
2751,-0.008979,-0.021098,0.009072
2752,-0.008979,-0.001832,0.009072
2753,0.008122,0.017434,0.009072
2754,0.008122,-0.001832,0.009072
2755,0.008122,-0.021098,-0.009625
2756,0.008122,-0.001832,-0.047018
2757,-0.043182,-0.021098,-0.065715
2758,-0.008979,-0.021098,-0.028322
2759,0.008122,0.0367,-0.009625
2760,-0.008979,-0.001832,0.027769
2761,0.008122,-0.021098,0.065162
2762,0.008122,0.017434,0.009072
2763,0.008122,-0.001832,0.027769
2764,0.025223,-0.001832,0.009072
2765,0.025223,0.017434,0.009072
2766,-0.008979,0.017434,-0.028322
2767,-0.008979,-0.001832,-0.009625
2768,-0.008979,-0.021098,-0.028322
2769,0.025223,0.017434,0.046465
2770,0.008122,0.017434,-0.028322
2771,0.008122,-0.021098,-0.009625
2772,0.008122,-0.001832,0.027769
2773,-0.008979,-0.001832,-0.009625
2774,-0.026081,-0.021098,-0.009625
2775,0.008122,-0.021098,-0.028322
2776,-0.008979,-0.021098,0.009072
2777,-0.026081,-0.001832,-0.028322
2778,0.008122,-0.040364,-0.028322
2779,-0.008979,-0.078896,0.027769
2780,0.008122,-0.040364,-0.028322
2781,-0.008979,-0.040364,0.009072
2782,0.008122,-0.021098,-0.009625
2783,-0.008979,-0.001832,-0.009625
2784,-0.008979,-0.001832,-0.009625
2785,0.008122,0.017434,0.009072
2786,0.025223,-0.001832,-0.028322
2787,0.008122,-0.021098,0.027769
2788,0.008122,0.0367,0.027769
2789,-0.008979,0.055966,0.009072
2790,-0.008979,0.055966,0.027769
2791,0.008122,0.017434,0.046465
2792,-0.026081,0.017434,-0.065715
2793,0.008122,-0.001832,-0.028322
2794,-0.008979,-0.001832,0.027769
2795,-0.026081,0.075232,-0.028322
2796,0.008122,-0.021098,-0.028322
2797,0.008122,-0.001832,0.009072
2798,0.008122,0.017434,-0.047018
2799,0.008122,0.0367,0.009072
2800,-0.008979,-0.001832,0.046465
2801,-0.008979,0.017434,0.046465
2802,0.008122,-0.001832,0.027769
2803,-0.008979,0.0367,0.046465
2804,-0.026081,0.0367,-0.009625
2805,0.008122,0.0367,-0.009625
2806,-0.008979,-0.021098,0.027769
2807,-0.008979,-0.021098,-0.009625
2808,0.025223,0.0367,0.065162
2809,-0.008979,-0.001832,0.046465
2810,0.008122,-0.040364,0.009072
2811,-0.008979,-0.040364,-0.140502
2812,-0.026081,0.017434,-0.047018
2813,0.008122,-0.040364,-0.103109
2814,-0.008979,-0.021098,-0.065715
2815,0.008122,-0.078896,-0.065715
2816,0.008122,-0.05963,-0.009625
2817,-0.026081,-0.040364,-0.009625
2818,-0.008979,-0.021098,0.046465
2819,0.008122,-0.05963,0.027769
2820,-0.008979,-0.078896,-0.009625
2821,-0.008979,-0.05963,0.046465
2822,-0.026081,-0.021098,-0.009625
2823,-0.008979,0.094498,0.009072
2824,-0.008979,0.055966,-0.028322
2825,0.008122,0.094498,-0.009625
2826,0.008122,0.152296,0.009072
2827,0.008122,0.13303,0.009072
2828,-0.008979,0.094498,0.009072
2829,-0.008979,0.094498,0.027769
2830,0.008122,0.075232,0.009072
2831,0.008122,0.017434,0.009072
2832,0.008122,0.017434,-0.009625
2833,0.008122,-0.021098,-0.009625
2834,0.025223,-0.001832,0.009072
2835,0.008122,-0.021098,-0.028322
2836,0.008122,-0.021098,-0.009625
2837,-0.008979,-0.001832,0.027769
2838,0.025223,0.017434,0.065162
2839,0.008122,0.017434,-0.009625
2840,-0.008979,-0.021098,0.009072
2841,-0.008979,-0.021098,0.009072
2842,0.008122,-0.040364,0.009072
2843,0.025223,-0.05963,0.009072
2844,0.008122,-0.021098,-0.047018
2845,-0.026081,-0.021098,-0.065715
2846,-0.008979,-0.001832,0.009072
2847,0.008122,0.017434,0.027769
2848,0.025223,0.017434,0.027769
2849,0.025223,0.075232,0.027769
2850,-0.008979,-0.001832,0.046465
2851,0.008122,-0.021098,-0.009625
2852,-0.008979,0.017434,0.027769
2853,-0.008979,-0.040364,-0.009625
2854,-0.008979,-0.040364,0.027769
2855,0.008122,-0.021098,-0.009625
2856,-0.008979,-0.040364,0.009072
2857,-0.008979,0.017434,-0.028322
2858,0.008122,0.0367,0.009072
2859,0.008122,-0.001832,0.046465
2860,-0.008979,0.0367,0.009072
2861,-0.008979,0.017434,0.027769
2862,-0.026081,-0.040364,0.009072
2863,0.008122,-0.001832,0.009072
2864,-0.008979,-0.021098,-0.047018
2865,-0.008979,-0.001832,-0.009625
2866,0.008122,-0.021098,-0.065715
2867,-0.008979,-0.001832,-0.047018
2868,-0.008979,-0.021098,0.009072
2869,0.008122,-0.040364,-0.028322
2870,0.008122,-0.021098,0.027769
2871,-0.008979,-0.021098,-0.009625
2872,0.008122,-0.001832,-0.028322
2873,-0.008979,-0.001832,-0.047018
2874,-0.026081,0.0367,0.009072
2875,0.008122,0.075232,-0.009625
2876,-0.008979,0.0367,0.027769
2877,0.008122,0.0367,0.046465
2878,-0.008979,0.055966,0.046465
2879,-0.008979,0.055966,0.027769
2880,0.008122,0.075232,0.009072
2881,0.008122,-0.021098,-0.047018
2882,-0.008979,0.017434,-0.028322
2883,-0.008979,-0.001832,-0.028322
2884,0.008122,-0.001832,-0.028322
2885,-0.026081,-0.001832,-0.009625
2886,0.008122,-0.05963,0.009072
2887,-0.008979,-0.040364,0.027769
2888,-0.008979,-0.001832,0.046465
2889,0.008122,-0.001832,0.065162
2890,-0.026081,0.017434,0.065162
2891,0.025223,0.055966,0.027769
2892,0.025223,0.055966,0.027769
2893,0.008122,-0.021098,-0.009625
2894,0.025223,-0.040364,-0.103109
2895,-0.026081,-0.040364,-0.047018
2896,-0.026081,-0.05963,-0.009625
2897,-0.008979,-0.098162,0.009072
2898,0.008122,-0.040364,0.009072
2899,0.008122,-0.021098,0.009072
2900,0.008122,-0.001832,-0.009625
2901,-0.026081,0.017434,0.027769
2902,0.025223,-0.021098,0.027769
2903,0.008122,0.0367,0.027769
2904,-0.008979,0.075232,0.027769
2905,-0.008979,-0.001832,0.027769
2906,-0.008979,-0.001832,-0.009625
2907,-0.008979,-0.001832,-0.047018
2908,-0.008979,0.0367,-0.028322
2909,0.008122,0.017434,-0.065715
2910,0.008122,0.0367,-0.009625
2911,-0.008979,-0.001832,-0.047018
2912,0.008122,-0.040364,-0.065715
2913,-0.026081,-0.001832,-0.028322
2914,-0.008979,-0.021098,0.027769
2915,-0.008979,-0.021098,-0.009625
2916,-0.008979,0.017434,-0.009625
2917,0.008122,0.017434,0.046465
2918,0.008122,0.0367,-0.009625
2919,-0.008979,-0.021098,0.046465
2920,-0.008979,-0.021098,0.009072
2921,-0.026081,-0.021098,0.009072
2922,-0.008979,0.017434,-0.028322
2923,0.008122,0.017434,-0.028322
2924,0.042325,0.0367,-0.009625
2925,0.008122,0.055966,-0.009625
2926,0.025223,0.017434,0.027769
2927,0.008122,0.0367,0.046465
2928,-0.026081,-0.021098,-0.009625
2929,-0.026081,-0.001832,0.046465
2930,0.008122,-0.05963,0.009072
2931,0.008122,-0.05963,-0.009625
2932,-0.026081,-0.078896,-0.028322
2933,-0.026081,-0.05963,-0.028322
2934,-0.026081,-0.040364,-0.028322
2935,0.008122,-0.05963,0.027769
2936,-0.008979,-0.021098,0.046465
2937,0.008122,0.017434,0.027769
2938,0.008122,0.055966,0.027769
2939,0.008122,0.13303,-0.009625
2940,0.008122,0.094498,-0.047018
2941,0.008122,0.055966,-0.009625
2942,0.008122,0.0367,0.009072
2943,-0.008979,0.0367,-0.028322
2944,-0.008979,-0.001832,-0.009625
2945,0.008122,-0.040364,0.027769
2946,0.008122,-0.001832,0.009072
2947,0.025223,-0.001832,0.027769
2948,-0.008979,0.0367,0.027769
2949,-0.008979,-0.021098,-0.009625
2950,0.025223,-0.021098,-0.028322
2951,-0.008979,0.017434,-0.009625
2952,0.008122,-0.001832,-0.009625
2953,-0.008979,-0.001832,0.046465
2954,0.008122,0.055966,0.027769
2955,-0.008979,0.055966,-0.009625
2956,-0.008979,0.0367,0.009072
2957,0.008122,-0.001832,0.009072
2958,0.008122,-0.040364,0.027769
2959,-0.008979,-0.001832,-0.047018
2960,0.008122,-0.021098,-0.009625
2961,-0.008979,-0.001832,-0.009625
2962,0.008122,-0.021098,-0.047018
2963,-0.008979,-0.001832,-0.009625
2964,0.008122,0.017434,-0.065715
2965,0.008122,0.0367,-0.028322
2966,-0.008979,0.017434,-0.009625
2967,-0.008979,-0.001832,0.046465
2968,0.025223,-0.040364,-0.028322
2969,-0.026081,-0.021098,0.009072
2970,-0.008979,-0.021098,-0.009625
2971,-0.008979,-0.001832,-0.047018
2972,0.008122,-0.021098,-0.009625
2973,-0.008979,-0.040364,-0.009625
2974,0.042325,-0.040364,0.009072
2975,0.025223,-0.001832,0.009072
2976,0.008122,-0.001832,0.065162
2977,0.008122,-0.021098,0.027769
2978,0.008122,-0.021098,0.046465
2979,-0.026081,-0.05963,0.027769
2980,0.025223,-0.021098,0.009072
2981,0.008122,0.017434,-0.028322
2982,-0.008979,-0.001832,-0.065715
2983,-0.026081,-0.001832,-0.084412
2984,0.025223,-0.001832,0.009072
2985,0.008122,0.017434,0.009072
2986,0.008122,0.017434,0.027769
2987,0.025223,-0.001832,0.027769
2988,-0.008979,-0.021098,-0.009625
2989,0.008122,-0.021098,-0.009625
2990,0.008122,-0.001832,-0.028322
2991,-0.008979,0.017434,0.009072
2992,0.008122,-0.001832,-0.009625
2993,-0.008979,-0.001832,0.009072
2994,-0.008979,-0.001832,0.009072
2995,-0.026081,-0.021098,-0.009625
2996,-0.026081,0.017434,-0.065715
2997,-0.008979,0.017434,-0.028322
2998,0.008122,-0.001832,-0.009625
2999,0.008122,-0.001832,-0.028322
3000,-0.008979,-0.021098,-0.009625
3001,-0.008979,-0.001832,0.009072
3002,0.008122,-0.001832,-0.009625
3003,0.008122,-0.001832,0.046465
3004,-0.008979,0.055966,0.027769
3005,-0.008979,0.017434,0.083859
3006,0.008122,-0.021098,0.065162
3007,0.008122,-0.021098,0.046465
3008,-0.008979,-0.021098,0.009072
3009,0.008122,-0.040364,0.009072
3010,0.008122,-0.001832,-0.065715
3011,-0.026081,-0.040364,-0.047018
3012,-0.026081,-0.021098,0.009072
3013,-0.008979,-0.05963,-0.028322
3014,0.025223,-0.021098,0.027769
3015,0.025223,-0.021098,0.027769
3016,0.008122,-0.040364,-0.047018
3017,-0.008979,-0.001832,-0.028322
3018,0.008122,0.017434,-0.047018
3019,-0.008979,0.055966,-0.065715
3020,0.008122,0.055966,-0.047018
3021,-0.008979,0.017434,-0.009625
3022,0.008122,0.0367,-0.047018
3023,0.008122,-0.001832,-0.009625
3024,-0.008979,0.017434,0.046465
3025,0.008122,0.0367,0.009072
3026,-0.008979,0.017434,0.046465
3027,0.025223,0.055966,0.046465
3028,0.008122,0.0367,-0.009625
3029,-0.008979,0.0367,-0.009625
3030,-0.008979,-0.021098,0.027769
3031,-0.008979,-0.05963,0.027769
3032,0.008122,-0.117428,0.027769
3033,0.008122,-0.136694,0.027769
3034,0.008122,-0.117428,0.027769
3035,-0.043182,-0.117428,-0.009625
3036,-0.026081,-0.05963,0.027769
3037,-0.008979,0.075232,0.009072
3038,0.025223,0.152296,0.009072
3039,0.025223,0.210094,-0.009625
3040,-0.008979,0.190828,-0.009625
3041,0.025223,0.075232,-0.009625
3042,0.008122,0.075232,0.027769
3043,0.008122,0.017434,-0.009625
3044,0.008122,0.0367,-0.009625
3045,-0.008979,-0.001832,0.009072
3046,-0.008979,0.0367,-0.009625
3047,-0.008979,0.0367,0.009072
3048,-0.008979,0.017434,0.009072
3049,0.008122,0.017434,-0.028322
3050,0.008122,-0.021098,-0.009625
3051,-0.026081,-0.021098,0.027769
3052,-0.008979,-0.021098,0.027769
3053,0.008122,-0.001832,-0.009625
3054,0.008122,-0.001832,0.009072
3055,-0.008979,-0.040364,0.009072
3056,-0.026081,-0.001832,-0.009625
3057,-0.008979,-0.021098,-0.009625
3058,-0.008979,-0.001832,0.009072
3059,0.008122,-0.001832,-0.047018
3060,0.008122,-0.021098,-0.009625
3061,0.008122,0.017434,0.009072
3062,-0.008979,-0.05963,-0.009625
3063,-0.008979,-0.001832,0.027769
3064,-0.008979,-0.021098,0.046465
3065,-0.026081,-0.078896,0.027769
3066,-0.008979,-0.05963,0.027769
3067,0.008122,-0.040364,0.009072
3068,-0.008979,0.017434,-0.065715
3069,-0.008979,0.0367,-0.047018
3070,0.025223,0.017434,-0.009625
3071,0.008122,0.0367,-0.009625
3072,0.025223,-0.001832,-0.009625
3073,0.008122,-0.001832,0.046465
3074,0.008122,-0.021098,0.009072
3075,-0.026081,-0.021098,-0.028322
3076,0.025223,-0.001832,0.046465
3077,0.008122,0.017434,0.009072
3078,-0.008979,-0.021098,-0.009625
3079,-0.008979,-0.001832,0.009072
3080,-0.008979,-0.021098,-0.009625
3081,-0.008979,-0.021098,-0.009625
3082,0.008122,-0.001832,0.027769
3083,0.025223,-0.001832,0.046465
3084,-0.008979,0.017434,0.009072
3085,0.008122,0.0367,0.027769
3086,-0.008979,0.017434,-0.065715
3087,-0.008979,0.017434,-0.084412
3088,0.008122,-0.001832,-0.009625
3089,-0.008979,0.017434,0.009072
3090,0.008122,-0.001832,0.009072
3091,0.008122,-0.001832,0.046465
3092,-0.008979,-0.001832,0.027769
3093,-0.008979,-0.001832,-0.009625
3094,-0.008979,-0.021098,0.009072
3095,-0.008979,-0.001832,-0.047018
3096,0.008122,-0.001832,-0.028322
3097,-0.008979,0.017434,0.046465
3098,-0.026081,-0.021098,0.009072
3099,0.008122,-0.021098,-0.028322
3100,-0.008979,0.017434,0.009072
3101,0.008122,-0.021098,0.009072
3102,0.008122,-0.021098,0.009072
3103,-0.026081,-0.05963,-0.009625
3104,0.008122,-0.021098,0.046465
3105,-0.008979,-0.021098,0.027769
3106,0.025223,-0.05963,0.046465
3107,-0.008979,-0.001832,-0.009625
3108,0.008122,0.017434,-0.047018
3109,0.008122,0.0367,-0.047018
3110,-0.008979,0.017434,0.009072
3111,0.008122,0.0367,-0.009625
3112,0.008122,0.017434,0.046465
3113,0.008122,-0.021098,0.065162
3114,-0.008979,-0.021098,0.046465
3115,0.008122,-0.001832,0.027769
3116,0.008122,-0.001832,0.009072
3117,-0.026081,-0.021098,0.009072
3118,-0.008979,-0.001832,-0.065715
3119,-0.008979,0.0367,-0.084412
3120,-0.008979,0.0367,-0.047018
3121,-0.008979,0.0367,-0.009625
3122,0.025223,0.0367,0.009072
3123,0.025223,0.017434,0.027769
3124,0.008122,-0.001832,0.046465
3125,0.008122,0.017434,0.065162
3126,-0.008979,0.017434,-0.009625
3127,-0.008979,-0.001832,-0.009625
3128,0.008122,-0.021098,-0.084412
3129,-0.008979,-0.001832,-0.009625
3130,0.008122,-0.001832,-0.028322
3131,0.008122,-0.001832,0.046465
3132,-0.008979,-0.021098,0.046465
3133,-0.008979,-0.021098,-0.009625
3134,0.008122,-0.078896,0.027769
3135,-0.026081,-0.078896,0.009072
3136,-0.026081,-0.098162,-0.065715
3137,-0.026081,-0.078896,-0.084412
3138,-0.008979,-0.021098,-0.028322
3139,0.025223,0.017434,-0.009625
3140,0.008122,0.055966,-0.047018
3141,-0.008979,0.075232,0.009072
3142,-0.026081,0.055966,-0.009625
3143,0.008122,0.0367,0.027769
3144,0.008122,-0.021098,0.027769
3145,0.025223,-0.040364,0.009072
3146,0.025223,0.017434,-0.047018
3147,0.008122,0.017434,0.009072
3148,-0.026081,0.017434,-0.009625
3149,-0.008979,0.017434,-0.028322
3150,-0.026081,0.0367,0.027769
3151,0.008122,0.055966,-0.009625
3152,-0.026081,0.017434,0.027769
3153,0.008122,-0.001832,0.009072
3154,-0.008979,-0.001832,0.027769
3155,-0.043182,-0.021098,-0.009625
3156,0.025223,-0.021098,0.027769
3157,-0.008979,-0.021098,-0.028322
3158,0.025223,-0.001832,-0.009625
3159,-0.008979,-0.001832,0.009072
3160,-0.008979,-0.021098,-0.047018
3161,-0.008979,0.0367,0.009072
3162,-0.026081,-0.001832,0.027769
3163,0.008122,0.017434,0.027769
3164,-0.008979,-0.021098,0.027769
3165,0.008122,-0.021098,0.065162
3166,0.008122,-0.040364,0.027769
3167,-0.008979,-0.021098,-0.009625
3168,0.025223,-0.040364,0.009072
3169,-0.008979,-0.05963,-0.009625
3170,-0.026081,-0.078896,0.009072
3171,0.008122,-0.021098,-0.028322
3172,-0.026081,-0.021098,0.009072
3173,0.025223,0.017434,-0.047018
3174,-0.008979,-0.001832,-0.009625
3175,0.008122,0.0367,-0.028322
3176,-0.008979,-0.001832,-0.028322
3177,0.025223,-0.001832,-0.028322
3178,-0.008979,-0.021098,-0.009625
3179,-0.008979,-0.001832,-0.009625
3180,0.025223,0.017434,0.009072
3181,-0.008979,0.0367,-0.028322
3182,-0.008979,0.0367,-0.009625
3183,0.008122,0.0367,0.027769
3184,0.008122,0.017434,0.009072
3185,-0.008979,0.017434,0.027769
3186,-0.008979,-0.001832,-0.028322
3187,-0.008979,-0.001832,0.009072
3188,0.008122,-0.021098,0.009072
3189,-0.008979,-0.021098,-0.009625
3190,0.008122,-0.021098,0.009072
3191,-0.026081,0.017434,-0.028322
3192,0.008122,-0.001832,-0.009625
3193,-0.008979,-0.001832,0.009072
3194,0.008122,-0.021098,-0.009625
3195,-0.008979,0.017434,-0.009625
3196,0.008122,-0.021098,0.009072
3197,-0.008979,-0.001832,-0.028322
3198,-0.026081,0.017434,-0.009625
3199,0.025223,-0.001832,-0.009625
3200,0.008122,0.017434,0.027769
3201,-0.008979,-0.05963,0.065162
3202,-0.026081,-0.05963,0.083859
3203,-0.026081,-0.05963,0.065162
3204,-0.026081,-0.078896,0.027769
3205,-0.008979,-0.040364,0.046465
3206,-0.008979,-0.040364,-0.009625
3207,-0.008979,-0.001832,-0.103109
3208,-0.008979,0.055966,-0.084412
3209,0.025223,0.0367,0.046465
3210,0.025223,0.055966,0.027769
3211,0.025223,0.055966,-0.009625
3212,-0.008979,0.094498,-0.028322
3213,0.008122,0.075232,-0.009625
3214,-0.026081,0.017434,0.009072
3215,0.008122,-0.021098,-0.084412
3216,0.008122,-0.05963,-0.084412
3217,-0.008979,-0.021098,-0.028322
3218,0.008122,-0.021098,0.009072
3219,-0.008979,0.017434,-0.028322
3220,-0.008979,0.017434,-0.009625
3221,0.008122,0.055966,0.046465
3222,0.008122,0.075232,-0.028322
3223,0.008122,0.0367,0.027769
3224,0.008122,0.017434,-0.009625
3225,-0.008979,-0.05963,-0.028322
3226,0.008122,-0.05963,0.046465
3227,-0.026081,-0.021098,0.009072
3228,-0.026081,-0.021098,-0.009625
3229,0.008122,-0.05963,0.009072
3230,-0.008979,-0.001832,0.027769
3231,0.008122,0.0367,0.009072
3232,-0.008979,0.0367,0.009072
3233,0.008122,0.0367,0.009072
3234,-0.008979,0.0367,0.009072
3235,0.008122,-0.001832,-0.028322
3236,0.008122,-0.001832,0.009072
3237,0.008122,-0.021098,-0.009625
3238,-0.008979,-0.021098,-0.009625
3239,0.008122,-0.001832,0.027769
3240,-0.008979,-0.001832,0.009072
3241,-0.008979,-0.001832,-0.009625
3242,0.008122,-0.021098,0.046465
3243,0.008122,-0.021098,0.046465
3244,-0.008979,0.017434,0.027769
3245,-0.008979,-0.001832,0.027769
3246,-0.026081,-0.021098,0.009072
3247,-0.008979,-0.001832,0.027769
3248,-0.008979,0.055966,0.027769
3249,-0.026081,-0.001832,0.009072
3250,-0.008979,-0.021098,0.027769
3251,0.008122,-0.001832,-0.009625
3252,0.008122,0.0367,-0.047018
3253,0.008122,0.0367,-0.084412
3254,-0.026081,0.0367,-0.047018
3255,-0.008979,-0.021098,-0.047018
3256,-0.008979,-0.001832,-0.047018
3257,-0.008979,-0.078896,-0.009625
3258,0.025223,-0.040364,0.027769
3259,-0.008979,-0.021098,0.009072
3260,-0.026081,0.017434,0.027769
3261,-0.008979,0.0367,0.009072
3262,-0.008979,0.017434,-0.009625
3263,-0.008979,0.017434,-0.009625
3264,0.008122,-0.021098,0.009072
3265,0.008122,0.017434,-0.009625
3266,0.008122,0.017434,0.027769
3267,0.008122,-0.021098,0.046465
3268,0.008122,-0.040364,-0.028322
3269,-0.008979,-0.001832,0.009072
3270,-0.008979,0.017434,0.009072
3271,0.008122,-0.001832,-0.047018
3272,-0.026081,-0.001832,-0.028322
3273,0.008122,0.017434,-0.009625
3274,-0.008979,0.0367,0.009072
3275,0.008122,0.075232,0.046465
3276,0.008122,0.075232,0.046465
3277,0.008122,0.017434,0.027769
3278,-0.008979,0.017434,0.009072
3279,-0.008979,-0.040364,0.046465
3280,0.008122,-0.040364,-0.028322
3281,-0.026081,-0.021098,-0.084412
3282,-0.008979,-0.021098,-0.009625
3283,-0.026081,-0.040364,-0.028322
3284,-0.008979,-0.021098,-0.009625
3285,-0.008979,-0.001832,0.009072
3286,0.008122,0.0367,-0.028322
3287,0.008122,0.0367,-0.009625
3288,0.008122,0.055966,0.065162
3289,0.008122,0.017434,0.027769
3290,-0.008979,0.0367,-0.009625
3291,0.008122,0.017434,0.009072
3292,0.008122,-0.001832,-0.047018
3293,-0.008979,-0.021098,-0.065715
3294,-0.026081,-0.001832,0.009072
3295,-0.008979,0.017434,-0.028322
3296,-0.008979,-0.001832,0.027769
3297,-0.026081,-0.021098,0.046465
3298,-0.008979,-0.021098,0.027769
3299,-0.026081,-0.021098,-0.009625
3300,0.025223,-0.001832,0.046465
3301,-0.008979,-0.001832,0.009072
3302,0.008122,-0.001832,-0.028322
3303,-0.008979,-0.078896,-0.047018
3304,-0.026081,-0.021098,-0.047018
3305,-0.008979,0.017434,-0.009625
3306,0.008122,-0.040364,0.009072
3307,0.025223,0.017434,0.027769
3308,0.025223,0.017434,0.009072
3309,-0.008979,0.055966,0.027769
3310,0.008122,-0.001832,-0.009625
3311,-0.008979,-0.001832,-0.047018
3312,0.008122,-0.001832,-0.028322
3313,-0.008979,-0.001832,-0.028322
3314,0.008122,-0.021098,-0.047018
3315,0.025223,0.017434,-0.009625
3316,0.008122,-0.05963,0.027769
3317,0.008122,-0.040364,0.009072
3318,-0.026081,-0.078896,0.046465
3319,0.008122,0.017434,0.027769
3320,-0.008979,-0.021098,0.009072
3321,-0.008979,0.017434,0.009072
3322,0.008122,-0.021098,0.027769
3323,-0.008979,-0.001832,0.027769
3324,0.025223,-0.001832,0.083859
3325,-0.008979,0.017434,0.046465
3326,-0.008979,-0.05963,-0.047018
3327,-0.008979,-0.040364,-0.065715
3328,-0.008979,-0.040364,-0.028322
3329,-0.026081,-0.001832,-0.065715
3330,-0.008979,0.075232,-0.084412
3331,-0.008979,0.113764,-0.009625
3332,-0.008979,0.055966,-0.028322
3333,0.025223,0.094498,0.009072
3334,0.059426,0.075232,0.009072
3335,0.025223,0.0367,-0.028322
3336,0.008122,-0.001832,-0.028322
3337,0.025223,0.017434,-0.009625
3338,0.008122,0.017434,-0.028322
3339,0.025223,0.017434,-0.009625
3340,0.008122,-0.021098,0.027769
3341,0.008122,-0.001832,-0.009625
3342,0.025223,0.0367,-0.009625
3343,-0.026081,-0.021098,-0.028322
3344,-0.008979,-0.040364,-0.028322
3345,-0.008979,-0.040364,0.009072
3346,-0.008979,-0.040364,0.027769
3347,0.008122,-0.001832,0.009072
3348,0.008122,-0.05963,0.009072
3349,-0.008979,-0.05963,0.009072
3350,0.042325,0.0367,0.009072
3351,-0.008979,0.0367,-0.009625
3352,0.008122,-0.001832,0.009072
3353,0.008122,-0.05963,-0.028322
3354,0.025223,-0.05963,0.009072
3355,0.025223,0.055966,0.046465
3356,0.008122,0.0367,0.083859
3357,-0.008979,-0.001832,0.046465
3358,-0.008979,0.0367,0.065162
3359,-0.008979,0.0367,0.046465
3360,0.008122,0.094498,0.027769
3361,0.008122,0.017434,0.027769
3362,0.008122,0.017434,-0.028322
3363,-0.008979,0.0367,-0.140502
3364,0.008122,0.017434,-0.047018
3365,0.042325,0.0367,0.009072
3366,0.042325,0.017434,-0.028322
3367,0.025223,0.0367,0.009072
3368,0.025223,-0.001832,-0.009625
3369,0.008122,-0.001832,-0.028322
3370,-0.008979,-0.021098,-0.009625
3371,-0.026081,0.017434,0.027769
3372,-0.008979,-0.021098,-0.028322
3373,-0.008979,-0.021098,-0.009625
3374,-0.008979,-0.021098,-0.009625
3375,0.025223,-0.021098,0.046465
3376,0.008122,-0.001832,-0.009625
3377,-0.008979,-0.001832,0.027769
3378,0.008122,-0.001832,0.009072
3379,-0.008979,-0.021098,-0.009625
3380,-0.026081,0.017434,-0.028322
3381,-0.026081,0.017434,-0.028322
3382,0.008122,-0.040364,-0.047018
3383,-0.008979,-0.001832,0.009072
3384,0.008122,-0.021098,0.027769
3385,0.008122,-0.001832,0.009072
3386,0.008122,0.017434,0.027769
3387,0.008122,-0.021098,0.009072
3388,0.008122,-0.05963,-0.047018
3389,0.025223,0.017434,0.009072
3390,-0.026081,-0.001832,-0.028322
3391,-0.008979,-0.021098,-0.028322
3392,0.008122,-0.021098,-0.028322
3393,0.008122,-0.001832,0.009072
3394,0.008122,-0.021098,-0.009625
3395,0.008122,-0.001832,0.046465
3396,-0.026081,-0.001832,0.009072
3397,-0.008979,-0.001832,0.027769
3398,0.008122,0.0367,0.027769
3399,-0.026081,0.017434,0.027769
3400,0.025223,0.0367,-0.009625
3401,0.025223,0.0367,-0.009625
3402,0.008122,0.0367,-0.009625
3403,0.008122,0.017434,-0.047018
3404,-0.008979,-0.001832,0.009072
3405,0.008122,-0.040364,0.009072
3406,0.008122,-0.040364,0.009072
3407,-0.026081,-0.05963,0.046465
3408,-0.008979,-0.021098,0.046465
3409,-0.008979,0.017434,-0.009625
3410,0.008122,-0.001832,-0.009625
3411,-0.008979,0.017434,0.009072
3412,0.042325,0.017434,-0.028322
3413,-0.008979,0.017434,-0.028322
3414,0.008122,-0.001832,0.027769
3415,0.025223,-0.040364,0.027769
3416,-0.008979,-0.021098,0.046465
3417,-0.008979,-0.021098,0.065162
3418,0.008122,0.017434,0.009072
3419,-0.026081,0.017434,-0.028322
3420,0.025223,0.017434,-0.009625
3421,-0.008979,0.055966,0.027769
3422,-0.008979,0.055966,-0.028322
3423,-0.008979,0.017434,-0.028322
3424,-0.008979,-0.021098,-0.028322
3425,0.008122,0.017434,-0.028322
3426,-0.008979,-0.001832,-0.009625
3427,0.008122,0.017434,-0.047018
3428,0.008122,0.017434,-0.047018
3429,-0.008979,-0.001832,-0.065715
3430,0.008122,-0.021098,0.009072
3431,-0.008979,-0.021098,-0.047018
3432,-0.008979,-0.001832,-0.009625
3433,-0.008979,0.0367,-0.009625
3434,-0.008979,0.0367,-0.009625
3435,-0.008979,-0.001832,0.027769
3436,0.008122,0.017434,0.065162
3437,-0.008979,0.017434,0.046465
3438,0.008122,-0.001832,0.046465
3439,0.008122,-0.001832,0.046465
3440,-0.026081,-0.021098,0.027769
3441,0.008122,-0.021098,0.046465
3442,-0.026081,-0.040364,0.027769
3443,-0.026081,0.017434,-0.065715
3444,-0.043182,-0.001832,-0.047018
3445,-0.008979,0.017434,0.027769
3446,-0.008979,-0.001832,0.065162
3447,-0.008979,0.017434,0.027769
3448,0.008122,-0.001832,0.027769
3449,0.008122,0.017434,-0.028322
3450,-0.008979,-0.001832,-0.028322
3451,-0.026081,-0.001832,-0.028322
3452,0.008122,-0.021098,-0.084412
3453,0.025223,-0.001832,-0.047018
3454,0.008122,-0.021098,-0.009625
3455,-0.008979,-0.021098,0.027769
3456,0.008122,-0.021098,0.009072
3457,-0.008979,-0.098162,0.027769
3458,-0.026081,-0.078896,0.027769
3459,-0.026081,-0.040364,-0.009625
3460,-0.008979,-0.021098,0.009072
3461,0.025223,0.017434,0.065162
3462,0.008122,0.055966,0.027769
3463,0.025223,0.055966,0.009072
3464,0.008122,0.094498,-0.009625
3465,0.025223,0.094498,-0.009625
3466,0.008122,0.017434,-0.084412
3467,-0.008979,0.017434,-0.065715
3468,0.025223,0.055966,-0.047018
3469,0.008122,-0.001832,-0.028322
3470,0.008122,0.017434,-0.009625
3471,0.008122,-0.001832,0.009072
3472,-0.008979,-0.001832,-0.028322
3473,-0.008979,-0.001832,-0.009625
3474,-0.043182,-0.001832,0.027769
3475,-0.008979,-0.021098,-0.009625
3476,-0.008979,-0.021098,0.009072
3477,-0.008979,-0.001832,0.027769
3478,-0.008979,-0.021098,0.009072
3479,-0.008979,-0.040364,0.046465
3480,0.008122,-0.040364,-0.009625
3481,-0.008979,-0.040364,-0.028322
3482,-0.008979,-0.05963,-0.009625
3483,0.008122,-0.05963,-0.028322
3484,-0.008979,-0.001832,-0.028322
3485,-0.008979,-0.001832,0.009072
3486,0.008122,0.0367,0.027769
3487,0.025223,0.017434,0.046465
3488,-0.008979,0.055966,0.065162
3489,0.042325,0.075232,0.027769
3490,0.042325,0.017434,0.027769
3491,0.025223,-0.001832,-0.028322
3492,-0.008979,-0.05963,-0.047018
3493,0.008122,-0.078896,-0.065715
3494,0.008122,-0.021098,-0.009625
3495,0.008122,-0.001832,0.046465
3496,0.025223,0.0367,0.009072
3497,0.008122,0.075232,-0.009625
3498,-0.026081,0.055966,0.009072
3499,-0.026081,0.055966,-0.028322
3500,0.008122,0.017434,-0.028322
3501,0.025223,-0.001832,0.009072
3502,0.008122,0.0367,-0.028322
3503,-0.008979,0.017434,-0.028322
3504,0.025223,-0.001832,-0.009625
3505,-0.008979,-0.021098,0.027769
3506,-0.008979,-0.021098,0.009072
3507,-0.008979,-0.040364,0.027769
3508,0.008122,-0.001832,-0.028322
3509,0.008122,-0.021098,-0.009625
3510,-0.008979,-0.05963,0.009072
3511,0.008122,-0.040364,0.009072
3512,-0.008979,0.0367,-0.028322
3513,0.025223,0.055966,0.009072
3514,0.025223,0.0367,-0.009625
3515,0.008122,0.017434,0.009072
3516,-0.008979,0.0367,0.009072
3517,0.008122,0.055966,0.046465
3518,0.008122,0.055966,0.027769
3519,-0.008979,-0.001832,0.065162
3520,-0.008979,0.017434,0.009072
3521,0.008122,-0.001832,-0.084412
3522,0.008122,-0.001832,-0.065715
3523,-0.008979,-0.021098,-0.047018
3524,-0.008979,0.055966,-0.028322
3525,-0.008979,-0.001832,-0.009625
3526,-0.026081,-0.001832,-0.009625
3527,0.008122,0.017434,0.009072
3528,0.008122,0.017434,0.046465
3529,0.008122,-0.021098,0.027769
3530,-0.026081,0.017434,0.009072
3531,0.025223,0.0367,-0.028322
3532,0.008122,-0.001832,-0.009625
3533,0.008122,-0.021098,-0.065715
3534,0.008122,-0.001832,0.009072
3535,-0.008979,-0.021098,0.046465
3536,0.025223,-0.021098,-0.009625
3537,-0.008979,0.017434,0.009072
3538,-0.026081,-0.021098,0.009072
3539,-0.008979,-0.001832,-0.009625
3540,-0.026081,-0.001832,0.009072
3541,-0.008979,-0.001832,0.027769
3542,-0.008979,-0.001832,-0.009625
3543,-0.008979,-0.001832,-0.047018
3544,0.025223,0.017434,-0.009625
3545,0.008122,0.017434,-0.009625
3546,-0.008979,0.0367,-0.028322
3547,-0.026081,-0.021098,-0.028322
3548,0.008122,-0.021098,-0.047018
3549,-0.008979,0.017434,-0.065715
3550,-0.008979,-0.040364,0.027769
3551,0.008122,-0.021098,-0.009625
3552,0.008122,-0.001832,-0.047018
3553,0.008122,-0.021098,0.009072
3554,0.008122,0.0367,-0.009625
3555,-0.008979,-0.001832,-0.028322
3556,-0.008979,0.017434,0.009072
3557,0.025223,-0.001832,0.046465
3558,0.025223,0.017434,0.009072
3559,0.025223,0.017434,0.065162
3560,-0.008979,0.017434,0.046465
3561,0.008122,-0.001832,0.046465
3562,0.008122,-0.001832,0.046465
3563,-0.008979,0.017434,0.065162
3564,0.025223,0.055966,-0.047018
3565,0.008122,-0.001832,-0.065715
3566,-0.008979,-0.021098,-0.047018
3567,-0.026081,-0.001832,-0.047018
3568,0.008122,-0.021098,-0.009625
3569,-0.008979,-0.021098,0.046465
3570,0.008122,-0.001832,-0.009625
3571,0.008122,-0.021098,-0.065715
3572,0.008122,0.017434,-0.028322
3573,0.025223,-0.021098,0.009072
3574,0.025223,-0.001832,-0.028322
3575,0.008122,0.017434,0.009072
3576,-0.026081,0.017434,-0.009625
3577,-0.008979,-0.001832,0.009072
3578,0.008122,-0.021098,0.009072
3579,-0.008979,0.017434,-0.009625
3580,-0.008979,0.017434,-0.028322
3581,0.008122,-0.021098,0.027769
3582,-0.026081,-0.001832,0.027769
3583,-0.008979,0.017434,0.027769
3584,-0.026081,0.017434,0.046465
3585,0.008122,-0.001832,-0.009625
3586,-0.043182,-0.040364,0.027769
3587,-0.008979,0.017434,-0.028322
3588,0.008122,-0.001832,-0.028322
3589,-0.008979,-0.021098,-0.047018
3590,-0.008979,-0.021098,-0.009625
3591,0.008122,-0.078896,0.009072
3592,-0.026081,-0.040364,-0.009625
3593,0.008122,-0.001832,-0.009625
3594,0.008122,0.017434,0.027769
3595,0.025223,0.0367,-0.028322
3596,0.008122,-0.001832,0.009072
3597,0.008122,-0.001832,0.009072
3598,0.008122,-0.001832,-0.009625
3599,0.008122,-0.021098,-0.009625
3600,0.008122,-0.021098,0.009072
3601,0.025223,-0.001832,-0.009625
3602,0.025223,-0.021098,-0.009625
3603,0.008122,0.017434,0.027769
3604,0.008122,0.017434,0.009072
3605,-0.008979,0.055966,-0.009625
3606,0.008122,0.0367,0.009072
3607,-0.008979,0.0367,0.046465
3608,0.008122,-0.001832,0.027769
3609,-0.008979,-0.078896,0.046465
3610,0.025223,-0.078896,0.027769
3611,-0.008979,-0.040364,0.009072
3612,-0.008979,-0.021098,0.009072
3613,-0.008979,-0.040364,-0.028322
3614,-0.008979,-0.040364,-0.121806
3615,-0.008979,-0.001832,-0.047018
3616,0.008122,0.075232,0.009072
3617,0.008122,0.0367,-0.009625
3618,0.025223,0.055966,-0.009625
3619,-0.008979,0.0367,0.009072
3620,-0.008979,0.0367,0.027769
3621,0.008122,0.0367,0.046465
3622,-0.008979,0.017434,-0.028322
3623,0.008122,0.017434,-0.009625
3624,-0.008979,-0.040364,-0.009625
3625,0.008122,-0.001832,0.046465
3626,0.008122,0.017434,0.009072
