# Requested Sampling Rate (Hz):,1000
# Actual Sampling Rate (Hz):,998.627
# Requested Duration (s):,5.0
# Actual Duration (s):,5.049
# REST Calibration:,831.5250689655151,832.0950689655182,831.5147931034478
# MAX Calibration:,890.0000,884.0000,885.0000
# Normalization: MVC-based  (x_norm = (x - REST) / (MAX - REST))
sample_idx,EMG1,EMG2,EMG3
0,-0.026081,-0.05963,-0.009625
1,-0.008979,-0.040364,0.009072
2,0.008122,-0.021098,0.027769
3,0.008122,0.017434,0.009072
4,0.025223,0.075232,-0.028322
5,0.025223,0.113764,-0.009625
6,0.025223,0.055966,0.009072
7,0.008122,0.055966,-0.009625
8,0.008122,0.017434,-0.009625
9,0.008122,-0.021098,-0.028322
10,-0.008979,-0.001832,-0.009625
11,-0.008979,-0.021098,0.009072
12,0.008122,0.017434,0.009072
13,-0.008979,0.055966,0.027769
14,0.008122,0.0367,0.027769
15,0.008122,0.113764,0.009072
16,0.025223,0.075232,0.046465
17,0.008122,0.055966,-0.009625
18,-0.008979,-0.001832,-0.009625
19,0.008122,0.017434,0.027769
20,-0.008979,-0.021098,0.027769
21,0.008122,-0.040364,0.009072
22,0.008122,-0.001832,0.009072
23,-0.008979,0.017434,-0.009625
24,0.008122,0.017434,0.009072
25,-0.008979,0.017434,0.027769
26,0.008122,-0.001832,-0.009625
27,0.008122,-0.021098,-0.047018
28,-0.008979,0.017434,0.009072
29,0.008122,0.017434,0.009072
30,-0.008979,0.017434,0.009072
31,0.008122,0.0367,-0.009625
32,-0.008979,0.0367,0.009072
33,-0.008979,0.017434,-0.009625
34,0.008122,-0.040364,-0.065715
35,0.008122,-0.040364,-0.047018
36,-0.026081,-0.05963,0.009072
37,-0.008979,-0.021098,-0.028322
38,-0.008979,-0.040364,-0.009625
39,-0.008979,-0.05963,0.009072
40,0.008122,-0.040364,-0.009625
41,-0.008979,-0.021098,0.027769
42,0.008122,0.0367,0.027769
43,-0.008979,0.0367,-0.009625
44,0.025223,0.075232,-0.009625
45,0.008122,0.055966,0.009072
46,0.008122,0.055966,0.009072
47,-0.008979,0.017434,0.009072
48,-0.008979,-0.021098,0.065162
49,-0.008979,0.017434,0.121252
50,0.008122,-0.040364,0.083859
51,0.008122,-0.05963,0.083859
52,0.008122,-0.05963,0.065162
53,0.008122,-0.021098,0.009072
54,0.025223,-0.021098,-0.103109
55,-0.008979,-0.001832,-0.121806
56,-0.008979,0.0367,-0.065715
57,0.008122,0.0367,-0.009625
58,0.008122,0.113764,-0.009625
59,0.008122,0.075232,-0.009625
60,0.008122,0.017434,-0.028322
61,0.025223,0.017434,-0.028322
62,0.008122,0.017434,0.009072
63,0.008122,0.055966,0.046465
64,0.008122,0.017434,0.027769
65,0.008122,0.017434,0.027769
66,0.008122,0.017434,0.046465
67,0.008122,-0.021098,-0.009625
68,-0.008979,-0.001832,-0.028322
69,-0.008979,-0.001832,0.009072
70,-0.008979,0.055966,-0.009625
71,0.008122,-0.001832,-0.047018
72,0.025223,-0.05963,-0.009625
73,0.008122,-0.098162,-0.009625
74,0.008122,-0.05963,0.027769
75,0.008122,-0.040364,0.027769
76,0.008122,-0.021098,0.027769
77,0.008122,0.075232,0.009072
78,0.025223,0.094498,0.027769
79,0.008122,0.075232,0.009072
80,0.008122,-0.001832,0.009072
81,0.008122,0.075232,0.009072
82,0.008122,0.075232,0.009072
83,-0.008979,0.113764,0.009072
84,-0.026081,0.0367,-0.009625
85,-0.008979,-0.021098,-0.009625
86,0.008122,-0.001832,-0.047018
87,0.025223,0.055966,-0.028322
88,0.008122,0.075232,0.046465
89,0.025223,0.055966,0.009072
90,0.008122,0.075232,-0.009625
91,-0.008979,0.017434,0.027769
92,-0.008979,-0.078896,-0.009625
93,0.008122,-0.078896,-0.028322
94,0.008122,-0.078896,-0.009625
95,-0.008979,-0.05963,-0.009625
96,-0.008979,-0.021098,-0.009625
97,0.008122,-0.001832,0.009072
98,0.008122,-0.021098,0.027769
99,0.008122,-0.040364,0.046465
100,0.025223,-0.040364,0.027769
101,-0.008979,-0.021098,0.027769
102,0.008122,0.055966,0.009072
103,-0.008979,0.055966,-0.028322
104,-0.14579,-0.078896,-0.009625
105,-0.008979,-0.078896,-0.009625
106,0.059426,0.017434,-0.028322
107,0.076527,0.055966,-0.009625
108,0.042325,0.017434,0.009072
109,0.042325,0.055966,-0.028322
110,0.008122,0.094498,0.009072
111,0.025223,0.171562,0.027769
112,0.008122,0.210094,0.027769
113,-0.008979,0.13303,0.027769
114,0.008122,0.113764,0.027769
115,-0.026081,0.0367,0.009072
116,-0.026081,-0.021098,-0.028322
117,-0.008979,-0.021098,-0.009625
118,-0.077385,0.017434,-0.009625
119,-0.077385,-0.001832,-0.028322
120,-0.077385,0.017434,0.009072
121,-0.043182,-0.021098,0.046465
122,0.008122,-0.001832,0.009072
123,0.059426,-0.021098,0.009072
124,0.059426,-0.040364,0.065162
125,0.059426,0.017434,0.009072
126,0.059426,0.0367,0.046465
127,0.042325,0.017434,0.046465
128,0.025223,-0.021098,0.027769
129,0.008122,-0.021098,0.009072
130,-0.008979,-0.021098,-0.028322
131,-0.008979,-0.021098,-0.028322
132,0.008122,-0.001832,-0.028322
133,0.008122,-0.021098,-0.009625
134,-0.008979,0.0367,-0.028322
135,0.008122,0.055966,-0.028322
136,-0.008979,-0.001832,0.009072
137,0.008122,-0.001832,0.027769
138,-0.008979,0.017434,0.009072
139,-0.008979,0.055966,0.027769
140,-0.026081,0.0367,0.009072
141,-0.008979,0.0367,0.009072
142,-0.008979,0.0367,-0.028322
143,-0.008979,-0.001832,-0.084412
144,0.008122,-0.001832,-0.065715
145,0.008122,0.017434,-0.009625
146,-0.008979,0.017434,0.027769
147,-0.008979,0.0367,0.046465
148,-0.008979,0.0367,0.027769
149,0.008122,0.017434,0.046465
150,0.042325,-0.001832,0.009072
151,0.025223,0.017434,-0.009625
152,0.008122,0.017434,0.009072
153,0.008122,0.017434,-0.028322
154,-0.008979,0.017434,-0.009625
155,-0.026081,-0.001832,-0.009625
156,-0.043182,0.017434,0.009072
157,-0.026081,0.0367,-0.009625
158,0.008122,0.055966,-0.009625
159,0.076527,0.055966,0.009072
160,0.042325,0.055966,0.027769
161,0.025223,0.0367,0.046465
162,0.008122,0.0367,0.065162
163,0.008122,0.055966,0.046465
164,-0.008979,0.0367,0.027769
165,-0.026081,0.0367,-0.009625
166,-0.008979,0.017434,-0.047018
167,0.008122,-0.001832,-0.084412
168,0.008122,0.017434,-0.028322
169,0.008122,-0.001832,-0.009625
170,0.008122,-0.040364,-0.009625
171,-0.008979,-0.078896,0.009072
172,0.008122,-0.040364,0.027769
173,0.008122,-0.021098,-0.009625
174,-0.026081,0.0367,0.027769
175,-0.026081,0.0367,0.009072
176,-0.008979,0.055966,-0.009625
177,-0.008979,0.075232,-0.028322
178,0.008122,0.0367,0.027769
179,-0.008979,-0.040364,-0.009625
180,-0.026081,-0.040364,0.027769
181,-0.026081,-0.021098,0.009072
182,-0.026081,-0.05963,0.027769
183,-0.026081,-0.021098,-0.009625
184,-0.008979,0.017434,0.027769
185,-0.008979,0.0367,0.009072
186,0.008122,0.0367,0.027769
187,-0.008979,0.0367,-0.009625
188,-0.008979,0.017434,0.009072
189,0.008122,0.075232,-0.028322
190,0.008122,0.113764,-0.084412
191,0.008122,0.055966,-0.028322
192,-0.043182,0.017434,-0.028322
193,0.008122,-0.001832,-0.009625
194,0.042325,-0.05963,0.009072
195,0.042325,-0.040364,0.027769
196,0.025223,-0.001832,0.027769
197,-0.008979,0.055966,0.046465
198,-0.060283,0.055966,-0.028322
199,-0.060283,0.075232,-0.047018
200,-0.026081,0.075232,-0.028322
201,-0.008979,0.113764,-0.028322
202,-0.008979,0.152296,-0.028322
203,0.008122,0.13303,-0.028322
204,0.008122,0.152296,0.009072
205,0.11073,0.171562,-0.009625
206,0.127831,0.13303,0.027769
207,0.042325,0.13303,0.027769
208,-0.043182,0.075232,0.009072
209,-0.094486,0.0367,0.009072
210,-0.077385,0.017434,0.027769
211,-0.043182,0.055966,0.027769
212,-0.043182,-0.040364,0.009072
213,0.008122,-0.021098,-0.009625
214,0.025223,-0.040364,-0.009625
215,0.059426,-0.213758,-0.009625
216,0.076527,-0.290821,0.027769
217,0.059426,-0.329353,0.046465
218,0.025223,-0.348619,-0.009625
219,-0.060283,-0.175226,0.009072
220,-0.077385,-0.001832,-0.009625
221,-0.060283,0.190828,-0.047018
222,0.11073,0.364222,-0.009625
223,0.264642,0.460552,0.027769
224,0.213338,0.402754,0.009072
225,0.11073,0.306424,0.009072
226,0.059426,0.094498,0.009072
227,-0.094486,-0.001832,-0.028322
228,-0.282601,0.017434,-0.009625
229,-0.077385,0.075232,0.027769
230,-0.008979,0.113764,0.027769
231,0.042325,0.13303,-0.009625
232,-0.008979,0.113764,0.027769
233,-0.008979,0.094498,0.046465
234,0.008122,0.075232,0.083859
235,0.042325,-0.001832,0.027769
236,0.008122,-0.040364,-0.009625
237,0.008122,-0.05963,-0.009625
238,0.025223,-0.05963,-0.028322
239,0.025223,0.017434,-0.028322
240,0.025223,0.0367,-0.084412
241,-0.008979,0.094498,-0.047018
242,-0.026081,0.152296,-0.047018
243,-0.043182,0.113764,-0.009625
244,-0.060283,-0.001832,-0.009625
245,-0.077385,-0.098162,0.046465
246,-0.043182,-0.05963,0.027769
247,-0.026081,-0.021098,0.009072
248,0.008122,-0.001832,-0.047018
249,0.042325,-0.021098,-0.009625
250,0.076527,0.113764,-0.009625
251,0.093629,0.210094,-0.009625
252,0.059426,0.113764,0.009072
253,0.025223,0.0367,0.009072
254,-0.008979,-0.001832,0.009072
255,-0.008979,0.0367,0.009072
256,0.008122,0.055966,-0.009625
257,-0.008979,0.0367,0.027769
258,-0.008979,0.0367,0.065162
259,-0.008979,0.0367,0.027769
260,-0.008979,0.017434,0.009072
261,-0.008979,0.017434,0.046465
262,-0.008979,-0.05963,-0.047018
263,-0.043182,-0.098162,-0.065715
264,-0.060283,-0.098162,-0.028322
265,-0.026081,-0.098162,-0.009625
266,-0.026081,-0.078896,-0.009625
267,-0.008979,-0.001832,-0.028322
268,0.025223,0.075232,-0.047018
269,0.042325,0.113764,-0.028322
270,0.076527,0.152296,-0.047018
271,0.076527,0.113764,-0.009625
272,0.059426,0.075232,-0.047018
273,-0.026081,0.075232,-0.028322
274,-0.077385,0.055966,-0.009625
275,-0.008979,-0.021098,0.009072
276,0.008122,-0.040364,0.009072
277,0.008122,-0.001832,0.065162
278,-0.008979,0.017434,0.102556
279,-0.026081,0.017434,0.065162
280,-0.026081,0.0367,0.083859
281,-0.026081,0.055966,0.027769
282,-0.026081,0.075232,-0.028322
283,-0.060283,0.075232,-0.084412
284,-0.077385,-0.001832,-0.065715
285,-0.043182,0.017434,-0.065715
286,-0.008979,0.0367,-0.028322
287,0.008122,-0.001832,0.009072
288,0.025223,-0.040364,0.027769
289,0.025223,-0.098162,0.046465
290,0.042325,-0.117428,0.065162
291,0.093629,-0.117428,0.027769
292,0.042325,-0.078896,-0.009625
293,0.008122,-0.040364,0.046465
294,0.008122,0.075232,-0.028322
295,0.008122,0.152296,-0.028322
296,-0.026081,0.13303,-0.009625
297,-0.060283,0.152296,-0.009625
298,-0.008979,0.055966,-0.047018
299,0.11073,0.0367,-0.028322
300,0.076527,0.0367,0.009072
301,0.042325,-0.021098,0.027769
302,0.059426,-0.040364,0.027769
303,0.076527,-0.078896,-0.009625
304,0.059426,-0.098162,-0.028322
305,-0.094486,-0.021098,-0.047018
306,-0.094486,0.017434,-0.009625
307,-0.077385,-0.040364,0.009072
308,-0.043182,0.075232,0.009072
309,-0.043182,0.113764,0.009072
310,-0.043182,0.094498,0.027769
311,-0.026081,0.075232,-0.028322
312,-0.043182,0.0367,-0.009625
313,-0.043182,0.017434,0.009072
314,-0.026081,0.075232,0.009072
315,-0.026081,0.171562,0.009072
316,-0.008979,0.190828,-0.009625
317,-0.008979,0.171562,0.009072
318,0.025223,0.152296,0.009072
319,0.042325,0.094498,0.027769
320,0.11073,0.13303,0.027769
321,0.144933,0.113764,-0.028322
322,-0.060283,0.075232,-0.009625
323,-0.043182,0.0367,0.046465
324,-0.026081,0.113764,0.009072
325,0.008122,0.055966,-0.028322
326,-0.008979,0.075232,0.027769
327,-0.008979,0.055966,0.009072
328,-0.026081,0.017434,0.009072
329,0.008122,-0.001832,-0.009625
330,0.059426,0.0367,-0.009625
331,0.076527,-0.001832,-0.009625
332,0.093629,0.017434,0.027769
333,0.076527,-0.001832,-0.028322
334,0.042325,-0.001832,0.009072
335,0.025223,0.017434,0.027769
336,0.008122,0.017434,0.065162
337,-0.008979,-0.021098,0.027769
338,-0.026081,-0.078896,0.027769
339,-0.008979,-0.117428,-0.028322
340,-0.026081,-0.117428,-0.065715
341,-0.026081,-0.078896,-0.065715
342,-0.008979,-0.040364,0.027769
343,-0.026081,-0.040364,0.009072
344,0.008122,-0.05963,0.009072
345,0.008122,-0.078896,-0.009625
346,-0.008979,0.017434,-0.047018
347,-0.008979,0.055966,-0.009625
348,-0.008979,0.094498,0.009072
349,0.008122,0.190828,0.009072
350,0.025223,0.152296,0.009072
351,0.008122,0.13303,0.009072
352,0.025223,0.075232,0.027769
353,0.008122,0.075232,0.009072
354,-0.026081,0.017434,0.046465
355,0.025223,0.0367,0.065162
356,0.059426,0.075232,0.065162
357,0.008122,0.017434,0.083859
358,-0.008979,0.055966,0.027769
359,0.008122,0.017434,-0.047018
360,-0.043182,-0.001832,-0.084412
361,-0.026081,-0.040364,-0.065715
362,0.008122,-0.078896,-0.047018
363,0.025223,-0.117428,-0.009625
364,0.042325,-0.194492,0.009072
365,0.093629,-0.194492,-0.009625
366,0.093629,-0.175226,-0.028322
367,0.008122,-0.175226,-0.009625
368,-0.060283,-0.021098,-0.065715
369,-0.14579,-0.021098,-0.047018
370,-0.248398,-0.040364,-0.028322
371,-0.128689,0.152296,0.046465
372,-0.026081,0.306424,0.009072
373,0.025223,0.267892,0.009072
374,0.008122,0.171562,0.009072
375,0.008122,0.113764,-0.028322
376,0.059426,0.171562,-0.009625
377,0.076527,0.13303,0.027769
378,0.025223,0.094498,0.009072
379,0.025223,0.0367,0.009072
380,0.042325,-0.001832,0.009072
381,0.025223,-0.040364,-0.047018
382,0.008122,-0.098162,0.009072
383,-0.043182,-0.098162,0.027769
384,-0.077385,-0.136694,0.027769
385,-0.060283,-0.098162,0.009072
386,-0.008979,-0.05963,0.009072
387,-0.043182,0.0367,-0.009625
388,-0.008979,0.0367,0.009072
389,0.008122,-0.098162,-0.009625
390,-0.043182,-0.175226,-0.009625
391,-0.043182,-0.040364,-0.028322
392,-0.008979,0.094498,-0.009625
393,0.059426,0.171562,0.009072
394,0.127831,0.171562,-0.009625
395,0.127831,0.210094,0.027769
396,0.093629,0.171562,0.027769
397,0.093629,0.113764,0.046465
398,0.042325,0.113764,0.009072
399,0.042325,0.113764,0.009072
400,0.025223,0.171562,-0.009625
401,0.059426,0.055966,0.009072
402,-0.008979,0.055966,0.009072
403,-0.128689,-0.001832,-0.009625
404,-0.094486,-0.001832,0.009072
405,-0.026081,-0.021098,0.027769
406,-0.043182,-0.117428,0.027769
407,-0.043182,-0.05963,-0.009625
408,-0.060283,-0.078896,-0.009625
409,-0.043182,-0.078896,0.027769
410,0.093629,-0.05963,0.009072
411,0.11073,-0.040364,0.009072
412,0.11073,0.055966,0.009072
413,0.093629,0.113764,-0.009625
414,0.059426,0.190828,-0.047018
415,-0.026081,0.094498,-0.009625
416,-0.094486,0.017434,-0.028322
417,0.025223,0.094498,-0.009625
418,0.008122,0.055966,-0.009625
419,0.025223,0.075232,0.027769
420,0.008122,0.075232,0.009072
421,-0.008979,0.075232,0.027769
422,-0.077385,0.152296,0.009072
423,-0.060283,0.094498,-0.047018
424,-0.094486,0.055966,-0.047018
425,-0.14579,-0.001832,-0.009625
426,-0.111587,-0.15596,-0.009625
427,-0.094486,-0.194492,-0.009625
428,-0.008979,-0.213758,0.009072
429,0.025223,-0.290821,0.027769
430,-0.026081,-0.329353,0.027769
431,-0.128689,-0.194492,0.046465
432,-0.043182,0.0367,0.027769
433,0.008122,0.171562,-0.009625
434,0.025223,0.13303,0.009072
435,0.093629,0.190828,0.009072
436,0.127831,0.306424,0.009072
437,0.144933,0.248626,0.009072
438,0.179135,0.113764,0.065162
439,0.179135,0.0367,0.046465
440,0.162034,0.017434,-0.009625
441,0.093629,0.075232,-0.047018
442,-0.008979,0.094498,-0.009625
443,-0.060283,0.13303,0.009072
444,-0.111587,0.13303,0.083859
445,-0.094486,0.075232,0.065162
446,-0.077385,-0.001832,-0.028322
447,0.025223,-0.05963,-0.028322
448,0.008122,-0.05963,-0.028322
449,-0.008979,-0.05963,-0.009625
450,-0.026081,-0.098162,-0.009625
451,-0.026081,0.017434,0.027769
452,-0.077385,-0.040364,-0.028322
453,-0.128689,-0.098162,-0.009625
454,-0.060283,-0.078896,-0.028322
455,0.059426,-0.078896,0.009072
456,0.093629,0.017434,0.009072
457,0.11073,0.075232,0.009072
458,0.127831,0.152296,-0.009625
459,0.11073,0.152296,0.009072
460,0.144933,-0.021098,0.009072
461,0.127831,-0.15596,0.009072
462,-0.008979,-0.136694,-0.009625
463,0.025223,-0.05963,0.027769
464,-0.248398,-0.021098,0.046465
465,-0.351006,0.017434,-0.009625
466,-0.179993,0.094498,0.027769
467,0.11073,0.171562,0.046465
468,0.008122,0.13303,0.009072
469,0.025223,-0.001832,0.027769
470,0.025223,-0.040364,0.009072
471,0.008122,-0.05963,-0.047018
472,-0.008979,0.075232,-0.028322
473,0.008122,-0.001832,0.009072
474,0.008122,-0.098162,-0.009625
475,-0.026081,-0.021098,-0.028322
476,-0.060283,0.0367,0.027769
477,-0.060283,-0.05963,0.027769
478,-0.026081,-0.05963,0.027769
479,0.042325,0.0367,-0.009625
480,0.025223,0.13303,-0.028322
481,0.008122,0.152296,-0.028322
482,0.076527,0.113764,0.027769
483,0.076527,-0.021098,0.009072
484,0.042325,-0.233024,-0.065715
485,0.008122,-0.310087,-0.084412
486,-0.060283,-0.213758,-0.009625
487,-0.128689,-0.078896,-0.009625
488,-0.111587,0.094498,-0.028322
489,-0.094486,0.22936,-0.009625
490,-0.128689,0.42202,0.065162
491,0.127831,0.383488,0.009072
492,0.179135,0.248626,0.046465
493,0.076527,0.113764,0.046465
494,0.008122,0.094498,0.046465
495,-0.043182,0.113764,0.027769
496,0.025223,0.094498,0.027769
497,0.11073,0.055966,0.027769
498,0.162034,0.017434,-0.009625
499,0.179135,0.017434,0.027769
500,0.127831,-0.021098,-0.009625
501,-0.026081,-0.098162,0.009072
502,-0.14579,-0.098162,0.027769
503,-0.162891,-0.117428,0.046465
504,0.042325,-0.117428,-0.009625
505,0.144933,-0.078896,-0.028322
506,0.127831,-0.001832,-0.065715
507,-0.094486,0.075232,-0.065715
508,-0.179993,0.094498,-0.084412
509,-0.214196,0.0367,-0.047018
510,-0.077385,-0.05963,-0.028322
511,-0.026081,-0.040364,-0.028322
512,0.008122,-0.001832,0.009072
513,0.059426,0.017434,-0.028322
514,0.025223,-0.040364,0.009072
515,-0.026081,-0.021098,-0.009625
516,0.179135,0.0367,0.027769
517,0.298845,0.0367,0.027769
518,0.127831,0.017434,0.046465
519,0.076527,0.017434,-0.009625
520,-0.043182,0.075232,-0.009625
521,-0.026081,0.0367,-0.047018
522,-0.248398,-0.05963,-0.028322
523,-0.14579,-0.098162,-0.047018
524,0.11073,-0.001832,0.009072
525,0.042325,0.094498,0.065162
526,0.025223,-0.001832,0.009072
527,-0.026081,-0.021098,0.046465
528,-0.094486,0.0367,-0.009625
529,-0.094486,-0.001832,-0.009625
530,-0.111587,-0.098162,-0.009625
531,-0.111587,-0.213758,0.027769
532,-0.094486,-0.252289,0.027769
533,-0.111587,-0.213758,-0.028322
534,-0.026081,-0.117428,-0.028322
535,-0.026081,0.113764,-0.028322
536,0.059426,0.364222,-0.028322
537,0.076527,0.460552,0.009072
538,0.179135,0.364222,0.046465
539,0.042325,0.152296,0.009072
540,0.025223,-0.040364,-0.009625
541,-0.008979,-0.194492,0.027769
542,0.008122,-0.271555,0.027769
543,0.076527,-0.310087,0.009072
544,0.179135,-0.271555,0.009072
545,0.196237,-0.213758,0.009072
546,0.127831,-0.021098,-0.047018
547,-0.248398,0.22936,-0.028322
548,-0.299702,0.267892,-0.009625
549,0.008122,0.306424,-0.028322
550,0.042325,0.190828,-0.009625
551,0.093629,0.075232,0.009072
552,0.059426,0.113764,0.027769
553,-0.077385,0.075232,0.009072
554,-0.026081,0.055966,0.027769
555,-0.060283,0.152296,0.009072
556,-0.094486,0.190828,-0.009625
557,-0.026081,0.152296,0.046465
558,0.008122,0.0367,0.009072
559,-0.043182,-0.078896,-0.047018
560,-0.128689,-0.078896,-0.009625
561,-0.248398,-0.078896,-0.009625
562,-0.231297,-0.078896,-0.028322
563,-0.214196,-0.021098,0.027769
564,-0.197094,-0.078896,0.009072
565,0.059426,-0.078896,0.027769
566,0.469858,0.017434,0.027769
567,0.657973,0.0367,0.027769
568,0.62377,0.13303,0.009072
569,0.213338,0.0367,-0.028322
570,-0.14579,-0.05963,-0.009625
571,-0.231297,-0.05963,-0.028322
572,-0.128689,0.017434,-0.047018
573,-0.026081,-0.021098,-0.028322
574,0.008122,0.055966,0.009072
575,0.025223,0.055966,-0.028322
576,-0.008979,-0.040364,0.009072
577,-0.077385,-0.040364,0.009072
578,-0.14579,-0.213758,0.009072
579,-0.094486,-0.425683,0.027769
580,0.042325,-0.464215,0.027769
581,0.076527,-0.310087,0.009072
582,0.042325,-0.117428,-0.009625
583,0.008122,-0.117428,-0.084412
584,-0.060283,0.190828,-0.065715
585,0.025223,0.287158,0.009072
586,-0.077385,0.075232,0.027769
587,-0.179993,-0.194492,-0.009625
588,-0.248398,-0.271555,-0.028322
589,-0.111587,-0.05963,0.027769
590,0.042325,0.306424,0.046465
591,0.196237,0.248626,0.046465
592,0.196237,0.017434,0.046465
593,0.11073,-0.078896,0.065162
594,-0.026081,0.0367,-0.009625
595,-0.008979,0.13303,-0.028322
596,0.025223,0.306424,-0.028322
597,0.042325,0.364222,-0.028322
598,0.076527,0.344956,-0.047018
599,0.196237,0.32569,-0.028322
600,0.008122,0.344956,0.009072
601,0.230439,0.13303,-0.047018
602,0.144933,-0.05963,-0.009625
603,-0.008979,-0.040364,0.046465
604,0.076527,0.075232,0.065162
605,0.127831,0.248626,0.027769
606,-0.333905,0.22936,0.027769
607,-0.214196,0.055966,-0.009625
608,-0.248398,-0.05963,-0.028322
609,-0.128689,-0.001832,-0.009625
610,-0.094486,-0.021098,0.009072
611,0.059426,-0.040364,-0.009625
612,0.127831,-0.233024,-0.009625
613,0.196237,-0.367885,-0.009625
614,0.230439,-0.348619,0.027769
615,0.042325,-0.425683,-0.009625
616,-0.299702,-0.464215,-0.047018
617,-0.299702,-0.252289,-0.047018
618,0.162034,0.22936,-0.009625
619,0.315946,0.364222,0.027769
620,0.144933,0.190828,-0.028322
621,-0.231297,0.306424,-0.047018
622,-0.197094,0.364222,0.027769
623,-0.043182,0.190828,0.027769
624,0.008122,0.0367,-0.047018
625,-0.043182,-0.040364,0.027769
626,-0.077385,0.0367,0.065162
627,-0.008979,0.152296,0.065162
628,0.196237,0.13303,0.027769
629,0.230439,-0.078896,0.027769
630,0.059426,-0.15596,0.009072
631,-0.248398,-0.05963,0.046465
632,-0.351006,-0.05963,0.009072
633,-0.231297,-0.15596,-0.028322
634,0.042325,-0.001832,-0.065715
635,0.127831,0.152296,-0.084412
636,0.333048,0.055966,-0.047018
637,0.264642,-0.078896,-0.047018
638,0.008122,-0.194492,0.009072
639,-0.094486,-0.676141,0.046465
640,-0.026081,-0.753205,-0.009625
641,-0.026081,-0.522013,0.009072
642,-0.299702,-0.502747,0.009072
643,-0.008979,0.210094,-0.009625
644,0.281743,0.845872,0.027769
645,0.36725,0.980734,0.027769
646,0.144933,0.460552,0.009072
647,-0.333905,-0.040364,0.009072
648,-0.197094,-0.078896,0.027769
649,-0.077385,-0.040364,-0.028322
650,-0.111587,0.0367,-0.028322
651,-0.14579,0.306424,0.027769
652,-0.060283,0.287158,0.046465
653,0.162034,-0.021098,-0.028322
654,0.179135,-0.213758,-0.028322
655,0.247541,-0.136694,-0.009625
656,0.213338,-0.15596,-0.028322
657,-0.077385,-0.15596,0.009072
658,-0.351006,-0.021098,0.009072
659,-0.111587,0.344956,-0.009625
660,0.025223,0.094498,0.027769
661,0.025223,-0.194492,0.046465
662,-0.043182,-0.329353,-0.009625
663,-0.162891,-0.252289,0.027769
664,-0.111587,-0.117428,0.046465
665,-0.026081,0.152296,0.046465
666,-0.060283,0.171562,-0.009625
667,-0.026081,-0.098162,-0.009625
668,0.059426,-0.001832,0.009072
669,0.076527,0.13303,-0.009625
670,0.008122,0.075232,-0.009625
671,0.025223,0.190828,-0.009625
672,0.025223,0.13303,-0.028322
673,-0.008979,0.152296,-0.009625
674,0.008122,0.075232,0.027769
675,0.042325,0.017434,0.009072
676,0.452757,-0.040364,0.027769
677,0.62377,-0.425683,0.009072
678,0.504061,-0.830269,-0.047018
679,0.144933,-0.579811,-0.047018
680,-0.077385,-0.444949,-0.009625
681,-0.299702,-0.136694,-0.047018
682,-0.351006,0.576148,-0.009625
683,-0.470716,0.884404,0.046465
684,-0.162891,0.90367,0.046465
685,-0.043182,0.460552,0.102556
686,0.076527,0.017434,0.027769
687,0.042325,-0.098162,0.027769
688,-0.231297,-0.078896,0.009072
689,-0.214196,0.113764,0.009072
690,-0.026081,0.267892,0.046465
691,0.230439,0.152296,0.009072
692,0.093629,-0.021098,0.027769
693,-0.008979,-0.252289,0.009072
694,-0.008979,-0.136694,-0.009625
695,0.076527,-0.175226,-0.028322
696,0.093629,-0.175226,-0.028322
697,0.11073,-0.233024,-0.028322
698,0.144933,-0.021098,0.027769
699,0.025223,0.055966,0.027769
700,-0.368108,-0.136694,0.027769
701,-0.282601,0.017434,-0.009625
702,-0.248398,0.017434,0.027769
703,-0.043182,-0.271555,-0.028322
704,0.213338,-0.406417,-0.047018
705,0.469858,-0.676141,0.009072
706,0.657973,-0.637609,-0.009625
707,0.11073,-0.444949,-0.047018
708,-0.128689,-0.502747,-0.065715
709,-0.128689,0.460552,0.027769
710,0.093629,1.231192,0.009072
711,-0.351006,0.80734,-0.009625
712,-0.248398,0.672478,0.027769
713,-0.060283,0.730276,0.083859
714,-0.077385,0.42202,0.102556
715,-0.111587,0.171562,0.139949
716,-0.111587,-0.05963,0.046465
717,-0.094486,-0.290821,-0.028322
718,0.042325,-0.387151,0.027769
719,0.008122,-0.367885,0.046465
720,-0.008979,-0.175226,0.009072
721,-0.008979,-0.310087,-0.028322
722,-0.060283,-0.310087,-0.084412
723,-0.094486,-0.117428,0.009072
724,0.196237,-0.05963,-0.009625
725,0.589568,0.190828,-0.065715
726,0.62377,0.287158,-0.065715
727,-0.14579,0.730276,-0.047018
728,-0.556222,0.768808,0.009072
729,-0.214196,0.190828,-0.047018
730,0.059426,-0.15596,-0.047018
731,-0.060283,-0.117428,0.046465
732,-0.094486,-0.078896,0.009072
733,0.247541,-0.290821,0.009072
734,0.315946,-0.367885,0.027769
735,0.042325,-0.348619,-0.047018
736,0.025223,-0.406417,-0.065715
737,0.213338,-0.348619,-0.065715
738,0.418554,-0.098162,-0.028322
739,0.281743,-0.695407,-0.047018
740,0.025223,-0.984397,-0.047018
741,-0.214196,-0.714673,0.009072
742,-0.351006,-0.599077,-0.028322
743,-0.2655,0.306424,-0.028322
744,-0.299702,0.922936,0.065162
745,-0.385209,0.749542,0.102556
746,-0.197094,0.383488,0.065162
747,0.213338,0.190828,0.009072
748,0.059426,0.364222,-0.084412
749,-0.162891,0.961468,0.046465
750,-0.077385,0.768808,0.065162
751,0.127831,0.633946,0.027769
752,0.025223,0.402754,-0.028322
753,-0.026081,0.441286,0.046465
754,-0.026081,0.248626,-0.009625
755,-0.060283,0.113764,-0.028322
756,-0.026081,0.055966,-0.009625
757,-0.094486,-0.021098,0.009072
758,-0.077385,-0.05963,-0.028322
759,-0.077385,-0.117428,0.046465
760,-0.026081,-0.098162,0.046465
761,-0.043182,-0.175226,-0.009625
762,-0.077385,-0.329353,0.009072
763,-0.008979,-0.290821,0.027769
764,0.162034,-0.329353,-0.009625
765,0.452757,-0.290821,-0.047018
766,0.281743,0.055966,0.027769
767,-0.162891,0.0367,0.009072
768,-0.351006,-0.194492,0.009072
769,-0.40231,0.0367,0.027769
770,0.076527,0.094498,-0.028322
771,0.247541,0.094498,-0.028322
772,0.401453,0.113764,-0.028322
773,-0.060283,0.017434,0.009072
774,-0.094486,-0.175226,0.009072
775,-0.043182,-0.387151,0.065162
776,-0.026081,-0.425683,0.065162
777,0.093629,-0.483481,-0.009625
778,0.076527,-0.387151,-0.047018
779,0.196237,0.113764,-0.028322
780,-0.214196,0.537616,-0.028322
781,-0.282601,0.576148,0.046465
782,-0.008979,0.22936,0.027769
783,0.196237,-0.15596,-0.028322
784,0.36725,-0.233024,-0.028322
785,0.144933,-0.271555,0.009072
786,-0.060283,-0.252289,-0.028322
787,-0.128689,-0.425683,-0.047018
788,-0.316804,-0.406417,-0.028322
789,-0.316804,-0.271555,-0.028322
790,0.042325,0.32569,0.009072
791,0.196237,0.749542,0.027769
792,-0.077385,0.344956,0.083859
793,-0.094486,0.248626,0.065162
794,0.144933,0.248626,-0.009625
795,0.162034,0.113764,-0.065715
796,0.008122,0.075232,-0.065715
797,-0.299702,0.0367,-0.009625
798,-0.060283,-0.136694,0.009072
799,-0.094486,-0.213758,0.009072
800,-0.043182,-0.136694,-0.028322
801,0.025223,-0.425683,0.027769
802,0.384352,-0.329353,0.083859
803,0.418554,-0.310087,0.046465
804,0.127831,-0.483481,-0.047018
805,0.213338,-0.175226,-0.047018
806,0.418554,0.51835,-0.009625
807,0.042325,0.441286,0.009072
808,-0.299702,0.42202,0.027769
809,-0.40231,0.248626,-0.009625
810,-0.316804,0.075232,0.009072
811,-0.111587,-0.136694,0.065162
812,-0.179993,-0.271555,0.065162
813,-0.231297,-0.098162,0.065162
814,0.315946,0.094498,0.046465
815,0.982899,-0.213758,-0.065715
816,0.418554,-0.15596,-0.084412
817,-0.14579,-0.406417,-0.140502
818,-0.316804,-0.252289,-0.047018
819,-0.077385,0.383488,0.027769
820,0.144933,0.075232,-0.009625
821,0.572466,0.190828,-0.009625
822,0.127831,0.344956,0.009072
823,-0.060283,0.42202,0.027769
824,-0.40231,0.22936,0.046465
825,-0.453614,-0.001832,0.046465
826,-0.470716,0.075232,0.009072
827,-0.282601,-0.098162,0.065162
828,-0.179993,-0.194492,0.065162
829,-0.248398,-0.117428,0.046465
830,0.025223,0.017434,0.009072
831,0.828987,0.055966,-0.047018
832,0.880291,0.13303,-0.103109
833,-0.043182,0.094498,-0.103109
834,-0.368108,0.287158,-0.009625
835,-0.179993,0.61468,0.046465
836,-0.385209,0.13303,0.009072
837,-0.316804,-0.078896,0.009072
838,-0.282601,-0.348619,-0.009625
839,-0.162891,-0.271555,-0.009625
840,-0.043182,-0.329353,0.027769
841,0.196237,-0.05963,0.027769
842,0.144933,0.22936,0.009072
843,-0.128689,0.113764,0.009072
844,-0.214196,0.402754,0.046465
845,0.127831,0.094498,-0.009625
846,0.452757,-0.117428,0.027769
847,0.196237,-0.117428,0.046465
848,-0.008979,0.055966,0.046465
849,-0.316804,-0.387151,0.046465
850,-0.060283,-0.772471,0.065162
851,0.008122,-0.945865,0.027769
852,-0.197094,-0.579811,-0.065715
853,-0.197094,0.32569,-0.028322
854,0.144933,1.154128,-0.047018
855,0.315946,0.942202,-0.009625
856,0.298845,0.51835,-0.047018
857,0.042325,0.152296,-0.065715
858,-0.077385,0.267892,-0.065715
859,-0.077385,0.210094,-0.009625
860,-0.197094,0.094498,0.027769
861,-0.214196,0.017434,0.009072
862,-0.094486,-0.040364,0.009072
863,-0.060283,-0.310087,0.046465
864,-0.060283,-0.329353,-0.009625
865,-0.077385,-0.329353,-0.065715
866,-0.060283,-0.348619,-0.009625
867,-0.077385,-0.05963,0.027769
868,-0.162891,0.094498,-0.009625
869,0.127831,0.017434,0.009072
870,0.692176,0.364222,0.009072
871,0.572466,0.32569,-0.028322
872,0.144933,-0.078896,-0.009625
873,-0.419412,-0.05963,0.009072
874,-0.214196,-0.001832,0.009072
875,-0.14579,0.22936,0.046465
876,-0.026081,0.402754,0.046465
877,-0.043182,0.13303,0.009072
878,-0.077385,0.055966,-0.028322
879,-0.043182,0.017434,-0.009625
880,-0.060283,0.0367,0.027769
881,0.144933,0.017434,0.009072
882,0.794784,-0.001832,0.027769
883,0.62377,-0.05963,-0.047018
884,-0.299702,-0.233024,-0.047018
885,-0.470716,-0.252289,0.009072
886,-0.299702,-0.233024,0.046465
887,-0.231297,-0.175226,0.027769
888,-0.128689,-0.021098,0.046465
889,0.11073,0.22936,0.065162
890,0.008122,0.075232,-0.009625
891,-0.128689,0.055966,-0.009625
892,-0.094486,0.0367,-0.028322
893,-0.008979,0.017434,-0.028322
894,-0.008979,0.055966,-0.028322
895,-0.043182,0.055966,0.009072
896,-0.060283,-0.001832,0.009072
897,-0.026081,0.017434,0.027769
898,-0.026081,-0.001832,-0.009625
899,-0.008979,-0.05963,-0.009625
900,-0.026081,-0.078896,-0.028322
901,-0.043182,-0.078896,-0.047018
902,-0.026081,-0.05963,0.009072
903,0.025223,-0.078896,0.027769
904,0.196237,-0.117428,-0.028322
905,0.230439,-0.15596,-0.028322
906,-0.094486,-0.252289,-0.047018
907,-0.248398,-0.310087,-0.028322
908,-0.214196,-0.290821,0.027769
909,-0.026081,-0.329353,0.027769
910,-0.026081,-0.329353,-0.028322
911,-0.026081,0.248626,0.027769
912,0.025223,0.460552,0.027769
913,-0.008979,0.364222,-0.028322
914,0.059426,0.402754,-0.009625
915,-0.077385,0.287158,0.027769
916,0.127831,0.13303,0.046465
917,0.076527,-0.05963,-0.009625
918,-0.111587,-0.136694,-0.009625
919,-0.043182,0.055966,-0.009625
920,-0.026081,0.344956,-0.028322
921,0.008122,0.210094,0.027769
922,0.008122,0.0367,0.027769
923,0.025223,0.017434,0.027769
924,0.008122,-0.021098,0.046465
925,0.008122,0.075232,0.046465
926,-0.008979,0.017434,0.027769
927,-0.008979,-0.098162,-0.009625
928,-0.026081,-0.194492,0.046465
929,0.008122,-0.098162,-0.009625
930,-0.008979,-0.021098,-0.009625
931,-0.008979,0.152296,0.027769
932,0.008122,0.13303,0.009072
933,-0.008979,0.210094,-0.047018
934,0.008122,0.055966,-0.047018
935,0.008122,-0.021098,-0.047018
936,-0.026081,-0.040364,-0.065715
937,0.042325,-0.252289,-0.009625
938,0.093629,-0.329353,-0.047018
939,0.042325,-0.271555,-0.047018
940,-0.128689,-0.175226,-0.047018
941,-0.077385,0.094498,-0.009625
942,-0.026081,0.152296,-0.009625
943,-0.026081,0.017434,0.046465
944,0.042325,-0.175226,0.083859
945,0.127831,-0.117428,0.046465
946,0.059426,0.171562,0.027769
947,-0.094486,0.479818,0.009072
948,-0.026081,0.42202,0.046465
949,0.059426,0.152296,0.046465
950,-0.008979,0.017434,0.027769
951,-0.060283,-0.040364,-0.028322
952,-0.008979,0.017434,-0.009625
953,-0.008979,0.190828,0.027769
954,-0.008979,0.094498,0.027769
955,0.008122,0.0367,-0.028322
956,-0.008979,0.017434,0.027769
957,-0.026081,0.017434,0.046465
958,0.008122,0.017434,0.046465
959,-0.008979,-0.021098,0.027769
960,-0.026081,-0.040364,0.046465
961,-0.026081,-0.021098,0.009072
962,-0.008979,-0.078896,0.027769
963,-0.008979,-0.136694,0.009072
964,0.008122,-0.310087,-0.009625
965,0.025223,-0.310087,-0.084412
966,-0.060283,-0.136694,-0.047018
967,-0.060283,-0.078896,-0.028322
968,-0.094486,-0.021098,-0.028322
969,0.008122,0.0367,0.009072
970,0.11073,0.22936,0.009072
971,0.179135,0.287158,0.009072
972,0.196237,0.306424,0.027769
973,-0.026081,0.113764,0.009072
974,0.076527,-0.05963,0.027769
975,0.059426,-0.021098,-0.028322
976,-0.14579,0.017434,-0.047018
977,-0.094486,0.055966,-0.047018
978,-0.077385,0.171562,-0.028322
979,-0.026081,0.113764,0.009072
980,0.008122,0.075232,0.065162
981,0.008122,0.0367,0.102556
982,0.008122,0.017434,0.102556
983,0.008122,0.017434,0.139949
984,-0.026081,-0.021098,0.083859
985,-0.008979,-0.001832,0.102556
986,-0.008979,-0.001832,0.083859
987,0.025223,-0.001832,0.065162
988,0.042325,-0.001832,-0.009625
989,0.025223,-0.05963,0.009072
990,0.025223,-0.194492,-0.084412
991,0.008122,-0.348619,-0.121806
992,0.008122,-0.329353,-0.084412
993,-0.008979,-0.194492,-0.047018
994,0.042325,0.13303,-0.065715
995,0.11073,0.113764,-0.028322
996,0.11073,0.22936,-0.009625
997,-0.111587,0.094498,-0.028322
998,-0.111587,0.055966,-0.028322
999,-0.060283,-0.040364,-0.009625
1000,-0.043182,-0.15596,0.027769
1001,-0.077385,-0.271555,-0.009625
1002,-0.008979,-0.136694,-0.009625
1003,0.093629,-0.001832,-0.009625
1004,0.179135,0.32569,-0.009625
1005,0.008122,0.364222,0.009072
1006,0.025223,0.32569,0.065162
1007,-0.043182,0.287158,0.009072
1008,-0.008979,0.075232,0.009072
1009,-0.026081,0.017434,0.009072
1010,-0.043182,0.0367,0.009072
1011,-0.008979,-0.040364,0.009072
1012,0.025223,-0.040364,-0.009625
1013,0.025223,0.075232,0.009072
1014,0.008122,0.113764,-0.009625
1015,0.008122,0.075232,0.009072
1016,0.008122,-0.001832,-0.009625
1017,-0.008979,-0.021098,0.027769
1018,-0.008979,-0.021098,0.065162
1019,0.008122,0.017434,0.083859
1020,-0.008979,0.017434,0.027769
1021,0.008122,-0.05963,0.065162
1022,0.008122,-0.078896,0.046465
1023,-0.008979,-0.136694,-0.009625
1024,-0.008979,-0.213758,-0.103109
1025,-0.043182,-0.213758,-0.084412
1026,-0.043182,-0.213758,-0.084412
1027,-0.026081,-0.329353,-0.028322
1028,-0.008979,-0.310087,0.009072
1029,-0.008979,-0.117428,-0.047018
1030,-0.060283,0.171562,0.009072
1031,-0.008979,0.364222,-0.009625
1032,0.059426,0.61468,-0.009625
1033,0.059426,0.383488,-0.009625
1034,0.025223,0.13303,0.027769
1035,0.008122,-0.001832,0.046465
1036,-0.008979,-0.078896,0.083859
1037,0.008122,-0.001832,0.139949
1038,0.008122,0.152296,0.158646
1039,0.008122,0.094498,0.158646
1040,-0.008979,0.017434,0.196039
1041,-0.026081,-0.001832,0.214736
1042,-0.026081,-0.001832,0.177343
1043,0.008122,-0.021098,0.121252
1044,-0.026081,-0.001832,0.027769
1045,-0.026081,0.017434,-0.103109
1046,-0.008979,-0.001832,-0.177896
1047,0.008122,-0.001832,-0.177896
1048,0.008122,-0.078896,-0.159199
1049,0.042325,-0.136694,-0.196593
1050,0.042325,-0.271555,-0.140502
1051,0.025223,-0.194492,-0.065715
1052,0.008122,-0.078896,-0.009625
1053,-0.008979,0.055966,-0.028322
1054,0.008122,0.364222,0.009072
1055,-0.008979,0.190828,0.009072
1056,0.025223,0.113764,-0.028322
1057,0.008122,0.075232,-0.028322
1058,0.008122,-0.001832,-0.065715
1059,-0.026081,-0.117428,-0.084412
1060,-0.026081,-0.194492,-0.065715
1061,-0.008979,-0.175226,-0.009625
1062,-0.043182,-0.213758,-0.028322
1063,-0.026081,-0.136694,0.027769
1064,-0.008979,0.190828,0.046465
1065,0.008122,0.267892,0.027769
1066,0.042325,0.287158,0.046465
1067,0.025223,0.267892,0.046465
1068,-0.008979,0.13303,0.065162
1069,0.008122,0.017434,0.027769
1070,0.008122,-0.021098,0.009072
1071,0.008122,-0.021098,0.009072
1072,-0.026081,-0.021098,0.009072
1073,-0.094486,0.017434,0.009072
1074,-0.077385,0.0367,0.009072
1075,-0.077385,-0.05963,-0.028322
1076,0.042325,-0.15596,0.009072
1077,0.144933,-0.233024,0.009072
1078,0.025223,-0.117428,-0.028322
1079,0.008122,0.0367,0.009072
1080,0.042325,0.190828,0.065162
1081,0.042325,0.287158,0.065162
1082,0.025223,0.094498,0.102556
1083,0.042325,-0.021098,0.065162
1084,-0.008979,-0.098162,0.065162
1085,-0.026081,-0.213758,0.065162
1086,-0.008979,-0.329353,0.046465
1087,-0.060283,-0.464215,-0.047018
1088,-0.060283,-0.329353,-0.103109
1089,0.008122,-0.021098,-0.065715
1090,-0.008979,0.248626,-0.084412
1091,0.025223,0.479818,-0.065715
1092,0.093629,0.556882,0.009072
1093,0.025223,0.287158,0.027769
1094,0.008122,0.094498,0.046465
1095,-0.008979,0.055966,0.102556
1096,0.025223,0.171562,0.121252
1097,-0.008979,0.0367,0.139949
1098,0.008122,-0.001832,0.139949
1099,-0.008979,0.0367,0.121252
1100,-0.008979,-0.021098,0.046465
1101,0.008122,-0.021098,0.027769
1102,-0.008979,-0.021098,0.009072
1103,0.008122,-0.040364,-0.009625
1104,-0.008979,-0.05963,-0.084412
1105,-0.008979,-0.078896,-0.121806
1106,-0.026081,-0.098162,-0.140502
1107,0.025223,-0.021098,-0.103109
1108,0.008122,0.0367,-0.121806
1109,0.008122,-0.098162,-0.065715
1110,0.008122,-0.117428,-0.028322
1111,-0.008979,-0.233024,0.009072
1112,-0.008979,-0.194492,-0.009625
1113,-0.026081,-0.05963,-0.028322
1114,-0.043182,-0.001832,0.065162
1115,-0.008979,0.075232,0.083859
1116,-0.008979,0.13303,0.046465
1117,0.025223,0.248626,0.046465
1118,0.025223,0.190828,0.027769
1119,-0.008979,0.094498,-0.009625
1120,-0.008979,0.075232,0.009072
1121,-0.008979,0.171562,0.046465
1122,0.008122,0.13303,0.083859
1123,0.008122,0.055966,0.046465
1124,-0.008979,-0.001832,0.102556
1125,0.008122,-0.001832,0.065162
1126,-0.008979,-0.040364,0.102556
1127,0.008122,-0.001832,0.214736
1128,-0.008979,0.017434,0.289523
1129,-0.008979,0.0367,0.233433
1130,0.008122,0.017434,0.083859
1131,-0.008979,0.017434,0.027769
1132,0.008122,0.0367,0.046465
1133,-0.008979,-0.021098,-0.065715
1134,0.008122,-0.040364,-0.159199
1135,-0.008979,-0.040364,-0.346167
1136,0.008122,-0.098162,-0.32747
1137,0.008122,-0.15596,-0.233986
1138,0.025223,-0.175226,-0.177896
1139,0.008122,-0.136694,-0.140502
1140,0.008122,-0.078896,-0.140502
1141,-0.008979,-0.021098,-0.103109
1142,0.008122,0.113764,-0.084412
1143,-0.008979,0.13303,-0.084412
1144,0.008122,0.113764,-0.009625
1145,0.025223,0.094498,0.102556
1146,0.042325,0.055966,0.158646
1147,0.008122,0.017434,0.214736
1148,0.008122,0.017434,0.139949
1149,0.025223,-0.001832,0.177343
1150,0.025223,-0.021098,0.177343
1151,0.008122,-0.001832,0.102556
1152,0.025223,0.094498,-0.047018
1153,0.008122,-0.021098,-0.140502
1154,0.008122,-0.194492,-0.159199
1155,-0.026081,-0.271555,-0.084412
1156,-0.060283,-0.367885,-0.047018
1157,-0.026081,-0.194492,-0.084412
1158,-0.026081,-0.136694,-0.140502
1159,-0.008979,-0.117428,-0.121806
1160,-0.043182,-0.098162,-0.084412
1161,-0.008979,-0.136694,-0.084412
1162,0.025223,0.287158,-0.047018
1163,0.042325,0.576148,0.046465
1164,0.025223,0.460552,-0.009625
1165,0.008122,0.113764,-0.028322
1166,-0.008979,-0.05963,0.009072
1167,0.008122,-0.001832,0.009072
1168,0.008122,-0.078896,0.009072
1169,0.008122,-0.001832,0.046465
1170,0.025223,0.13303,0.046465
1171,0.059426,0.364222,0.046465
1172,0.042325,0.306424,0.065162
1173,0.042325,0.171562,0.046465
1174,-0.008979,0.017434,-0.009625
1175,0.008122,0.017434,-0.009625
1176,-0.026081,-0.001832,0.009072
1177,-0.008979,-0.05963,0.009072
1178,0.008122,-0.136694,0.027769
1179,-0.008979,-0.05963,0.065162
1180,-0.008979,-0.117428,0.046465
1181,-0.026081,-0.213758,0.065162
1182,-0.026081,-0.213758,0.046465
1183,-0.008979,-0.213758,-0.047018
1184,-0.043182,-0.15596,-0.047018
1185,-0.026081,-0.001832,-0.047018
1186,-0.008979,0.171562,-0.047018
1187,0.025223,0.306424,-0.047018
1188,0.042325,0.248626,-0.009625
1189,-0.008979,0.055966,-0.028322
1190,0.008122,-0.001832,-0.047018
1191,0.042325,0.0367,-0.009625
1192,0.008122,0.0367,0.009072
1193,-0.026081,-0.040364,-0.028322
1194,-0.026081,0.075232,0.065162
1195,-0.008979,0.094498,0.083859
1196,0.025223,0.13303,0.083859
1197,0.025223,0.0367,0.065162
1198,0.008122,-0.021098,0.083859
1199,-0.008979,-0.021098,0.083859
1200,-0.008979,-0.117428,0.046465
1201,0.008122,-0.078896,0.027769
1202,-0.026081,0.017434,-0.028322
1203,-0.026081,0.094498,0.009072
1204,-0.008979,0.017434,0.121252
1205,-0.008979,-0.021098,0.139949
1206,-0.008979,-0.05963,0.083859
1207,-0.008979,-0.040364,0.027769
1208,-0.008979,-0.040364,0.009072
1209,0.008122,-0.021098,-0.028322
1210,-0.026081,0.0367,-0.047018
1211,-0.008979,0.113764,-0.084412
1212,0.008122,0.075232,-0.084412
1213,0.008122,-0.001832,-0.047018
1214,0.025223,-0.001832,0.009072
1215,0.025223,-0.001832,0.009072
1216,0.008122,-0.040364,-0.009625
1217,-0.008979,-0.040364,-0.028322
1218,-0.026081,-0.078896,-0.009625
1219,-0.008979,-0.05963,-0.028322
1220,-0.008979,-0.05963,-0.028322
1221,-0.008979,-0.078896,-0.009625
1222,0.008122,-0.040364,0.027769
1223,0.008122,0.075232,0.046465
1224,0.025223,0.113764,-0.009625
1225,0.025223,0.075232,-0.103109
1226,-0.026081,0.075232,-0.047018
1227,0.008122,0.075232,-0.084412
1228,0.025223,0.055966,-0.140502
1229,0.008122,0.0367,-0.009625
1230,-0.008979,0.017434,0.009072
1231,-0.008979,-0.040364,0.027769
1232,-0.026081,-0.040364,0.083859
1233,-0.008979,-0.040364,0.102556
1234,-0.008979,-0.021098,0.121252
1235,-0.008979,-0.021098,0.046465
1236,0.008122,-0.040364,0.027769
1237,0.008122,-0.078896,0.027769
1238,0.008122,-0.175226,-0.009625
1239,-0.026081,-0.522013,-0.121806
1240,-0.043182,-0.560545,-0.177896
1241,-0.026081,-0.502747,-0.177896
1242,-0.060283,-0.310087,-0.121806
1243,-0.043182,0.210094,-0.028322
1244,0.025223,0.672478,0.065162
1245,0.076527,0.768808,0.102556
1246,0.042325,0.364222,0.102556
1247,0.042325,-0.001832,0.027769
1248,0.025223,0.0367,0.027769
1249,0.025223,0.152296,0.083859
1250,0.042325,0.210094,0.139949
1251,0.025223,0.248626,0.083859
1252,0.025223,0.364222,0.102556
1253,0.025223,0.22936,0.065162
1254,0.008122,0.055966,-0.009625
1255,-0.008979,-0.021098,-0.065715
1256,-0.008979,-0.117428,0.027769
1257,0.008122,-0.05963,0.027769
1258,-0.008979,-0.05963,0.027769
1259,-0.026081,-0.001832,0.009072
1260,-0.008979,0.152296,0.009072
1261,0.008122,0.075232,0.009072
1262,0.008122,0.0367,-0.009625
1263,-0.026081,-0.05963,-0.047018
1264,-0.043182,-0.05963,-0.103109
1265,-0.043182,-0.040364,-0.103109
1266,-0.008979,-0.117428,-0.084412
1267,0.008122,-0.05963,-0.065715
1268,-0.008979,-0.136694,-0.028322
1269,0.008122,-0.136694,-0.047018
1270,0.008122,-0.001832,-0.028322
1271,0.008122,0.055966,0.027769
1272,0.008122,-0.021098,-0.009625
1273,0.008122,0.094498,-0.084412
1274,0.008122,0.152296,-0.009625
1275,0.008122,0.094498,0.121252
1276,-0.008979,0.017434,0.083859
1277,-0.026081,-0.021098,0.065162
1278,-0.008979,-0.021098,0.065162
1279,-0.008979,-0.021098,0.046465
1280,0.008122,-0.098162,0.027769
1281,0.008122,-0.117428,-0.028322
1282,-0.008979,-0.078896,-0.159199
1283,-0.043182,-0.021098,-0.196593
1284,-0.008979,-0.001832,-0.196593
1285,0.025223,0.055966,-0.065715
1286,0.042325,0.094498,-0.047018
1287,-0.008979,0.017434,-0.009625
1288,0.008122,-0.021098,-0.009625
1289,-0.008979,0.075232,0.009072
1290,0.008122,0.075232,0.046465
1291,0.008122,-0.001832,0.102556
1292,-0.008979,-0.021098,0.083859
1293,-0.008979,-0.136694,0.121252
1294,-0.008979,-0.15596,0.083859
1295,0.008122,-0.098162,0.046465
1296,0.008122,-0.078896,-0.009625
1297,0.025223,0.094498,0.027769
1298,0.008122,0.13303,0.009072
1299,0.008122,0.190828,0.009072
1300,0.008122,0.113764,0.009072
1301,0.008122,0.055966,0.027769
1302,0.008122,-0.001832,0.046465
1303,0.025223,0.0367,0.083859
1304,0.008122,0.017434,0.046465
1305,-0.008979,0.017434,-0.009625
1306,-0.008979,0.0367,0.083859
1307,0.025223,-0.001832,0.102556
1308,0.025223,0.017434,0.046465
1309,0.008122,-0.021098,0.009072
1310,0.008122,-0.05963,0.046465
1311,0.008122,-0.098162,-0.009625
1312,-0.008979,-0.175226,-0.047018
1313,-0.008979,-0.15596,-0.084412
1314,-0.008979,-0.098162,-0.065715
1315,-0.008979,-0.021098,-0.047018
1316,-0.043182,0.017434,-0.009625
1317,-0.026081,0.094498,-0.028322
1318,0.008122,0.152296,-0.047018
1319,0.025223,0.13303,-0.047018
1320,0.008122,0.094498,-0.065715
1321,0.008122,0.017434,-0.028322
1322,0.008122,-0.001832,0.027769
1323,0.008122,-0.001832,0.027769
1324,0.025223,-0.001832,-0.047018
1325,0.008122,-0.001832,0.046465
1326,0.008122,0.094498,0.139949
1327,0.008122,0.075232,0.121252
1328,-0.008979,-0.001832,0.027769
1329,-0.026081,-0.001832,0.046465
1330,-0.026081,-0.05963,0.009072
1331,-0.026081,-0.15596,-0.084412
1332,-0.008979,-0.213758,-0.047018
1333,0.008122,-0.213758,-0.084412
1334,-0.008979,-0.213758,-0.084412
1335,-0.026081,-0.136694,-0.065715
1336,-0.043182,-0.040364,-0.028322
1337,0.008122,0.055966,-0.065715
1338,0.059426,0.075232,-0.028322
1339,0.042325,-0.001832,-0.028322
1340,-0.008979,-0.001832,-0.028322
1341,-0.008979,0.171562,-0.009625
1342,-0.008979,0.210094,0.027769
1343,0.025223,0.152296,-0.028322
1344,-0.008979,0.22936,-0.047018
1345,0.025223,0.287158,0.009072
1346,0.025223,0.190828,0.046465
1347,0.008122,-0.001832,0.139949
1348,0.008122,-0.15596,0.121252
1349,0.008122,-0.213758,0.083859
1350,-0.026081,-0.194492,0.046465
1351,0.008122,-0.078896,0.009072
1352,-0.008979,0.017434,-0.084412
1353,0.025223,0.190828,-0.084412
1354,0.008122,0.152296,-0.047018
1355,-0.026081,-0.040364,-0.084412
1356,-0.026081,-0.05963,-0.121806
1357,-0.008979,0.017434,-0.047018
1358,-0.008979,0.190828,0.065162
1359,0.008122,0.248626,0.102556
1360,0.025223,0.190828,0.102556
1361,0.025223,0.113764,0.046465
1362,0.025223,0.075232,0.027769
1363,-0.008979,0.017434,0.009072
1364,-0.026081,-0.001832,0.102556
1365,-0.008979,-0.001832,0.102556
1366,0.008122,0.017434,0.102556
1367,0.008122,-0.001832,0.121252
1368,0.008122,-0.001832,0.046465
1369,0.025223,-0.001832,0.009072
1370,-0.026081,0.0367,-0.084412
1371,0.008122,0.0367,-0.084412
1372,-0.008979,0.017434,-0.084412
1373,0.008122,0.017434,-0.065715
1374,0.008122,-0.05963,-0.065715
1375,0.008122,-0.05963,-0.009625
1376,0.025223,-0.040364,-0.047018
1377,0.008122,-0.040364,-0.047018
1378,-0.008979,-0.021098,-0.028322
1379,-0.008979,-0.021098,-0.047018
1380,-0.026081,-0.021098,-0.084412
1381,-0.008979,-0.001832,-0.103109
1382,-0.008979,-0.021098,-0.047018
1383,-0.008979,-0.040364,0.009072
1384,-0.008979,-0.021098,0.046465
1385,-0.008979,-0.040364,0.065162
1386,0.008122,-0.021098,0.102556
1387,0.025223,-0.021098,0.102556
1388,-0.008979,-0.021098,0.027769
1389,0.008122,0.0367,0.027769
1390,0.025223,0.017434,-0.047018
1391,0.008122,-0.001832,-0.047018
1392,0.008122,-0.001832,0.065162
1393,-0.026081,-0.001832,0.102556
1394,-0.008979,-0.001832,0.083859
1395,-0.008979,-0.001832,0.046465
1396,0.008122,-0.001832,0.046465
1397,-0.008979,-0.001832,-0.028322
1398,0.025223,-0.021098,-0.084412
1399,-0.026081,-0.001832,-0.065715
1400,0.008122,-0.001832,-0.084412
1401,-0.008979,-0.021098,-0.140502
1402,0.008122,-0.021098,-0.028322
1403,0.008122,-0.001832,-0.009625
1404,0.025223,0.055966,0.027769
1405,0.025223,0.017434,0.046465
1406,0.025223,-0.040364,0.065162
1407,-0.008979,-0.136694,0.009072
1408,-0.026081,-0.252289,-0.047018
1409,-0.026081,-0.213758,-0.065715
1410,-0.008979,-0.15596,-0.084412
1411,-0.008979,-0.040364,-0.103109
1412,-0.026081,0.113764,-0.047018
1413,-0.026081,0.210094,-0.084412
1414,-0.008979,0.248626,-0.047018
1415,0.042325,0.210094,-0.028322
1416,0.008122,0.094498,-0.009625
1417,0.025223,0.113764,0.009072
1418,0.008122,0.055966,0.027769
1419,0.008122,-0.021098,0.027769
1420,-0.008979,-0.117428,0.046465
1421,0.008122,-0.194492,0.065162
1422,-0.008979,-0.175226,0.046465
1423,-0.026081,-0.040364,-0.009625
1424,-0.043182,0.017434,-0.028322
1425,-0.043182,0.094498,0.027769
1426,0.008122,0.190828,0.027769
1427,0.042325,0.287158,0.065162
1428,0.025223,0.210094,0.027769
1429,0.025223,0.094498,0.083859
1430,0.008122,0.0367,0.121252
1431,0.025223,0.094498,0.121252
1432,0.008122,0.055966,0.027769
1433,0.025223,-0.001832,-0.103109
1434,0.008122,-0.021098,-0.084412
1435,0.008122,-0.001832,-0.084412
1436,0.008122,-0.001832,-0.047018
1437,0.008122,-0.05963,0.065162
1438,-0.008979,-0.117428,0.158646
1439,-0.008979,-0.098162,0.139949
1440,-0.026081,-0.040364,0.139949
1441,0.025223,-0.021098,0.158646
1442,-0.026081,0.0367,0.046465
1443,0.008122,0.094498,-0.047018
1444,0.008122,0.113764,-0.065715
1445,-0.008979,0.075232,-0.121806
1446,-0.026081,-0.021098,-0.103109
1447,-0.026081,-0.05963,-0.028322
1448,0.008122,-0.001832,-0.009625
1449,0.008122,-0.021098,-0.047018
1450,0.008122,-0.040364,-0.047018
1451,0.008122,0.0367,-0.065715
1452,0.025223,0.055966,-0.177896
1453,0.008122,-0.001832,-0.103109
1454,0.008122,-0.001832,-0.009625
1455,0.025223,-0.021098,0.046465
1456,0.008122,-0.001832,0.177343
1457,0.008122,-0.001832,0.25213
1458,-0.008979,-0.040364,0.196039
1459,0.008122,-0.001832,0.158646
1460,-0.008979,-0.001832,0.046465
1461,0.025223,0.0367,-0.065715
1462,0.025223,0.017434,-0.140502
1463,0.008122,0.0367,-0.103109
1464,-0.008979,-0.001832,-0.084412
1465,-0.026081,-0.021098,-0.047018
1466,-0.026081,-0.021098,-0.028322
1467,-0.008979,-0.021098,-0.028322
1468,-0.008979,-0.021098,-0.009625
1469,0.008122,-0.040364,-0.009625
1470,-0.008979,-0.05963,0.046465
1471,-0.008979,-0.05963,0.065162
1472,-0.008979,-0.078896,0.083859
1473,-0.008979,-0.040364,0.083859
1474,0.008122,0.0367,0.121252
1475,0.008122,0.055966,0.121252
1476,-0.008979,0.017434,0.009072
1477,0.008122,0.0367,-0.121806
1478,0.025223,0.075232,-0.140502
1479,0.008122,0.017434,-0.121806
1480,-0.008979,0.0367,-0.009625
1481,0.008122,0.0367,-0.047018
1482,0.008122,-0.021098,-0.028322
1483,-0.008979,-0.001832,0.009072
1484,0.008122,-0.001832,-0.009625
1485,0.008122,-0.021098,-0.084412
1486,-0.008979,-0.001832,-0.009625
1487,0.008122,-0.001832,-0.009625
1488,-0.026081,-0.021098,0.027769
1489,0.008122,-0.001832,0.046465
1490,0.008122,-0.001832,0.046465
1491,-0.008979,-0.040364,-0.009625
1492,-0.008979,-0.136694,-0.009625
1493,-0.026081,-0.117428,-0.028322
1494,-0.026081,-0.098162,-0.028322
1495,-0.026081,-0.136694,-0.028322
1496,-0.043182,-0.078896,-0.028322
1497,-0.008979,-0.001832,-0.047018
1498,-0.008979,0.017434,-0.028322
1499,-0.008979,-0.001832,0.009072
1500,0.008122,-0.098162,-0.028322
1501,0.008122,-0.194492,-0.028322
1502,-0.008979,-0.194492,-0.009625
1503,0.008122,-0.001832,-0.009625
1504,0.042325,0.075232,-0.009625
1505,0.025223,0.152296,0.046465
1506,0.025223,0.171562,0.065162
1507,0.042325,0.32569,0.102556
1508,0.008122,0.287158,0.046465
1509,0.008122,0.171562,0.102556
1510,0.008122,0.13303,0.065162
1511,0.025223,0.075232,0.046465
1512,-0.008979,-0.117428,-0.028322
1513,-0.043182,-0.233024,-0.121806
1514,0.008122,-0.098162,-0.009625
1515,0.025223,0.113764,0.046465
1516,0.025223,0.190828,-0.028322
1517,0.025223,0.152296,-0.047018
1518,0.025223,0.171562,-0.009625
1519,0.008122,0.267892,-0.028322
1520,0.042325,0.171562,-0.028322
1521,0.025223,0.075232,-0.028322
1522,0.008122,0.055966,-0.028322
1523,-0.008979,0.0367,-0.047018
1524,-0.008979,0.0367,-0.009625
1525,-0.008979,0.0367,0.083859
1526,-0.008979,-0.001832,0.102556
1527,0.008122,-0.040364,0.046465
1528,-0.008979,-0.040364,0.065162
1529,0.025223,-0.05963,0.139949
1530,-0.008979,-0.040364,0.102556
1531,0.008122,-0.021098,0.065162
1532,0.008122,-0.05963,0.027769
1533,0.008122,-0.021098,-0.047018
1534,-0.008979,-0.021098,-0.065715
1535,0.025223,0.055966,-0.047018
1536,0.008122,0.017434,-0.065715
1537,0.025223,-0.001832,-0.103109
1538,-0.008979,-0.040364,-0.084412
1539,-0.026081,-0.040364,0.009072
1540,-0.008979,-0.078896,0.027769
1541,-0.008979,-0.040364,-0.009625
1542,-0.008979,-0.05963,-0.084412
1543,-0.008979,-0.040364,-0.140502
1544,-0.026081,-0.040364,-0.121806
1545,-0.008979,-0.001832,-0.047018
1546,-0.008979,0.0367,-0.009625
1547,-0.008979,0.0367,0.065162
1548,0.025223,-0.021098,0.083859
1549,0.008122,-0.001832,0.027769
1550,-0.008979,-0.040364,0.046465
1551,0.008122,-0.001832,0.083859
1552,-0.008979,-0.021098,0.083859
1553,-0.008979,-0.040364,0.009072
1554,-0.008979,-0.021098,-0.084412
1555,-0.008979,-0.021098,-0.047018
1556,-0.008979,-0.001832,-0.009625
1557,-0.008979,-0.001832,0.046465
1558,0.008122,-0.001832,0.102556
1559,0.008122,0.0367,-0.028322
1560,0.008122,0.0367,-0.065715
1561,0.025223,0.055966,-0.084412
1562,0.025223,-0.001832,-0.047018
1563,-0.008979,0.017434,0.027769
1564,0.008122,-0.001832,0.046465
1565,0.008122,0.017434,0.009072
1566,0.008122,0.017434,0.083859
1567,0.008122,-0.001832,0.009072
1568,0.008122,-0.021098,-0.028322
1569,-0.008979,0.017434,-0.009625
1570,-0.026081,-0.040364,0.046465
1571,-0.026081,-0.05963,0.046465
1572,0.008122,-0.040364,0.121252
1573,-0.008979,-0.021098,0.121252
1574,-0.008979,-0.05963,0.046465
1575,-0.026081,-0.05963,0.027769
1576,0.008122,-0.001832,0.009072
1577,0.025223,0.0367,-0.009625
1578,0.008122,-0.001832,-0.103109
1579,-0.026081,-0.040364,-0.028322
1580,-0.008979,-0.078896,-0.028322
1581,-0.008979,-0.05963,-0.028322
1582,-0.008979,-0.078896,-0.065715
1583,0.008122,-0.078896,-0.065715
1584,0.042325,-0.05963,-0.084412
1585,0.008122,-0.15596,-0.009625
1586,0.008122,-0.040364,0.027769
1587,0.025223,0.171562,0.046465
1588,0.042325,0.190828,0.083859
1589,-0.008979,0.171562,0.065162
1590,-0.026081,0.017434,0.009072
1591,0.025223,-0.001832,-0.009625
1592,0.042325,0.017434,-0.047018
1593,-0.008979,-0.175226,-0.009625
1594,-0.026081,-0.233024,-0.065715
1595,-0.094486,-0.117428,-0.121806
1596,-0.008979,0.13303,-0.065715
1597,0.008122,0.42202,-0.047018
1598,0.059426,0.499084,-0.009625
1599,0.059426,0.383488,0.027769
1600,0.042325,0.248626,0.027769
1601,0.025223,0.113764,0.046465
1602,0.008122,0.113764,0.083859
1603,-0.008979,0.017434,0.046465
1604,-0.008979,0.0367,0.027769
1605,-0.008979,0.017434,0.027769
1606,-0.008979,-0.040364,0.009072
1607,0.008122,-0.021098,-0.047018
1608,-0.008979,-0.021098,0.027769
1609,0.008122,-0.001832,0.121252
1610,-0.008979,-0.001832,0.102556
1611,-0.008979,-0.078896,0.102556
1612,-0.026081,-0.098162,0.083859
1613,0.008122,-0.05963,-0.009625
1614,0.008122,-0.040364,-0.177896
1615,-0.008979,-0.040364,-0.121806
1616,-0.026081,-0.001832,-0.065715
1617,0.008122,0.017434,-0.065715
1618,-0.008979,0.0367,0.009072
1619,0.008122,0.0367,-0.028322
1620,-0.026081,-0.040364,-0.047018
1621,-0.026081,-0.05963,-0.047018
1622,0.008122,-0.040364,-0.028322
1623,0.008122,-0.040364,-0.047018
1624,-0.008979,-0.021098,0.009072
1625,-0.008979,-0.040364,0.065162
1626,0.008122,-0.001832,0.121252
1627,-0.008979,-0.040364,0.139949
1628,0.008122,-0.021098,0.065162
1629,0.008122,-0.021098,0.027769
1630,0.008122,-0.040364,0.009072
1631,0.008122,-0.001832,-0.028322
1632,0.008122,0.0367,-0.084412
1633,0.025223,-0.001832,-0.028322
1634,0.008122,-0.001832,-0.009625
1635,-0.008979,0.017434,-0.065715
1636,-0.026081,-0.040364,-0.047018
1637,-0.008979,-0.001832,0.065162
1638,0.008122,-0.001832,0.065162
1639,0.008122,0.055966,0.009072
1640,0.042325,0.075232,-0.047018
1641,0.008122,0.017434,-0.009625
1642,-0.008979,-0.021098,-0.065715
1643,-0.008979,-0.021098,-0.009625
1644,-0.026081,0.017434,0.121252
1645,-0.008979,-0.021098,0.046465
1646,-0.008979,-0.001832,0.009072
1647,0.008122,-0.001832,0.027769
1648,-0.008979,-0.040364,0.027769
1649,-0.008979,-0.040364,0.009072
1650,0.008122,-0.040364,-0.047018
1651,0.008122,-0.021098,-0.047018
1652,0.025223,-0.001832,-0.065715
1653,0.008122,0.017434,-0.009625
1654,0.008122,0.017434,-0.047018
1655,0.008122,-0.021098,-0.009625
1656,0.008122,-0.05963,0.009072
1657,0.008122,-0.021098,-0.009625
1658,0.025223,-0.001832,0.009072
1659,0.025223,-0.001832,0.065162
1660,0.008122,-0.021098,0.083859
1661,0.008122,-0.001832,0.065162
1662,0.008122,-0.021098,0.027769
1663,-0.008979,-0.05963,-0.009625
1664,-0.008979,-0.078896,0.027769
1665,-0.008979,-0.05963,-0.009625
1666,0.008122,-0.001832,-0.065715
1667,0.008122,0.094498,-0.084412
1668,0.008122,0.13303,0.009072
1669,0.008122,0.094498,0.009072
1670,-0.008979,-0.021098,-0.047018
1671,0.008122,-0.001832,-0.047018
1672,0.025223,-0.001832,0.027769
1673,0.008122,-0.05963,0.009072
1674,0.008122,-0.136694,-0.009625
1675,-0.043182,-0.117428,-0.028322
1676,-0.026081,-0.021098,-0.047018
1677,0.025223,0.0367,-0.028322
1678,0.025223,0.0367,-0.028322
1679,0.008122,-0.05963,-0.009625
1680,-0.008979,-0.175226,0.009072
1681,-0.026081,-0.310087,-0.009625
1682,-0.060283,-0.310087,-0.009625
1683,-0.026081,-0.194492,0.102556
1684,-0.008979,-0.175226,0.009072
1685,-0.008979,-0.021098,0.027769
1686,0.042325,0.287158,0.027769
1687,0.042325,0.402754,0.027769
1688,0.042325,0.479818,-0.028322
1689,0.042325,0.460552,-0.028322
1690,0.042325,0.441286,-0.028322
1691,0.025223,0.42202,-0.009625
1692,0.042325,0.190828,0.027769
1693,0.025223,0.0367,0.027769
1694,0.025223,0.055966,0.009072
1695,0.008122,0.017434,0.027769
1696,-0.008979,-0.001832,0.027769
1697,0.008122,-0.021098,0.009072
1698,0.025223,-0.001832,0.046465
1699,-0.008979,-0.021098,-0.009625
1700,0.008122,-0.001832,0.009072
1701,-0.008979,-0.040364,-0.009625
1702,0.008122,-0.021098,0.027769
1703,0.008122,-0.001832,0.009072
1704,0.025223,-0.021098,0.009072
1705,-0.008979,0.017434,0.046465
1706,0.025223,-0.021098,0.009072
1707,-0.008979,-0.040364,-0.028322
1708,-0.008979,-0.040364,-0.028322
1709,-0.008979,-0.078896,-0.028322
1710,-0.008979,-0.05963,-0.028322
1711,-0.008979,-0.05963,-0.009625
1712,0.008122,-0.05963,0.027769
1713,-0.008979,-0.021098,0.009072
1714,0.008122,-0.05963,0.065162
1715,0.008122,-0.040364,0.158646
1716,-0.008979,-0.05963,0.158646
1717,0.008122,-0.040364,0.139949
1718,0.008122,-0.040364,0.139949
1719,0.008122,-0.05963,0.027769
1720,0.008122,-0.021098,-0.028322
1721,0.025223,-0.040364,-0.084412
1722,0.008122,-0.001832,-0.103109
1723,-0.008979,-0.021098,-0.196593
1724,-0.008979,-0.040364,-0.121806
1725,0.025223,0.0367,-0.028322
1726,-0.008979,-0.001832,0.046465
1727,-0.026081,-0.021098,0.121252
1728,-0.008979,0.017434,0.065162
1729,0.008122,0.017434,-0.084412
1730,0.008122,0.055966,-0.065715
1731,-0.008979,-0.001832,-0.028322
1732,-0.008979,-0.021098,-0.047018
1733,-0.008979,-0.040364,0.009072
1734,0.008122,-0.001832,-0.009625
1735,-0.008979,0.017434,-0.009625
1736,-0.008979,0.017434,-0.047018
1737,0.025223,-0.001832,-0.065715
1738,0.008122,-0.021098,-0.084412
1739,0.008122,-0.001832,-0.065715
1740,0.025223,-0.040364,-0.047018
1741,0.008122,-0.021098,0.009072
1742,0.008122,-0.001832,0.046465
1743,-0.026081,-0.040364,0.065162
1744,-0.026081,-0.021098,0.065162
1745,0.008122,-0.001832,-0.009625
1746,-0.026081,0.017434,0.009072
1747,-0.008979,0.017434,0.027769
1748,0.008122,0.017434,-0.009625
1749,0.008122,0.017434,-0.028322
1750,0.008122,0.017434,0.027769
1751,-0.008979,-0.001832,0.027769
1752,-0.008979,-0.021098,0.027769
1753,0.008122,-0.021098,0.065162
1754,0.025223,-0.001832,0.027769
1755,0.008122,-0.040364,0.009072
1756,0.025223,-0.098162,0.027769
1757,0.008122,-0.098162,0.009072
1758,-0.008979,-0.05963,-0.009625
1759,-0.008979,-0.078896,-0.028322
1760,-0.026081,-0.136694,-0.028322
1761,-0.026081,-0.078896,-0.047018
1762,0.008122,-0.001832,-0.009625
1763,-0.026081,0.113764,0.009072
1764,0.008122,0.152296,-0.009625
1765,0.025223,0.094498,-0.009625
1766,-0.008979,0.0367,0.027769
1767,0.042325,0.094498,-0.028322
1768,0.042325,0.094498,0.009072
1769,0.025223,0.055966,0.046465
1770,-0.026081,0.017434,0.009072
1771,-0.060283,0.075232,-0.009625
1772,-0.008979,0.13303,0.009072
1773,0.025223,0.094498,-0.047018
1774,0.025223,-0.021098,-0.028322
1775,0.025223,-0.136694,-0.009625
1776,0.008122,-0.117428,0.065162
1777,0.008122,-0.05963,0.046465
1778,-0.008979,-0.001832,0.065162
1779,-0.008979,-0.040364,0.027769
1780,-0.008979,-0.021098,0.009072
1781,0.008122,0.0367,-0.028322
1782,0.025223,-0.001832,-0.065715
1783,-0.008979,0.0367,-0.065715
1784,-0.008979,0.055966,-0.047018
1785,0.008122,0.113764,-0.047018
1786,-0.008979,0.171562,-0.047018
1787,0.008122,0.152296,0.009072
1788,-0.008979,0.094498,0.046465
1789,0.025223,0.094498,0.046465
1790,-0.008979,0.055966,0.046465
1791,0.025223,0.094498,0.083859
1792,-0.008979,0.017434,0.027769
1793,0.008122,-0.001832,-0.009625
1794,-0.008979,-0.001832,-0.009625
1795,0.008122,-0.001832,0.027769
1796,-0.008979,-0.001832,-0.009625
1797,0.008122,-0.040364,0.009072
1798,0.008122,-0.001832,0.046465
1799,0.008122,-0.001832,-0.028322
1800,-0.008979,-0.001832,-0.028322
1801,0.025223,-0.021098,-0.028322
1802,0.008122,-0.021098,-0.009625
1803,0.008122,-0.001832,-0.009625
1804,0.008122,-0.021098,0.046465
1805,-0.026081,-0.040364,0.046465
1806,0.008122,-0.021098,0.046465
1807,0.008122,-0.040364,0.046465
1808,-0.008979,0.017434,0.027769
1809,-0.026081,-0.001832,-0.009625
1810,-0.008979,-0.021098,0.046465
1811,-0.008979,-0.001832,0.083859
1812,-0.008979,-0.040364,0.027769
1813,0.008122,-0.021098,-0.047018
1814,-0.008979,-0.021098,-0.065715
1815,0.008122,-0.001832,-0.065715
1816,0.008122,-0.021098,-0.103109
1817,0.008122,-0.021098,-0.065715
1818,-0.008979,0.017434,-0.028322
1819,0.025223,-0.001832,-0.009625
1820,0.008122,0.0367,0.065162
1821,0.008122,-0.001832,-0.009625
1822,0.008122,-0.001832,-0.009625
1823,0.008122,-0.001832,-0.028322
1824,-0.008979,-0.021098,0.009072
1825,0.008122,-0.001832,-0.028322
1826,-0.008979,-0.001832,-0.047018
1827,0.008122,-0.001832,0.009072
1828,-0.008979,0.017434,0.065162
1829,-0.008979,-0.021098,0.083859
1830,-0.008979,-0.040364,0.046465
1831,-0.008979,-0.040364,0.046465
1832,-0.008979,-0.001832,-0.028322
1833,0.008122,-0.001832,-0.047018
1834,0.008122,-0.040364,-0.009625
1835,-0.008979,-0.001832,0.065162
1836,0.008122,-0.001832,0.083859
1837,0.008122,0.0367,0.065162
1838,0.008122,0.055966,0.027769
1839,0.008122,0.0367,0.027769
1840,0.008122,0.017434,0.009072
1841,0.008122,-0.001832,0.009072
1842,-0.008979,-0.021098,-0.065715
1843,-0.026081,-0.021098,-0.028322
1844,0.008122,-0.040364,-0.047018
1845,0.008122,-0.021098,-0.065715
1846,0.008122,-0.040364,-0.028322
1847,-0.008979,-0.021098,-0.028322
1848,0.008122,-0.001832,-0.028322
1849,0.008122,0.0367,0.009072
1850,0.025223,0.094498,0.046465
1851,0.008122,-0.021098,-0.009625
1852,-0.008979,-0.040364,0.027769
1853,0.008122,-0.078896,0.027769
1854,0.008122,-0.001832,0.009072
1855,0.025223,0.0367,-0.009625
1856,0.008122,0.0367,0.009072
1857,-0.008979,-0.05963,-0.009625
1858,-0.008979,-0.136694,-0.047018
1859,-0.008979,-0.175226,0.009072
1860,-0.026081,-0.175226,0.027769
1861,-0.043182,-0.098162,0.009072
1862,-0.026081,0.055966,0.027769
1863,-0.008979,0.094498,-0.047018
1864,-0.008979,0.13303,-0.047018
1865,0.025223,0.171562,0.009072
1866,0.008122,0.171562,0.027769
1867,0.008122,-0.001832,-0.009625
1868,-0.026081,-0.117428,-0.009625
1869,0.008122,-0.213758,-0.028322
1870,0.042325,-0.098162,-0.009625
1871,0.042325,-0.233024,0.102556
1872,-0.008979,-0.252289,0.065162
1873,-0.026081,-0.15596,0.027769
1874,-0.026081,-0.001832,0.027769
1875,0.008122,0.306424,0.046465
1876,0.042325,0.537616,0.065162
1877,0.025223,0.479818,0.027769
1878,0.008122,0.42202,0.027769
1879,0.042325,0.287158,-0.009625
1880,0.025223,0.075232,-0.065715
1881,0.042325,0.094498,-0.065715
1882,-0.008979,0.075232,-0.047018
1883,-0.008979,0.017434,-0.009625
1884,-0.008979,0.0367,0.009072
1885,0.008122,0.0367,0.027769
1886,-0.008979,-0.021098,0.027769
1887,-0.008979,-0.001832,0.046465
1888,0.008122,-0.021098,0.027769
1889,0.008122,-0.021098,0.009072
1890,-0.008979,-0.05963,-0.009625
1891,-0.008979,-0.040364,-0.028322
1892,-0.008979,-0.05963,-0.009625
1893,-0.008979,-0.021098,0.009072
1894,-0.008979,-0.040364,0.065162
1895,0.008122,-0.001832,0.027769
1896,0.025223,-0.001832,0.065162
1897,0.008122,-0.05963,0.046465
1898,-0.008979,-0.05963,0.009072
1899,-0.026081,-0.05963,-0.028322
1900,-0.008979,-0.05963,-0.009625
1901,0.008122,-0.040364,-0.028322
1902,0.008122,-0.040364,-0.028322
1903,0.008122,-0.001832,-0.009625
1904,0.025223,-0.021098,0.065162
1905,0.008122,-0.001832,0.009072
1906,-0.008979,-0.021098,0.009072
1907,0.008122,-0.021098,0.027769
1908,-0.008979,-0.040364,0.046465
1909,-0.008979,-0.021098,0.027769
1910,-0.008979,-0.021098,-0.009625
1911,-0.008979,-0.001832,-0.084412
1912,-0.008979,-0.021098,-0.103109
1913,-0.008979,-0.040364,-0.084412
1914,-0.008979,-0.040364,-0.065715
1915,-0.008979,-0.021098,-0.047018
1916,-0.008979,-0.021098,0.027769
1917,-0.008979,-0.021098,0.027769
1918,0.008122,-0.021098,-0.028322
1919,0.008122,0.0367,-0.009625
1920,0.008122,0.017434,0.102556
1921,0.008122,0.017434,0.083859
1922,0.008122,-0.001832,0.083859
1923,-0.008979,-0.001832,0.046465
1924,0.008122,-0.021098,-0.103109
1925,0.008122,0.017434,-0.140502
1926,0.008122,-0.021098,-0.028322
1927,0.008122,0.017434,0.065162
1928,-0.008979,-0.001832,0.083859
1929,0.008122,0.017434,0.158646
1930,0.008122,0.055966,0.027769
1931,0.008122,0.055966,-0.028322
1932,0.025223,-0.021098,-0.009625
1933,-0.008979,-0.021098,-0.009625
1934,-0.008979,-0.021098,0.027769
1935,0.008122,-0.021098,0.009072
1936,-0.008979,-0.078896,-0.047018
1937,0.008122,-0.136694,-0.065715
1938,0.008122,-0.05963,-0.009625
1939,0.008122,-0.040364,0.009072
1940,-0.008979,-0.021098,-0.047018
1941,-0.008979,-0.078896,-0.009625
1942,0.008122,-0.05963,0.027769
1943,-0.008979,-0.098162,-0.009625
1944,-0.026081,-0.117428,0.027769
1945,0.008122,-0.040364,0.027769
1946,-0.026081,-0.05963,-0.009625
1947,-0.026081,-0.001832,0.009072
1948,-0.026081,0.0367,0.009072
1949,0.025223,0.210094,0.009072
1950,0.042325,0.267892,0.009072
1951,0.042325,0.13303,0.046465
1952,0.025223,0.055966,-0.028322
1953,0.008122,-0.001832,-0.009625
1954,0.025223,0.0367,0.027769
1955,0.025223,-0.021098,0.046465
1956,-0.008979,-0.098162,-0.009625
1957,-0.008979,-0.194492,-0.028322
1958,-0.026081,-0.15596,0.009072
1959,0.008122,0.0367,0.009072
1960,-0.008979,0.094498,0.046465
1961,0.008122,0.171562,0.027769
1962,0.025223,0.210094,-0.084412
1963,0.025223,0.32569,-0.028322
1964,0.025223,0.248626,0.046465
1965,0.025223,0.113764,0.046465
1966,0.008122,-0.021098,0.027769
1967,0.008122,-0.040364,0.027769
1968,0.008122,-0.021098,0.009072
1969,0.008122,-0.001832,-0.028322
1970,0.008122,-0.040364,0.009072
1971,0.008122,-0.001832,-0.028322
1972,0.008122,-0.021098,-0.028322
1973,0.008122,-0.117428,0.009072
1974,-0.008979,-0.078896,-0.009625
1975,-0.026081,-0.021098,-0.028322
1976,-0.026081,-0.001832,-0.028322
1977,0.008122,0.0367,-0.009625
1978,-0.008979,0.055966,-0.009625
1979,-0.008979,0.075232,-0.009625
1980,0.025223,0.055966,0.027769
1981,0.008122,-0.021098,-0.009625
1982,-0.008979,-0.001832,0.027769
1983,-0.008979,-0.001832,0.027769
1984,-0.008979,-0.001832,0.009072
1985,-0.008979,-0.021098,0.009072
1986,0.008122,-0.040364,0.009072
1987,0.025223,-0.05963,-0.009625
1988,0.008122,-0.05963,-0.009625
1989,-0.008979,-0.040364,0.009072
1990,-0.008979,0.017434,0.046465
1991,0.008122,0.055966,0.046465
1992,0.008122,0.0367,0.046465
1993,-0.008979,-0.001832,0.027769
1994,0.008122,-0.001832,0.009072
1995,-0.008979,-0.040364,0.009072
1996,-0.008979,-0.040364,-0.009625
1997,0.008122,-0.001832,0.009072
1998,0.008122,0.017434,-0.028322
1999,0.008122,-0.021098,-0.047018
2000,0.008122,-0.001832,0.009072
2001,0.025223,-0.001832,0.065162
2002,0.008122,-0.001832,0.065162
2003,0.008122,0.0367,0.102556
2004,0.008122,-0.001832,0.009072
2005,-0.008979,-0.001832,-0.009625
2006,-0.026081,-0.021098,-0.047018
2007,-0.008979,-0.021098,-0.121806
2008,-0.008979,-0.001832,-0.103109
2009,-0.008979,-0.021098,-0.028322
2010,0.008122,-0.021098,0.009072
2011,0.008122,-0.001832,0.065162
2012,-0.008979,0.017434,0.027769
2013,-0.008979,-0.021098,0.027769
2014,0.008122,-0.001832,-0.009625
2015,-0.008979,-0.021098,-0.065715
2016,0.008122,-0.001832,-0.047018
2017,0.008122,-0.021098,-0.047018
2018,-0.008979,-0.001832,0.046465
2019,-0.008979,0.017434,0.065162
2020,0.008122,-0.001832,0.083859
2021,0.008122,0.0367,0.083859
2022,0.008122,0.0367,0.083859
2023,0.008122,0.017434,0.009072
2024,0.008122,-0.001832,0.009072
2025,0.008122,0.017434,-0.103109
2026,0.008122,-0.021098,-0.121806
2027,0.008122,-0.078896,-0.065715
2028,-0.008979,-0.15596,-0.009625
2029,-0.008979,-0.194492,-0.009625
2030,-0.008979,-0.213758,0.046465
2031,0.008122,-0.15596,0.046465
2032,-0.008979,-0.05963,0.009072
2033,0.008122,0.055966,-0.047018
2034,0.008122,0.075232,-0.009625
2035,-0.008979,0.13303,-0.047018
2036,-0.008979,0.094498,-0.047018
2037,-0.008979,0.075232,-0.028322
2038,0.025223,0.0367,0.009072
2039,0.025223,0.075232,-0.009625
2040,0.008122,0.094498,0.027769
2041,-0.026081,0.113764,0.027769
2042,-0.008979,0.094498,0.009072
2043,-0.008979,0.075232,0.009072
2044,0.008122,0.0367,-0.009625
2045,0.008122,-0.05963,-0.009625
2046,0.008122,-0.117428,-0.009625
2047,0.008122,-0.05963,0.046465
2048,0.008122,-0.05963,0.009072
2049,-0.026081,-0.021098,-0.028322
2050,-0.008979,-0.001832,-0.028322
2051,0.042325,0.113764,-0.009625
2052,0.042325,0.152296,0.009072
2053,0.025223,0.13303,0.046465
2054,0.008122,0.094498,0.046465
2055,-0.008979,0.075232,0.009072
2056,0.008122,0.055966,0.046465
2057,0.008122,-0.021098,0.009072
2058,-0.008979,-0.040364,0.009072
2059,-0.008979,-0.001832,-0.028322
2060,-0.026081,-0.021098,0.009072
2061,-0.008979,-0.001832,-0.028322
2062,0.008122,-0.021098,-0.009625
2063,-0.008979,-0.001832,0.102556
2064,0.008122,0.017434,0.027769
2065,0.025223,-0.001832,0.009072
2066,-0.008979,-0.021098,-0.009625
2067,0.008122,-0.040364,-0.009625
2068,-0.008979,-0.001832,0.009072
2069,-0.008979,-0.001832,0.065162
2070,0.025223,-0.001832,0.046465
2071,0.008122,-0.040364,0.009072
2072,-0.008979,-0.040364,0.027769
2073,-0.026081,-0.040364,-0.047018
2074,0.008122,-0.021098,-0.047018
2075,-0.026081,-0.001832,0.009072
2076,-0.008979,0.017434,0.009072
2077,0.008122,-0.001832,0.027769
2078,0.008122,-0.001832,0.027769
2079,-0.026081,-0.021098,0.027769
2080,-0.008979,-0.001832,0.009072
2081,-0.008979,-0.021098,-0.047018
2082,-0.008979,-0.040364,-0.047018
2083,0.025223,-0.001832,-0.028322
2084,0.008122,0.017434,-0.028322
2085,-0.026081,-0.021098,0.027769
2086,-0.008979,0.017434,0.065162
2087,0.008122,0.0367,0.027769
2088,-0.008979,-0.001832,-0.009625
2089,0.008122,-0.001832,0.009072
2090,0.008122,0.017434,0.009072
2091,0.008122,-0.001832,0.009072
2092,-0.008979,-0.001832,-0.009625
2093,0.008122,-0.001832,-0.028322
2094,0.008122,-0.001832,-0.009625
2095,-0.008979,-0.040364,-0.009625
2096,0.008122,-0.021098,0.009072
2097,0.008122,-0.021098,0.046465
2098,-0.008979,-0.021098,0.009072
2099,0.008122,-0.040364,0.046465
2100,0.008122,-0.001832,0.102556
2101,0.008122,0.017434,0.121252
2102,-0.008979,-0.001832,0.027769
2103,-0.008979,0.017434,-0.028322
2104,0.008122,-0.001832,0.009072
2105,0.008122,0.0367,0.065162
2106,-0.008979,-0.021098,-0.009625
2107,-0.008979,-0.021098,-0.009625
2108,-0.008979,-0.001832,-0.028322
2109,0.008122,-0.001832,-0.009625
2110,0.008122,-0.001832,-0.047018
2111,-0.008979,-0.021098,-0.103109
2112,0.008122,-0.040364,-0.065715
2113,0.008122,-0.078896,-0.065715
2114,-0.008979,-0.05963,-0.009625
2115,0.008122,-0.078896,-0.047018
2116,-0.008979,-0.117428,-0.028322
2117,0.008122,-0.05963,-0.047018
2118,-0.008979,-0.040364,0.027769
2119,0.008122,-0.001832,-0.028322
2120,0.008122,0.055966,-0.009625
2121,-0.008979,0.094498,0.009072
2122,0.008122,0.13303,-0.009625
2123,0.025223,0.190828,0.027769
2124,0.008122,0.113764,0.027769
2125,0.008122,0.0367,0.027769
2126,-0.008979,0.017434,0.009072
2127,-0.008979,0.017434,0.065162
2128,-0.008979,-0.001832,0.046465
2129,-0.008979,-0.021098,0.009072
2130,0.008122,-0.05963,-0.028322
2131,0.008122,-0.117428,-0.047018
2132,0.008122,-0.098162,-0.028322
2133,-0.008979,-0.098162,0.009072
2134,0.008122,-0.098162,0.027769
2135,-0.008979,-0.040364,0.027769
2136,-0.008979,0.0367,0.083859
2137,0.008122,0.0367,0.046465
2138,-0.008979,-0.001832,-0.028322
2139,-0.008979,-0.078896,-0.047018
2140,-0.008979,-0.117428,0.027769
2141,-0.008979,-0.021098,-0.028322
2142,0.025223,0.075232,-0.028322
2143,0.008122,0.0367,-0.009625
2144,0.025223,0.094498,-0.103109
2145,0.008122,0.190828,-0.047018
2146,0.008122,0.13303,-0.009625
2147,0.008122,0.075232,0.027769
2148,0.042325,0.075232,0.027769
2149,0.008122,0.055966,0.009072
2150,0.008122,0.055966,-0.009625
2151,0.008122,0.017434,-0.009625
2152,-0.008979,-0.078896,-0.028322
2153,-0.008979,-0.213758,-0.009625
2154,0.025223,-0.194492,0.009072
2155,-0.008979,-0.194492,-0.028322
2156,-0.008979,-0.098162,0.065162
2157,-0.008979,0.017434,-0.009625
2158,-0.008979,0.13303,0.009072
2159,0.008122,0.248626,0.027769
2160,0.008122,0.306424,0.027769
2161,0.008122,0.210094,0.009072
2162,0.025223,0.075232,0.046465
2163,-0.026081,-0.001832,0.009072
2164,0.025223,0.017434,0.009072
2165,-0.008979,0.017434,-0.009625
2166,-0.008979,-0.001832,0.009072
2167,0.008122,0.017434,-0.028322
2168,0.008122,-0.021098,-0.009625
2169,0.008122,-0.001832,0.009072
2170,0.008122,-0.021098,-0.009625
2171,0.008122,-0.040364,-0.009625
2172,-0.008979,-0.021098,0.065162
2173,-0.008979,-0.040364,0.046465
2174,-0.008979,-0.001832,0.046465
2175,0.008122,0.017434,0.083859
2176,0.025223,-0.001832,0.065162
2177,0.025223,-0.001832,0.009072
2178,0.008122,-0.021098,-0.047018
2179,0.008122,-0.021098,-0.009625
2180,-0.008979,-0.001832,0.046465
2181,-0.008979,-0.021098,0.027769
2182,-0.008979,-0.021098,0.046465
2183,-0.008979,-0.040364,0.009072
2184,-0.008979,-0.040364,-0.028322
2185,0.008122,-0.040364,-0.047018
2186,0.008122,-0.021098,-0.047018
2187,0.008122,-0.001832,-0.047018
2188,0.025223,-0.001832,-0.028322
2189,0.008122,-0.001832,-0.009625
2190,-0.008979,0.0367,-0.028322
2191,0.008122,-0.001832,-0.009625
2192,0.008122,-0.040364,0.009072
2193,0.008122,-0.040364,-0.009625
2194,0.008122,-0.040364,0.009072
2195,-0.026081,-0.05963,0.046465
2196,0.008122,-0.021098,0.009072
2197,0.008122,-0.040364,-0.009625
2198,-0.008979,0.017434,0.009072
2199,-0.026081,0.017434,-0.084412
2200,-0.008979,0.0367,-0.047018
2201,-0.008979,-0.001832,0.046465
2202,-0.008979,-0.001832,0.027769
2203,0.008122,-0.001832,-0.009625
2204,-0.008979,-0.040364,0.009072
2205,0.008122,-0.021098,0.046465
2206,-0.008979,-0.001832,0.065162
2207,0.025223,-0.001832,0.046465
2208,0.008122,0.017434,0.083859
2209,0.008122,-0.001832,0.121252
2210,0.008122,0.017434,0.083859
2211,0.008122,0.017434,0.027769
2212,-0.008979,0.017434,-0.084412
2213,-0.008979,-0.021098,-0.084412
2214,-0.008979,-0.021098,-0.121806
2215,-0.026081,-0.05963,-0.084412
2216,-0.008979,0.017434,-0.047018
2217,0.008122,0.017434,0.009072
2218,0.008122,0.017434,0.009072
2219,-0.008979,-0.001832,0.027769
2220,0.008122,-0.001832,0.009072
2221,0.008122,-0.001832,-0.028322
2222,0.008122,-0.001832,-0.047018
2223,-0.008979,-0.001832,0.009072
2224,-0.008979,-0.001832,0.027769
2225,-0.008979,-0.001832,-0.009625
2226,-0.008979,0.017434,0.009072
2227,-0.043182,-0.021098,0.009072
2228,-0.008979,-0.05963,-0.009625
2229,0.008122,-0.078896,-0.009625
2230,0.025223,-0.021098,0.009072
2231,0.008122,-0.021098,0.027769
2232,0.025223,-0.021098,-0.009625
2233,0.025223,-0.001832,0.027769
2234,0.008122,-0.021098,0.046465
2235,-0.008979,-0.021098,0.046465
2236,-0.043182,-0.117428,-0.009625
2237,-0.008979,-0.05963,0.009072
2238,0.008122,-0.001832,-0.009625
2239,0.008122,0.0367,-0.028322
2240,-0.008979,0.055966,-0.009625
2241,-0.008979,0.055966,-0.065715
2242,-0.008979,-0.001832,-0.028322
2243,-0.008979,-0.078896,0.009072
2244,-0.008979,-0.098162,0.046465
2245,-0.008979,-0.117428,0.009072
2246,0.008122,-0.117428,0.009072
2247,-0.026081,-0.098162,-0.047018
2248,-0.008979,0.017434,-0.084412
2249,0.042325,0.171562,-0.028322
2250,0.042325,0.210094,0.027769
2251,0.025223,0.22936,0.009072
2252,0.008122,0.13303,0.009072
2253,0.025223,0.152296,0.009072
2254,0.008122,0.094498,-0.028322
2255,0.008122,0.075232,0.027769
2256,0.008122,0.094498,0.027769
2257,0.025223,0.017434,0.027769
2258,0.025223,-0.05963,-0.009625
2259,0.008122,-0.021098,0.046465
2260,0.008122,-0.001832,0.027769
2261,-0.008979,-0.001832,0.009072
2262,-0.008979,-0.021098,-0.009625
2263,-0.026081,0.017434,-0.047018
2264,0.008122,0.055966,-0.028322
2265,0.008122,0.075232,-0.009625
2266,0.008122,0.055966,0.046465
2267,0.008122,-0.021098,0.009072
2268,0.025223,-0.021098,0.009072
2269,0.008122,-0.001832,0.009072
2270,0.025223,-0.001832,-0.009625
2271,0.008122,-0.001832,-0.047018
2272,0.008122,-0.021098,0.009072
2273,-0.026081,-0.021098,0.009072
2274,-0.026081,-0.040364,-0.009625
2275,-0.008979,-0.040364,-0.009625
2276,-0.008979,-0.021098,-0.028322
2277,-0.008979,-0.040364,-0.028322
2278,-0.008979,-0.021098,0.009072
2279,-0.008979,0.017434,0.046465
2280,0.008122,-0.021098,0.046465
2281,0.008122,-0.021098,0.027769
2282,-0.026081,-0.001832,0.009072
2283,0.008122,-0.001832,-0.028322
2284,-0.026081,-0.021098,-0.047018
2285,-0.008979,-0.001832,-0.028322
2286,0.008122,0.017434,0.009072
2287,-0.008979,-0.021098,0.009072
2288,0.008122,0.017434,0.027769
2289,0.008122,-0.001832,-0.009625
2290,-0.008979,-0.001832,-0.009625
2291,0.008122,0.017434,0.027769
2292,0.008122,-0.001832,0.027769
2293,-0.008979,0.017434,-0.028322
2294,-0.008979,-0.001832,0.027769
2295,-0.008979,-0.021098,0.009072
2296,0.008122,-0.001832,0.009072
2297,0.008122,-0.001832,0.027769
2298,0.008122,-0.021098,0.009072
2299,0.008122,-0.021098,-0.065715
2300,-0.008979,-0.001832,-0.065715
2301,0.008122,0.017434,0.009072
2302,0.008122,-0.001832,-0.047018
2303,-0.008979,0.017434,0.027769
2304,-0.008979,0.0367,0.083859
2305,0.008122,0.0367,0.102556
2306,-0.008979,-0.001832,0.009072
2307,0.008122,-0.021098,-0.028322
2308,0.008122,-0.021098,-0.047018
2309,-0.008979,-0.021098,-0.047018
2310,-0.008979,-0.001832,-0.028322
2311,0.008122,-0.021098,0.009072
2312,0.008122,0.017434,0.027769
2313,0.008122,0.017434,0.065162
2314,0.008122,0.017434,0.083859
2315,0.008122,0.017434,0.065162
2316,0.008122,0.017434,0.027769
2317,0.042325,0.017434,0.027769
2318,0.008122,-0.021098,-0.028322
2319,-0.008979,-0.021098,-0.084412
2320,-0.026081,-0.05963,-0.065715
2321,-0.008979,-0.078896,-0.084412
2322,-0.026081,-0.05963,-0.065715
2323,0.008122,-0.040364,-0.009625
2324,0.008122,0.055966,-0.009625
2325,0.025223,0.055966,-0.028322
2326,0.008122,0.0367,0.027769
2327,0.025223,-0.001832,0.046465
2328,-0.008979,0.017434,0.009072
2329,0.008122,-0.001832,-0.009625
2330,0.025223,-0.001832,-0.009625
2331,0.008122,-0.021098,-0.065715
2332,-0.008979,-0.040364,-0.047018
2333,-0.008979,-0.078896,0.027769
2334,-0.008979,-0.194492,-0.009625
2335,-0.008979,-0.194492,-0.028322
2336,-0.026081,-0.175226,0.009072
2337,-0.060283,-0.098162,-0.028322
2338,0.008122,0.094498,0.009072
2339,0.042325,0.248626,0.046465
2340,0.042325,0.32569,0.027769
2341,0.025223,0.344956,0.065162
2342,0.008122,0.190828,0.065162
2343,0.025223,0.055966,0.046465
2344,0.008122,0.017434,0.009072
2345,-0.008979,-0.040364,-0.009625
2346,-0.008979,-0.117428,-0.028322
2347,-0.026081,-0.117428,-0.028322
2348,-0.026081,-0.117428,-0.009625
2349,-0.008979,-0.078896,0.009072
2350,-0.008979,-0.040364,-0.028322
2351,0.025223,-0.001832,-0.009625
2352,-0.008979,0.075232,0.009072
2353,0.008122,0.13303,0.027769
2354,0.025223,0.152296,0.009072
2355,0.025223,0.075232,0.046465
2356,0.042325,0.055966,0.009072
2357,0.025223,0.017434,-0.009625
2358,0.008122,-0.001832,-0.009625
2359,0.008122,0.017434,0.009072
2360,0.008122,0.0367,-0.028322
2361,-0.008979,0.055966,0.027769
2362,-0.008979,0.055966,0.027769
2363,-0.008979,-0.021098,0.009072
2364,0.008122,-0.021098,0.009072
2365,0.008122,-0.021098,0.046465
2366,0.008122,-0.001832,0.027769
2367,-0.026081,-0.021098,0.027769
2368,-0.008979,-0.021098,-0.009625
2369,0.008122,-0.001832,-0.028322
2370,-0.008979,-0.001832,-0.047018
2371,0.008122,-0.021098,-0.047018
2372,-0.008979,-0.05963,-0.047018
2373,-0.008979,-0.040364,-0.009625
2374,-0.008979,-0.040364,0.009072
2375,-0.026081,-0.021098,0.027769
2376,-0.026081,-0.001832,0.009072
2377,0.008122,-0.040364,0.027769
2378,-0.008979,-0.001832,-0.009625
2379,-0.008979,-0.021098,-0.028322
2380,-0.008979,-0.040364,0.065162
2381,0.008122,-0.001832,0.027769
2382,0.008122,-0.001832,0.046465
2383,0.008122,0.017434,0.065162
2384,-0.008979,0.0367,0.065162
2385,0.008122,0.017434,0.009072
2386,0.008122,0.0367,0.027769
2387,0.042325,0.017434,0.027769
2388,0.008122,-0.001832,0.009072
2389,0.008122,0.017434,0.009072
2390,0.008122,-0.001832,0.009072
2391,0.008122,0.017434,-0.009625
2392,-0.008979,-0.021098,-0.028322
2393,-0.008979,-0.021098,-0.009625
2394,-0.008979,-0.021098,-0.028322
2395,0.008122,-0.001832,-0.009625
2396,0.008122,-0.001832,0.027769
2397,-0.008979,-0.021098,0.027769
2398,0.025223,-0.021098,0.009072
2399,-0.008979,-0.001832,0.009072
2400,0.008122,-0.001832,0.009072
2401,0.008122,-0.001832,-0.047018
2402,0.008122,-0.001832,0.009072
2403,-0.008979,-0.001832,0.009072
2404,-0.008979,-0.040364,-0.028322
2405,-0.008979,-0.040364,-0.009625
2406,0.008122,0.0367,0.102556
2407,-0.008979,0.017434,0.121252
2408,0.025223,-0.040364,0.065162
2409,-0.008979,-0.078896,-0.009625
2410,0.008122,-0.040364,-0.047018
2411,0.008122,-0.05963,-0.065715
2412,-0.008979,-0.098162,-0.121806
2413,-0.008979,-0.098162,-0.065715
2414,-0.026081,-0.136694,-0.047018
2415,-0.026081,-0.15596,-0.028322
2416,-0.026081,-0.078896,-0.047018
2417,0.008122,0.055966,-0.047018
2418,0.042325,0.171562,-0.028322
2419,0.008122,0.152296,-0.009625
2420,0.008122,0.171562,-0.028322
2421,0.042325,0.152296,0.027769
2422,0.008122,0.190828,0.046465
2423,0.008122,0.152296,0.065162
2424,0.008122,0.0367,0.046465
2425,-0.008979,0.0367,0.065162
2426,-0.008979,0.017434,0.009072
2427,0.008122,0.0367,0.009072
2428,-0.008979,0.0367,-0.009625
2429,-0.008979,0.017434,-0.009625
2430,-0.008979,-0.040364,-0.009625
2431,-0.026081,-0.001832,-0.028322
2432,0.025223,0.017434,-0.009625
2433,0.008122,-0.001832,0.009072
2434,0.008122,-0.040364,-0.009625
2435,0.008122,-0.001832,0.027769
2436,0.008122,-0.001832,0.027769
2437,0.025223,-0.021098,0.027769
2438,-0.008979,-0.040364,0.027769
2439,-0.008979,-0.040364,0.009072
2440,0.008122,-0.040364,-0.009625
2441,0.008122,-0.040364,-0.009625
2442,-0.008979,-0.040364,-0.028322
2443,-0.008979,-0.040364,-0.028322
2444,-0.026081,-0.021098,-0.009625
2445,-0.008979,-0.001832,-0.009625
2446,0.008122,0.017434,0.009072
2447,0.008122,-0.001832,0.027769
2448,-0.008979,-0.040364,0.046465
2449,-0.008979,0.017434,-0.009625
2450,0.008122,0.0367,-0.028322
2451,0.008122,-0.001832,-0.047018
2452,-0.008979,-0.021098,-0.028322
2453,0.008122,-0.05963,-0.028322
2454,0.008122,-0.001832,-0.009625
2455,-0.008979,-0.001832,0.027769
2456,0.008122,0.017434,0.065162
2457,-0.008979,-0.001832,0.046465
2458,0.008122,-0.001832,0.009072
2459,0.025223,-0.021098,0.046465
2460,0.025223,-0.040364,0.046465
2461,0.008122,-0.040364,0.046465
2462,0.008122,-0.040364,0.046465
2463,-0.008979,-0.021098,0.065162
2464,-0.026081,0.0367,-0.009625
2465,0.008122,0.075232,-0.028322
2466,0.008122,0.0367,0.009072
2467,0.025223,0.017434,-0.028322
2468,0.008122,0.017434,-0.065715
2469,0.008122,-0.021098,-0.028322
2470,0.025223,-0.040364,0.009072
2471,-0.008979,-0.021098,-0.028322
2472,-0.008979,-0.021098,0.009072
2473,0.008122,-0.021098,0.009072
2474,-0.008979,-0.001832,0.009072
2475,-0.008979,-0.001832,-0.028322
2476,0.008122,0.017434,-0.047018
2477,0.008122,0.0367,-0.065715
2478,0.025223,0.017434,-0.028322
2479,0.025223,-0.001832,0.009072
2480,0.008122,-0.021098,-0.009625
2481,-0.008979,0.017434,0.009072
2482,-0.008979,-0.001832,0.009072
2483,-0.008979,-0.001832,0.027769
2484,-0.008979,-0.001832,0.027769
2485,0.008122,-0.001832,0.027769
2486,0.008122,0.017434,0.009072
2487,0.008122,0.0367,-0.009625
2488,0.008122,0.017434,-0.028322
2489,0.008122,0.017434,0.027769
2490,0.008122,-0.001832,0.009072
2491,0.008122,0.0367,0.009072
2492,0.008122,-0.021098,0.009072
2493,-0.026081,-0.001832,0.027769
2494,-0.008979,0.017434,0.046465
2495,0.008122,0.0367,0.065162
2496,-0.008979,0.017434,0.065162
2497,0.025223,-0.021098,0.027769
2498,0.025223,-0.001832,-0.009625
2499,0.008122,-0.001832,-0.121806
2500,-0.026081,-0.05963,-0.103109
2501,-0.008979,-0.021098,-0.028322
2502,-0.043182,-0.040364,0.009072
2503,-0.026081,-0.05963,-0.009625
2504,0.008122,-0.040364,0.027769
2505,0.008122,-0.021098,0.009072
2506,0.008122,-0.001832,-0.028322
2507,0.008122,-0.001832,-0.009625
2508,0.008122,-0.078896,0.027769
2509,-0.008979,-0.098162,-0.009625
2510,-0.026081,-0.05963,0.027769
2511,-0.008979,-0.078896,0.009072
2512,-0.008979,-0.021098,-0.009625
2513,-0.008979,0.017434,-0.028322
2514,0.008122,0.094498,-0.028322
2515,0.008122,0.152296,-0.047018
2516,0.008122,0.13303,-0.028322
2517,0.008122,0.055966,0.009072
2518,-0.008979,0.075232,0.027769
2519,0.008122,0.017434,0.009072
2520,0.025223,0.017434,0.009072
2521,0.025223,0.017434,0.027769
2522,-0.008979,-0.001832,0.027769
2523,-0.008979,-0.001832,0.065162
2524,0.008122,-0.001832,0.065162
2525,0.008122,0.0367,0.027769
2526,-0.008979,0.017434,-0.009625
2527,-0.008979,-0.001832,0.065162
2528,-0.008979,-0.001832,-0.065715
2529,-0.026081,-0.001832,-0.065715
2530,-0.008979,-0.05963,-0.009625
2531,-0.008979,-0.021098,0.009072
2532,0.008122,-0.021098,0.009072
2533,0.025223,0.017434,0.046465
2534,0.025223,-0.001832,0.009072
2535,0.025223,0.017434,-0.028322
2536,0.008122,0.0367,-0.028322
2537,-0.008979,0.0367,-0.028322
2538,0.008122,0.017434,-0.047018
2539,0.008122,-0.040364,0.009072
2540,0.008122,-0.021098,0.009072
2541,-0.008979,-0.001832,-0.047018
2542,-0.008979,-0.001832,-0.047018
2543,-0.008979,0.017434,-0.009625
2544,0.025223,0.017434,-0.009625
2545,-0.008979,0.0367,0.083859
2546,-0.008979,-0.021098,0.083859
2547,0.008122,-0.040364,0.083859
2548,0.025223,-0.05963,0.083859
2549,0.008122,-0.040364,0.046465
2550,0.008122,-0.040364,0.009072
2551,-0.008979,-0.021098,-0.009625
2552,0.025223,0.055966,0.009072
2553,-0.008979,0.113764,0.009072
2554,0.008122,0.113764,-0.028322
2555,0.008122,-0.001832,0.027769
2556,-0.008979,-0.05963,0.065162
2557,-0.008979,-0.040364,0.046465
2558,-0.008979,-0.040364,0.027769
2559,-0.008979,-0.040364,-0.028322
2560,0.008122,-0.021098,-0.065715
2561,-0.008979,-0.021098,-0.084412
2562,0.008122,0.017434,-0.009625
2563,-0.008979,-0.001832,0.009072
2564,-0.008979,0.017434,-0.009625
2565,-0.008979,-0.021098,-0.065715
2566,0.008122,0.0367,-0.009625
2567,0.008122,0.055966,-0.009625
2568,0.008122,0.0367,-0.009625
2569,0.008122,0.017434,-0.028322
2570,0.008122,-0.001832,-0.028322
2571,0.008122,-0.021098,0.009072
2572,0.008122,-0.021098,0.027769
2573,-0.008979,-0.05963,0.009072
2574,0.008122,-0.040364,-0.009625
2575,-0.008979,-0.021098,-0.009625
2576,-0.008979,-0.040364,0.009072
2577,-0.008979,-0.040364,0.046465
2578,-0.008979,-0.040364,-0.009625
2579,-0.008979,-0.05963,-0.009625
2580,-0.008979,-0.021098,-0.009625
2581,-0.026081,-0.040364,-0.028322
2582,-0.008979,-0.001832,-0.065715
2583,0.008122,0.0367,-0.065715
2584,0.008122,0.055966,-0.009625
2585,0.008122,0.094498,-0.009625
2586,0.008122,0.055966,-0.028322
2587,0.025223,0.094498,0.009072
2588,0.025223,0.055966,0.009072
2589,0.008122,-0.021098,0.027769
2590,0.008122,-0.078896,0.027769
2591,0.025223,-0.05963,0.065162
2592,-0.008979,-0.05963,0.027769
2593,-0.026081,-0.05963,0.046465
2594,-0.026081,0.017434,0.009072
2595,-0.008979,0.017434,-0.009625
2596,0.025223,0.094498,-0.028322
2597,0.025223,0.152296,0.027769
2598,0.008122,0.094498,-0.009625
2599,0.008122,0.0367,-0.028322
2600,0.008122,-0.001832,0.027769
2601,0.008122,0.0367,-0.009625
2602,-0.008979,-0.001832,0.009072
2603,-0.008979,-0.001832,0.027769
2604,0.008122,-0.040364,0.009072
2605,-0.026081,-0.021098,-0.009625
2606,-0.008979,0.017434,0.046465
2607,0.008122,-0.021098,0.009072
2608,0.008122,-0.021098,0.009072
2609,-0.008979,-0.001832,-0.028322
2610,0.008122,-0.021098,-0.028322
2611,-0.008979,0.0367,-0.028322
2612,0.025223,-0.040364,0.009072
2613,0.008122,-0.021098,0.009072
2614,0.025223,-0.021098,0.009072
2615,0.008122,-0.001832,0.027769
2616,0.025223,-0.05963,0.009072
2617,0.008122,-0.098162,-0.047018
2618,-0.008979,-0.098162,-0.047018
2619,0.008122,-0.078896,-0.009625
2620,-0.008979,-0.040364,-0.028322
2621,-0.008979,-0.001832,-0.028322
2622,-0.008979,0.017434,-0.028322
2623,0.025223,0.0367,-0.047018
2624,0.008122,0.075232,-0.047018
2625,0.008122,0.094498,0.027769
2626,0.008122,0.055966,0.046465
2627,-0.008979,0.055966,0.027769
2628,0.008122,0.055966,0.083859
2629,-0.008979,0.055966,0.083859
2630,-0.008979,0.017434,0.046465
2631,0.008122,-0.001832,-0.009625
2632,0.008122,-0.001832,0.027769
2633,0.008122,-0.021098,-0.047018
2634,-0.026081,-0.040364,-0.028322
2635,0.008122,-0.001832,0.027769
2636,0.025223,-0.021098,0.027769
2637,-0.008979,-0.040364,0.009072
2638,-0.008979,-0.021098,0.027769
2639,0.008122,-0.040364,-0.009625
2640,0.025223,0.017434,-0.009625
2641,-0.008979,-0.001832,0.065162
2642,0.008122,0.017434,0.065162
2643,-0.008979,0.0367,-0.047018
2644,-0.008979,-0.021098,-0.047018
2645,-0.008979,-0.098162,-0.065715
2646,0.008122,-0.098162,-0.065715
2647,-0.008979,-0.098162,-0.065715
2648,-0.026081,-0.05963,-0.047018
2649,-0.026081,-0.078896,-0.047018
2650,0.008122,-0.05963,0.009072
2651,0.042325,0.017434,0.065162
2652,0.042325,0.017434,0.065162
2653,0.025223,0.0367,0.009072
2654,-0.008979,-0.040364,0.009072
2655,-0.026081,-0.021098,-0.047018
2656,0.008122,0.152296,-0.009625
2657,0.025223,0.22936,-0.028322
2658,0.042325,0.13303,-0.028322
2659,0.025223,0.113764,-0.009625
2660,0.025223,0.055966,-0.009625
2661,0.008122,0.017434,0.009072
2662,-0.008979,0.0367,-0.028322
2663,0.008122,0.017434,0.009072
2664,-0.008979,-0.040364,0.027769
2665,0.008122,0.017434,0.027769
2666,0.025223,0.017434,0.009072
2667,0.008122,-0.021098,0.027769
2668,0.008122,-0.001832,0.009072
2669,0.008122,-0.001832,0.009072
2670,-0.008979,-0.040364,0.027769
2671,0.008122,-0.001832,0.046465
2672,0.008122,0.017434,0.009072
2673,0.008122,-0.021098,0.027769
2674,0.008122,0.017434,0.027769
2675,0.025223,-0.001832,-0.009625
2676,0.008122,0.017434,0.009072
2677,0.008122,-0.001832,-0.009625
2678,0.008122,-0.001832,-0.028322
2679,0.008122,-0.021098,-0.028322
2680,0.008122,-0.040364,-0.009625
2681,0.008122,-0.040364,-0.009625
2682,-0.008979,-0.040364,-0.009625
2683,0.008122,-0.021098,0.027769
2684,-0.008979,-0.021098,-0.009625
2685,-0.026081,-0.001832,-0.028322
2686,-0.008979,-0.001832,-0.028322
2687,0.008122,-0.001832,0.009072
2688,0.008122,0.017434,0.027769
2689,0.008122,0.017434,0.065162
2690,0.008122,-0.021098,0.083859
2691,-0.008979,-0.05963,0.027769
2692,-0.026081,-0.040364,0.009072
2693,0.008122,-0.021098,-0.009625
2694,-0.008979,-0.001832,-0.065715
2695,0.008122,-0.021098,-0.065715
2696,0.008122,-0.001832,-0.047018
2697,0.025223,-0.001832,-0.047018
2698,0.008122,-0.001832,0.009072
2699,-0.008979,-0.001832,0.009072
2700,-0.008979,-0.021098,0.027769
2701,0.025223,0.017434,-0.009625
2702,0.008122,0.017434,0.027769
2703,-0.008979,-0.001832,0.009072
2704,0.008122,-0.001832,-0.009625
2705,0.008122,-0.001832,-0.009625
2706,-0.008979,-0.021098,-0.009625
2707,0.025223,-0.040364,-0.009625
2708,0.008122,-0.040364,0.009072
2709,0.008122,-0.021098,0.027769
2710,0.025223,-0.021098,0.009072
2711,-0.008979,-0.021098,0.009072
2712,0.008122,-0.05963,0.046465
2713,0.008122,-0.05963,0.046465
2714,-0.008979,-0.098162,0.083859
2715,0.008122,-0.098162,0.102556
2716,0.008122,-0.001832,0.065162
2717,0.025223,-0.001832,-0.009625
2718,0.008122,0.055966,-0.009625
2719,0.008122,0.075232,-0.047018
2720,-0.043182,0.0367,-0.065715
2721,-0.026081,-0.021098,0.009072
2722,0.008122,-0.098162,0.046465
2723,0.025223,-0.078896,0.027769
2724,-0.008979,-0.098162,-0.065715
2725,-0.043182,-0.098162,-0.084412
2726,-0.026081,-0.021098,-0.159199
2727,0.008122,0.152296,-0.084412
2728,0.025223,0.306424,-0.009625
2729,0.025223,0.32569,0.009072
2730,0.042325,0.152296,0.009072
2731,0.008122,0.075232,0.009072
2732,-0.026081,0.0367,0.027769
2733,0.008122,0.0367,-0.009625
2734,0.025223,-0.001832,-0.009625
2735,-0.008979,0.0367,0.009072
2736,0.008122,0.0367,0.027769
2737,0.008122,0.017434,-0.009625
2738,0.008122,-0.001832,0.027769
2739,0.008122,0.017434,0.046465
2740,-0.026081,-0.001832,-0.009625
2741,0.008122,0.017434,0.009072
2742,-0.026081,0.017434,0.009072
2743,0.008122,-0.001832,0.009072
2744,0.008122,-0.021098,0.027769
2745,0.008122,-0.021098,-0.009625
2746,0.008122,-0.040364,-0.009625
2747,0.008122,-0.021098,0.027769
2748,-0.008979,-0.001832,0.046465
2749,-0.008979,-0.021098,0.027769
2750,0.008122,-0.040364,0.046465
2751,0.008122,-0.05963,0.027769
2752,-0.008979,-0.078896,-0.047018
2753,-0.008979,-0.05963,-0.009625
2754,0.008122,-0.040364,0.009072
2755,-0.008979,0.017434,0.009072
2756,-0.008979,-0.001832,-0.028322
2757,0.008122,-0.001832,-0.047018
2758,0.025223,0.055966,-0.084412
2759,0.008122,0.0367,-0.028322
2760,-0.008979,0.0367,0.027769
2761,0.008122,-0.021098,0.027769
2762,-0.008979,-0.021098,-0.009625
2763,0.008122,-0.021098,0.009072
2764,-0.008979,0.017434,0.009072
2765,0.008122,-0.021098,-0.028322
2766,0.008122,-0.021098,-0.065715
2767,-0.008979,-0.001832,0.009072
2768,0.008122,-0.021098,0.009072
2769,0.008122,-0.021098,-0.009625
2770,-0.008979,-0.001832,0.009072
2771,-0.008979,-0.001832,-0.009625
2772,-0.008979,0.0367,0.046465
2773,0.008122,0.017434,0.046465
2774,-0.008979,-0.001832,0.027769
2775,0.008122,0.017434,0.027769
2776,-0.008979,-0.021098,0.009072
2777,-0.008979,-0.021098,-0.009625
2778,-0.008979,-0.040364,-0.009625
2779,0.008122,-0.05963,-0.028322
2780,0.008122,-0.05963,-0.009625
2781,-0.008979,-0.05963,-0.028322
2782,-0.008979,-0.040364,0.009072
2783,-0.008979,-0.078896,0.009072
2784,-0.008979,-0.021098,0.027769
2785,0.008122,0.017434,-0.009625
2786,0.042325,0.094498,0.027769
2787,0.008122,0.094498,0.009072
2788,0.008122,0.055966,0.027769
2789,0.008122,0.075232,0.065162
2790,0.008122,0.0367,0.009072
2791,-0.008979,0.055966,-0.009625
2792,-0.008979,0.017434,-0.047018
2793,0.008122,-0.001832,-0.065715
2794,-0.008979,-0.001832,-0.047018
2795,-0.008979,0.017434,0.009072
2796,-0.008979,-0.001832,0.027769
2797,-0.008979,-0.001832,0.027769
2798,0.008122,-0.001832,0.046465
2799,0.008122,-0.001832,0.046465
2800,0.008122,-0.021098,0.009072
2801,0.008122,-0.001832,0.009072
2802,-0.008979,-0.021098,0.065162
2803,0.008122,-0.021098,0.046465
2804,-0.008979,-0.001832,-0.047018
2805,-0.008979,-0.021098,0.009072
2806,0.008122,-0.001832,-0.009625
2807,0.008122,0.017434,-0.065715
2808,0.025223,-0.001832,-0.009625
2809,-0.008979,-0.021098,0.027769
2810,-0.008979,0.017434,-0.028322
2811,-0.008979,-0.001832,-0.028322
2812,-0.008979,-0.021098,-0.028322
2813,-0.026081,-0.001832,-0.009625
2814,0.008122,0.0367,-0.009625
2815,0.025223,0.017434,0.009072
2816,-0.008979,-0.001832,-0.047018
2817,0.008122,-0.040364,-0.065715
2818,-0.008979,-0.021098,-0.028322
2819,-0.008979,-0.021098,0.009072
2820,-0.008979,-0.021098,0.009072
2821,0.008122,-0.001832,0.027769
2822,-0.008979,-0.021098,0.065162
2823,-0.008979,-0.001832,0.009072
2824,-0.008979,0.017434,-0.028322
2825,-0.008979,0.0367,-0.028322
2826,-0.008979,0.055966,-0.084412
2827,-0.008979,0.0367,-0.084412
2828,0.008122,-0.040364,-0.009625
2829,0.008122,-0.05963,-0.009625
2830,0.008122,-0.117428,0.009072
2831,0.008122,-0.078896,0.065162
2832,0.025223,-0.021098,0.083859
2833,-0.008979,-0.021098,0.046465
2834,-0.008979,-0.021098,0.027769
2835,0.008122,-0.001832,-0.009625
2836,0.008122,0.055966,0.009072
2837,0.008122,0.075232,0.046465
2838,-0.008979,0.017434,0.009072
2839,0.025223,-0.040364,-0.009625
2840,0.008122,-0.021098,-0.009625
2841,0.025223,0.055966,0.046465
2842,0.008122,0.094498,0.009072
2843,-0.008979,0.0367,-0.028322
2844,-0.008979,-0.001832,0.009072
2845,-0.008979,0.017434,0.009072
2846,-0.008979,0.0367,0.009072
2847,0.008122,0.075232,0.046465
2848,-0.008979,0.017434,0.027769
2849,0.025223,-0.021098,-0.009625
2850,0.008122,-0.001832,-0.047018
2851,0.008122,-0.001832,-0.009625
2852,0.008122,-0.001832,-0.028322
2853,-0.008979,0.017434,-0.009625
2854,0.008122,0.055966,0.009072
2855,0.008122,0.055966,-0.028322
2856,-0.008979,0.0367,-0.009625
2857,0.008122,0.0367,0.009072
2858,0.008122,0.017434,0.046465
2859,-0.008979,-0.040364,0.046465
2860,0.008122,-0.05963,0.065162
2861,0.008122,-0.040364,0.027769
2862,-0.008979,-0.040364,-0.009625
2863,-0.008979,-0.040364,0.009072
2864,-0.008979,-0.001832,0.009072
2865,-0.008979,0.0367,0.027769
2866,0.008122,0.0367,0.083859
2867,0.008122,0.0367,0.065162
2868,0.008122,-0.001832,0.009072
2869,0.008122,0.017434,0.009072
2870,0.008122,-0.001832,-0.028322
2871,0.008122,-0.021098,-0.103109
2872,-0.026081,-0.021098,-0.065715
2873,-0.008979,-0.001832,0.027769
2874,-0.008979,-0.001832,0.027769
2875,0.008122,-0.001832,-0.009625
2876,-0.008979,-0.021098,-0.009625
2877,-0.008979,0.017434,-0.065715
2878,-0.008979,-0.021098,-0.103109
2879,-0.008979,-0.001832,-0.028322
2880,0.008122,-0.021098,0.027769
2881,-0.008979,0.017434,0.027769
2882,-0.008979,0.017434,0.065162
2883,0.025223,-0.001832,0.065162
2884,0.008122,-0.021098,0.009072
2885,0.008122,-0.040364,-0.065715
2886,0.008122,-0.001832,-0.047018
2887,0.008122,-0.040364,-0.065715
2888,-0.008979,-0.078896,-0.028322
2889,-0.008979,-0.05963,0.009072
2890,-0.026081,-0.021098,-0.028322
2891,-0.008979,0.017434,0.027769
2892,0.008122,0.0367,0.027769
2893,-0.008979,0.0367,0.046465
2894,0.008122,0.0367,0.027769
2895,0.008122,0.0367,0.027769
2896,-0.008979,0.055966,0.027769
2897,0.008122,-0.001832,0.046465
2898,-0.008979,-0.040364,-0.009625
2899,0.008122,-0.001832,0.027769
2900,0.025223,0.0367,0.009072
2901,0.008122,0.075232,0.009072
2902,0.025223,0.055966,0.065162
2903,0.008122,-0.001832,-0.009625
2904,0.008122,-0.040364,0.027769
2905,0.008122,-0.040364,0.009072
2906,-0.008979,-0.021098,-0.009625
2907,-0.026081,-0.001832,-0.084412
2908,-0.008979,-0.001832,-0.028322
2909,0.008122,0.055966,-0.028322
2910,-0.008979,0.0367,-0.028322
2911,0.008122,0.017434,-0.047018
2912,0.008122,-0.021098,-0.028322
2913,0.025223,-0.001832,-0.028322
2914,-0.008979,-0.078896,-0.009625
2915,0.008122,-0.117428,0.009072
2916,0.008122,-0.136694,0.027769
2917,-0.026081,-0.078896,0.009072
2918,-0.008979,-0.05963,0.009072
2919,-0.026081,0.017434,0.009072
2920,-0.008979,0.0367,0.009072
2921,0.008122,0.075232,0.027769
2922,0.025223,0.13303,0.009072
2923,0.008122,0.113764,-0.009625
2924,0.025223,0.094498,0.009072
2925,0.008122,0.017434,-0.009625
2926,0.008122,0.055966,0.009072
2927,0.008122,0.017434,0.009072
2928,0.008122,0.017434,0.027769
2929,-0.008979,0.017434,0.009072
2930,-0.043182,0.017434,0.009072
2931,-0.008979,-0.021098,-0.009625
2932,-0.008979,0.0367,-0.009625
2933,-0.008979,-0.001832,-0.009625
2934,0.025223,-0.021098,0.009072
2935,0.008122,-0.05963,-0.009625
2936,-0.008979,-0.05963,-0.028322
2937,-0.008979,-0.040364,-0.009625
2938,-0.008979,-0.001832,0.009072
2939,0.008122,0.0367,0.009072
2940,0.008122,0.075232,0.046465
2941,0.008122,0.055966,0.102556
2942,0.008122,0.094498,0.009072
2943,-0.008979,0.055966,-0.009625
2944,0.008122,-0.001832,0.009072
2945,0.008122,0.017434,-0.009625
2946,-0.008979,0.017434,-0.028322
2947,-0.008979,-0.021098,0.009072
2948,0.025223,-0.021098,0.027769
2949,0.008122,0.017434,0.027769
2950,0.008122,-0.001832,0.046465
2951,0.008122,-0.021098,0.009072
2952,0.008122,-0.021098,-0.009625
2953,0.025223,-0.021098,0.009072
2954,0.008122,-0.05963,0.027769
2955,-0.026081,-0.05963,0.027769
2956,-0.008979,-0.001832,0.027769
2957,0.008122,0.075232,0.027769
2958,0.008122,0.055966,-0.028322
2959,0.025223,0.017434,-0.028322
2960,0.008122,0.017434,0.027769
2961,-0.026081,-0.040364,-0.028322
2962,-0.026081,-0.001832,-0.047018
2963,-0.008979,0.055966,0.027769
2964,0.008122,0.017434,0.046465
2965,0.008122,0.017434,0.027769
2966,0.025223,-0.001832,-0.009625
2967,0.008122,-0.021098,0.009072
2968,0.008122,-0.021098,0.009072
2969,0.008122,0.017434,-0.028322
2970,0.008122,0.017434,-0.103109
2971,0.025223,-0.040364,-0.065715
2972,0.008122,-0.001832,-0.028322
2973,0.008122,-0.021098,0.009072
2974,0.025223,-0.001832,-0.009625
2975,0.008122,-0.021098,0.009072
2976,-0.008979,-0.021098,0.027769
2977,-0.008979,-0.021098,0.065162
2978,-0.026081,0.017434,0.065162
2979,-0.008979,0.0367,0.083859
2980,0.008122,0.055966,0.065162
2981,0.008122,-0.021098,0.065162
2982,0.008122,-0.001832,0.027769
2983,0.008122,-0.021098,0.027769
2984,0.025223,-0.001832,-0.065715
2985,0.025223,-0.001832,-0.103109
2986,0.008122,-0.021098,-0.065715
2987,0.008122,-0.040364,-0.047018
2988,0.008122,-0.001832,0.009072
2989,0.008122,-0.021098,-0.009625
2990,0.008122,0.0367,-0.009625
2991,-0.008979,0.055966,0.009072
2992,0.008122,0.055966,0.027769
2993,-0.008979,-0.001832,0.009072
2994,-0.008979,-0.001832,-0.009625
2995,-0.008979,-0.001832,-0.065715
2996,-0.008979,-0.001832,-0.047018
2997,0.008122,-0.021098,-0.028322
2998,0.008122,-0.021098,0.009072
2999,-0.008979,-0.021098,0.027769
3000,0.008122,-0.05963,-0.028322
3001,0.008122,-0.040364,-0.009625
3002,0.008122,-0.040364,-0.028322
3003,0.008122,-0.05963,0.009072
3004,-0.008979,-0.05963,0.027769
3005,-0.008979,-0.040364,0.009072
3006,-0.026081,-0.05963,0.009072
3007,0.008122,-0.021098,0.009072
3008,-0.026081,-0.001832,-0.009625
3009,-0.008979,-0.001832,0.009072
3010,-0.008979,0.017434,-0.009625
3011,-0.026081,-0.021098,0.009072
3012,-0.008979,-0.078896,0.027769
3013,0.008122,-0.05963,0.009072
3014,0.008122,0.017434,0.009072
3015,-0.008979,-0.001832,-0.009625
3016,-0.008979,0.055966,-0.047018
3017,0.008122,0.171562,0.009072
3018,0.025223,0.248626,-0.009625
3019,0.042325,0.248626,-0.009625
3020,0.008122,0.075232,0.009072
3021,0.008122,0.055966,0.009072
3022,0.008122,0.055966,-0.009625
3023,0.008122,0.0367,0.009072
3024,0.008122,0.094498,0.027769
3025,0.025223,0.055966,0.046465
3026,0.025223,0.055966,0.046465
3027,0.008122,0.017434,0.065162
3028,-0.008979,-0.001832,0.046465
3029,-0.008979,0.017434,0.046465
3030,0.025223,-0.001832,0.027769
3031,0.008122,-0.05963,-0.028322
3032,0.008122,-0.021098,-0.047018
3033,-0.008979,-0.021098,-0.009625
3034,0.008122,-0.001832,0.009072
3035,-0.008979,0.017434,-0.028322
3036,0.008122,-0.021098,0.046465
3037,0.025223,-0.040364,0.046465
3038,0.008122,-0.021098,-0.065715
3039,0.008122,-0.001832,-0.065715
3040,0.008122,-0.001832,0.009072
3041,0.008122,-0.021098,-0.009625
3042,0.008122,-0.021098,-0.028322
3043,-0.008979,0.017434,0.027769
3044,-0.008979,0.017434,0.009072
3045,-0.008979,-0.001832,-0.009625
3046,-0.008979,0.017434,0.009072
3047,0.008122,0.017434,0.009072
3048,0.025223,0.017434,-0.028322
3049,0.008122,-0.021098,-0.009625
3050,0.008122,-0.021098,-0.009625
3051,0.025223,-0.021098,-0.009625
3052,0.008122,-0.021098,-0.047018
3053,-0.008979,-0.001832,-0.009625
3054,-0.008979,-0.001832,0.009072
3055,-0.008979,-0.021098,0.009072
3056,0.008122,-0.021098,0.009072
3057,0.008122,-0.001832,0.009072
3058,0.025223,0.017434,0.009072
3059,-0.008979,-0.05963,0.027769
3060,-0.008979,-0.021098,0.027769
3061,-0.008979,-0.001832,0.009072
3062,0.008122,-0.001832,0.009072
3063,0.008122,-0.001832,0.065162
3064,0.008122,-0.021098,0.027769
3065,0.008122,-0.021098,0.027769
3066,0.025223,-0.001832,0.027769
3067,0.008122,0.017434,-0.009625
3068,-0.008979,-0.001832,-0.028322
3069,0.008122,-0.001832,0.009072
3070,0.025223,-0.040364,-0.028322
3071,-0.026081,-0.021098,-0.009625
3072,-0.008979,-0.021098,0.046465
3073,-0.026081,0.017434,0.102556
3074,-0.008979,0.017434,-0.028322
3075,-0.008979,0.017434,-0.028322
3076,-0.008979,-0.021098,-0.009625
3077,-0.008979,-0.021098,-0.065715
3078,-0.008979,-0.040364,-0.028322
3079,0.008122,-0.001832,-0.009625
3080,0.025223,-0.040364,-0.028322
3081,0.008122,-0.040364,-0.009625
3082,0.008122,-0.021098,0.027769
3083,0.008122,-0.05963,-0.028322
3084,0.008122,-0.05963,-0.009625
3085,-0.008979,-0.05963,0.009072
3086,-0.008979,-0.040364,0.009072
3087,-0.008979,-0.021098,-0.009625
3088,0.008122,-0.021098,0.046465
3089,0.008122,0.055966,0.027769
3090,0.025223,0.055966,0.027769
3091,-0.026081,0.075232,0.046465
3092,0.008122,0.113764,0.065162
3093,0.008122,0.094498,0.009072
3094,0.008122,0.075232,0.027769
3095,0.008122,0.017434,-0.028322
3096,-0.008979,-0.001832,-0.084412
3097,0.008122,-0.021098,-0.028322
3098,-0.008979,-0.040364,0.027769
3099,0.008122,-0.021098,0.065162
3100,-0.008979,-0.05963,0.046465
3101,-0.008979,-0.05963,0.046465
3102,0.008122,-0.001832,-0.028322
3103,0.008122,0.0367,-0.084412
3104,-0.008979,0.075232,-0.028322
3105,0.008122,0.0367,-0.028322
3106,0.008122,-0.001832,-0.028322
3107,-0.008979,-0.021098,0.009072
3108,0.008122,0.017434,-0.009625
3109,-0.026081,-0.040364,0.009072
3110,-0.008979,-0.098162,-0.009625
3111,0.008122,-0.117428,-0.009625
3112,0.025223,-0.040364,0.009072
3113,0.008122,0.017434,-0.009625
3114,0.008122,0.0367,0.027769
3115,-0.008979,-0.021098,-0.009625
3116,-0.008979,0.0367,-0.009625
3117,0.025223,0.075232,0.027769
3118,0.025223,0.075232,0.027769
3119,-0.008979,0.017434,-0.009625
3120,-0.026081,-0.05963,0.027769
3121,-0.026081,-0.021098,0.046465
3122,0.025223,0.055966,0.027769
3123,0.042325,0.152296,0.027769
3124,0.025223,0.13303,0.065162
3125,0.008122,0.113764,0.009072
3126,-0.008979,0.075232,0.009072
3127,0.025223,0.017434,-0.047018
3128,0.008122,-0.05963,-0.065715
3129,-0.008979,-0.021098,-0.065715
3130,-0.008979,-0.040364,-0.028322
3131,-0.008979,-0.040364,-0.065715
3132,0.008122,-0.021098,-0.028322
3133,-0.008979,-0.001832,-0.009625
3134,0.025223,0.0367,0.046465
3135,0.008122,0.017434,0.027769
3136,-0.008979,0.017434,0.027769
3137,-0.026081,0.017434,0.046465
3138,-0.026081,0.017434,0.009072
3139,-0.008979,-0.001832,0.027769
3140,-0.008979,-0.021098,-0.009625
3141,-0.008979,-0.040364,-0.009625
3142,-0.008979,-0.05963,-0.047018
3143,-0.043182,-0.040364,-0.028322
3144,0.008122,-0.040364,-0.047018
3145,-0.008979,-0.021098,-0.009625
3146,0.008122,-0.001832,0.009072
3147,-0.008979,-0.001832,0.046465
3148,0.008122,0.017434,0.027769
3149,0.025223,0.017434,0.027769
3150,-0.008979,-0.021098,-0.009625
3151,-0.008979,-0.001832,-0.009625
3152,0.008122,0.017434,0.046465
3153,0.008122,0.0367,0.046465
3154,0.008122,0.0367,0.009072
3155,0.025223,0.017434,0.027769
3156,0.025223,0.0367,0.046465
3157,0.008122,-0.001832,0.009072
3158,-0.008979,0.017434,0.046465
3159,-0.008979,0.017434,0.046465
3160,-0.008979,0.017434,-0.009625
3161,-0.008979,-0.001832,0.009072
3162,0.008122,-0.001832,0.065162
3163,0.008122,-0.021098,0.065162
3164,-0.008979,-0.021098,0.009072
3165,0.008122,-0.040364,-0.028322
3166,0.025223,-0.001832,-0.047018
3167,0.025223,-0.001832,-0.047018
3168,-0.008979,-0.001832,-0.009625
3169,-0.008979,-0.001832,0.027769
3170,-0.008979,-0.001832,0.009072
3171,-0.008979,-0.021098,-0.009625
3172,-0.008979,-0.021098,-0.009625
3173,-0.008979,-0.001832,0.027769
3174,0.025223,-0.001832,0.027769
3175,0.008122,-0.021098,0.009072
3176,0.008122,-0.021098,-0.047018
3177,0.008122,-0.05963,-0.028322
3178,-0.008979,-0.040364,-0.028322
3179,-0.008979,-0.021098,-0.028322
3180,0.008122,-0.001832,-0.028322
3181,0.008122,0.017434,0.009072
3182,0.008122,0.0367,0.027769
3183,0.008122,0.075232,0.009072
3184,0.008122,0.0367,0.027769
3185,-0.008979,0.055966,0.027769
3186,0.008122,0.017434,-0.009625
3187,0.025223,-0.001832,0.009072
3188,0.008122,0.0367,0.027769
3189,-0.026081,-0.001832,-0.028322
3190,-0.026081,-0.040364,-0.028322
3191,-0.008979,-0.078896,0.027769
3192,-0.008979,-0.078896,-0.009625
3193,-0.008979,-0.098162,-0.009625
3194,0.008122,-0.040364,-0.009625
3195,-0.008979,-0.001832,0.027769
3196,-0.008979,0.017434,0.009072
3197,0.008122,0.113764,0.065162
3198,0.008122,0.152296,0.046465
3199,0.008122,0.094498,0.046465
3200,0.008122,0.0367,0.046465
3201,0.025223,0.0367,0.046465
3202,0.008122,0.0367,-0.028322
3203,0.008122,-0.021098,-0.047018
3204,-0.008979,-0.05963,-0.047018
3205,0.008122,-0.040364,-0.028322
3206,-0.008979,-0.05963,0.009072
3207,-0.008979,-0.040364,0.009072
3208,-0.008979,-0.021098,0.046465
3209,-0.008979,-0.021098,-0.009625
3210,-0.008979,-0.05963,-0.009625
3211,0.008122,-0.040364,-0.028322
3212,-0.008979,-0.001832,-0.009625
3213,-0.008979,-0.021098,-0.028322
3214,-0.008979,0.017434,0.009072
3215,-0.008979,0.055966,-0.028322
3216,0.008122,0.094498,0.009072
3217,0.025223,0.171562,-0.028322
3218,0.025223,0.152296,-0.065715
3219,0.008122,0.017434,-0.009625
3220,0.042325,-0.001832,-0.028322
3221,-0.008979,-0.021098,-0.028322
3222,-0.008979,0.017434,0.027769
3223,-0.008979,-0.001832,0.009072
3224,0.008122,0.0367,-0.009625
3225,0.008122,0.017434,-0.028322
3226,0.008122,-0.001832,0.009072
3227,0.008122,-0.021098,0.009072
3228,0.008122,-0.001832,-0.009625
3229,0.008122,-0.021098,0.009072
3230,0.008122,-0.05963,0.027769
3231,0.025223,-0.078896,0.027769
3232,0.008122,-0.05963,0.065162
3233,0.008122,-0.001832,0.065162
3234,0.008122,0.017434,0.027769
3235,0.008122,0.055966,0.046465
3236,-0.008979,0.075232,0.027769
3237,0.008122,0.094498,0.009072
3238,0.008122,0.055966,-0.047018
3239,0.008122,-0.001832,-0.065715
3240,0.008122,-0.021098,-0.047018
3241,0.008122,-0.040364,-0.009625
3242,-0.008979,-0.040364,0.027769
3243,-0.008979,-0.021098,0.046465
3244,-0.008979,-0.021098,0.046465
3245,0.025223,-0.021098,0.065162
3246,0.008122,0.0367,0.009072
3247,0.008122,0.055966,-0.028322
3248,0.008122,0.017434,-0.009625
3249,0.008122,-0.040364,-0.028322
3250,-0.008979,-0.05963,-0.028322
3251,0.008122,-0.001832,-0.028322
3252,0.008122,-0.001832,0.009072
3253,0.008122,0.017434,-0.028322
3254,0.008122,0.055966,0.009072
3255,0.008122,0.055966,0.027769
3256,0.008122,0.055966,-0.028322
3257,0.008122,0.055966,0.009072
3258,-0.008979,-0.021098,0.027769
3259,-0.026081,0.017434,0.009072
3260,-0.008979,-0.001832,0.027769
3261,0.008122,0.017434,-0.009625
3262,0.008122,-0.021098,-0.028322
3263,-0.008979,-0.05963,-0.028322
3264,-0.008979,-0.078896,-0.028322
3265,-0.008979,-0.098162,0.027769
3266,0.025223,-0.078896,-0.047018
3267,0.008122,-0.021098,0.009072
3268,0.008122,-0.001832,0.027769
3269,-0.008979,-0.001832,0.009072
3270,0.008122,-0.001832,0.046465
3271,0.008122,0.017434,0.065162
3272,0.008122,0.0367,-0.028322
3273,0.008122,0.0367,-0.028322
3274,-0.008979,-0.001832,-0.009625
3275,-0.026081,0.017434,-0.009625
3276,0.025223,0.094498,-0.009625
3277,0.008122,0.075232,0.009072
3278,0.008122,0.017434,0.027769
3279,-0.008979,-0.040364,-0.009625
3280,0.008122,-0.098162,0.027769
3281,-0.008979,-0.05963,0.027769
3282,0.008122,-0.040364,0.046465
3283,-0.008979,-0.040364,0.065162
3284,-0.026081,-0.078896,0.027769
3285,-0.008979,-0.021098,0.027769
3286,0.025223,0.0367,-0.028322
3287,0.008122,0.055966,0.009072
3288,-0.008979,-0.001832,-0.047018
3289,-0.008979,0.0367,-0.065715
3290,0.008122,0.055966,-0.009625
3291,0.025223,0.171562,0.027769
3292,0.025223,0.075232,-0.047018
3293,0.008122,0.017434,-0.028322
3294,0.008122,-0.001832,-0.009625
3295,-0.008979,-0.040364,-0.009625
3296,-0.008979,-0.040364,-0.028322
3297,0.008122,-0.001832,-0.009625
3298,0.008122,0.0367,-0.028322
3299,0.025223,0.094498,-0.047018
3300,0.008122,0.075232,0.009072
3301,0.008122,0.0367,-0.009625
3302,-0.008979,-0.001832,-0.028322
3303,-0.008979,-0.001832,0.027769
3304,0.008122,-0.001832,0.046465
3305,-0.008979,-0.001832,0.046465
3306,-0.008979,-0.021098,0.046465
3307,0.008122,-0.040364,0.027769
3308,0.008122,-0.021098,0.009072
3309,-0.008979,-0.021098,0.009072
3310,0.008122,0.0367,0.027769
3311,-0.008979,0.055966,-0.009625
3312,-0.008979,-0.021098,-0.009625
3313,-0.008979,0.017434,0.009072
3314,-0.008979,-0.001832,-0.028322
3315,0.008122,0.094498,-0.028322
3316,0.008122,0.017434,-0.009625
3317,-0.026081,-0.021098,0.027769
3318,-0.008979,0.017434,0.027769
3319,0.008122,-0.001832,0.027769
3320,0.008122,-0.001832,0.027769
3321,0.008122,-0.001832,0.009072
3322,0.008122,-0.021098,0.027769
3323,0.008122,-0.001832,0.027769
3324,-0.008979,-0.021098,-0.009625
3325,-0.008979,-0.021098,-0.028322
3326,-0.008979,-0.001832,-0.028322
3327,-0.008979,-0.001832,-0.028322
3328,0.008122,-0.001832,0.009072
3329,0.008122,-0.05963,0.027769
3330,-0.008979,-0.05963,-0.009625
3331,-0.008979,-0.05963,-0.028322
3332,-0.008979,-0.078896,-0.028322
3333,-0.008979,-0.021098,-0.009625
3334,-0.008979,-0.001832,-0.009625
3335,0.008122,-0.001832,0.027769
3336,0.025223,0.017434,0.027769
3337,0.008122,0.017434,0.027769
3338,-0.008979,0.017434,0.046465
3339,0.025223,-0.021098,0.027769
3340,0.008122,0.017434,-0.009625
3341,-0.008979,0.0367,0.009072
3342,0.008122,0.0367,0.009072
3343,-0.008979,0.017434,-0.009625
3344,-0.008979,-0.001832,0.027769
3345,0.008122,-0.021098,-0.028322
3346,0.008122,-0.040364,-0.028322
3347,0.025223,-0.001832,-0.028322
3348,-0.008979,0.017434,0.046465
3349,0.008122,0.0367,-0.009625
3350,0.008122,0.075232,0.027769
3351,0.008122,0.017434,0.027769
3352,0.008122,-0.021098,0.009072
3353,0.025223,-0.040364,0.027769
3354,-0.008979,-0.001832,0.065162
3355,-0.008979,-0.001832,0.046465
3356,-0.008979,-0.021098,0.046465
3357,-0.008979,-0.001832,0.065162
3358,0.008122,0.017434,-0.009625
3359,-0.008979,0.055966,-0.047018
3360,0.025223,0.017434,-0.065715
3361,-0.008979,-0.05963,0.009072
3362,0.008122,-0.098162,-0.028322
3363,0.025223,-0.098162,0.009072
3364,-0.008979,-0.098162,0.046465
3365,-0.008979,-0.040364,0.027769
3366,-0.026081,-0.021098,0.009072
3367,0.008122,0.055966,-0.028322
3368,-0.008979,0.075232,-0.065715
3369,-0.008979,0.055966,-0.084412
3370,0.008122,0.0367,0.009072
3371,0.008122,0.0367,0.009072
3372,-0.008979,0.055966,-0.009625
3373,0.008122,0.0367,0.027769
3374,0.008122,0.075232,0.065162
3375,0.008122,0.055966,-0.009625
3376,0.008122,0.0367,-0.028322
3377,0.008122,0.075232,0.027769
3378,0.008122,0.075232,0.027769
3379,0.025223,0.055966,0.027769
3380,0.025223,0.017434,-0.009625
3381,0.008122,-0.021098,-0.084412
3382,-0.008979,-0.078896,-0.047018
3383,-0.008979,-0.15596,0.009072
3384,0.008122,-0.213758,-0.009625
3385,0.008122,-0.175226,-0.009625
3386,0.008122,-0.117428,0.009072
3387,-0.026081,-0.078896,0.027769
3388,-0.026081,0.017434,0.009072
3389,0.008122,0.13303,0.009072
3390,0.042325,0.22936,0.027769
3391,0.042325,0.248626,0.009072
3392,0.008122,0.13303,0.065162
3393,-0.008979,0.017434,0.009072
3394,0.025223,-0.001832,-0.009625
3395,0.008122,0.0367,-0.065715
3396,0.025223,0.055966,-0.028322
3397,-0.008979,0.017434,-0.047018
3398,0.008122,-0.001832,-0.009625
3399,0.008122,0.017434,0.009072
3400,0.008122,-0.001832,0.046465
3401,0.008122,-0.021098,0.027769
3402,0.008122,-0.040364,0.046465
3403,-0.008979,-0.021098,0.009072
3404,-0.008979,-0.021098,-0.065715
3405,0.008122,-0.001832,0.027769
3406,-0.008979,-0.001832,-0.009625
3407,0.008122,-0.001832,-0.009625
3408,-0.008979,0.017434,-0.009625
3409,0.008122,-0.001832,0.009072
3410,-0.026081,-0.001832,-0.028322
3411,0.008122,0.017434,0.009072
3412,0.008122,-0.021098,0.009072
3413,-0.008979,-0.021098,0.027769
3414,-0.008979,-0.040364,0.027769
3415,0.008122,-0.040364,0.046465
3416,0.008122,-0.001832,0.027769
3417,0.008122,-0.021098,0.009072
3418,0.008122,-0.001832,0.009072
3419,0.008122,-0.001832,0.009072
3420,0.008122,-0.001832,-0.028322
3421,-0.008979,0.017434,-0.009625
3422,0.008122,-0.021098,0.009072
3423,0.008122,-0.001832,-0.009625
3424,-0.008979,0.017434,0.009072
3425,-0.008979,-0.021098,0.027769
3426,0.008122,0.017434,0.065162
3427,0.008122,-0.001832,0.009072
3428,0.008122,-0.001832,0.027769
3429,-0.008979,-0.001832,0.027769
3430,-0.008979,-0.001832,0.027769
3431,-0.008979,-0.021098,0.009072
3432,0.025223,-0.001832,-0.009625
3433,-0.008979,-0.021098,-0.084412
3434,-0.026081,-0.001832,-0.028322
3435,0.008122,0.017434,0.009072
3436,-0.008979,-0.040364,-0.028322
3437,0.008122,-0.001832,-0.009625
3438,-0.008979,-0.001832,0.065162
3439,0.008122,-0.001832,0.065162
3440,0.008122,-0.001832,0.046465
3441,-0.008979,0.017434,0.083859
3442,0.008122,-0.021098,-0.028322
3443,0.008122,-0.001832,-0.047018
3444,0.025223,-0.040364,-0.028322
3445,0.008122,-0.040364,-0.084412
3446,0.008122,-0.040364,-0.140502
3447,-0.008979,-0.05963,-0.065715
3448,-0.008979,-0.040364,-0.009625
3449,-0.008979,-0.078896,-0.028322
3450,-0.008979,-0.098162,-0.009625
3451,-0.008979,-0.001832,0.046465
3452,0.025223,0.0367,0.009072
3453,-0.008979,0.0367,0.009072
3454,0.008122,0.055966,0.046465
3455,0.008122,0.0367,0.046465
3456,0.008122,0.0367,-0.028322
3457,-0.026081,-0.021098,-0.028322
3458,-0.026081,-0.021098,-0.028322
3459,-0.008979,-0.001832,-0.028322
3460,-0.026081,-0.001832,0.009072
3461,-0.026081,0.017434,0.027769
3462,-0.008979,0.055966,-0.009625
3463,-0.008979,0.0367,0.009072
3464,0.008122,0.0367,0.009072
3465,0.008122,0.017434,-0.009625
3466,0.025223,0.0367,0.009072
3467,0.008122,0.055966,0.009072
3468,0.008122,0.055966,0.009072
3469,0.008122,0.017434,-0.009625
3470,0.008122,0.055966,0.046465
3471,0.008122,-0.040364,0.009072
3472,-0.008979,-0.05963,0.009072
3473,-0.008979,-0.021098,0.046465
3474,0.008122,-0.021098,0.046465
3475,-0.026081,-0.021098,-0.009625
3476,0.008122,-0.001832,-0.028322
3477,-0.008979,0.0367,0.009072
3478,-0.026081,0.055966,-0.028322
3479,0.008122,0.0367,-0.047018
3480,0.008122,0.055966,0.027769
3481,0.008122,0.0367,-0.009625
3482,-0.008979,-0.021098,-0.028322
3483,0.008122,-0.05963,0.009072
3484,-0.026081,-0.136694,-0.028322
3485,-0.026081,-0.15596,-0.028322
3486,-0.008979,-0.05963,0.009072
3487,-0.026081,-0.021098,0.065162
3488,0.008122,0.075232,0.046465
3489,-0.008979,0.075232,0.102556
3490,-0.008979,0.094498,0.065162
3491,0.025223,0.113764,0.065162
3492,0.025223,0.094498,-0.028322
3493,0.008122,0.075232,0.009072
3494,-0.008979,0.0367,-0.009625
3495,-0.008979,-0.001832,-0.047018
3496,0.025223,0.055966,-0.065715
3497,-0.008979,-0.001832,-0.084412
3498,0.008122,-0.001832,-0.028322
3499,-0.008979,-0.021098,0.009072
3500,0.008122,-0.021098,0.027769
3501,0.008122,-0.001832,-0.009625
3502,0.008122,-0.001832,-0.009625
3503,0.008122,0.017434,-0.009625
3504,-0.008979,-0.001832,-0.009625
3505,0.008122,0.0367,-0.028322
3506,-0.008979,0.017434,0.009072
3507,-0.026081,-0.001832,-0.009625
3508,-0.008979,-0.001832,0.009072
3509,-0.008979,-0.021098,0.009072
3510,-0.008979,-0.001832,0.009072
3511,-0.026081,-0.05963,-0.009625
3512,-0.008979,-0.040364,0.009072
3513,0.008122,-0.001832,0.009072
3514,0.025223,0.017434,-0.009625
3515,0.008122,0.017434,0.027769
3516,-0.008979,0.017434,0.009072
3517,-0.008979,0.017434,-0.009625
3518,0.025223,-0.001832,-0.009625
3519,0.025223,-0.021098,0.027769
3520,0.025223,-0.001832,0.009072
3521,0.008122,-0.021098,0.027769
3522,-0.008979,0.017434,0.065162
3523,-0.008979,0.017434,0.102556
3524,0.008122,-0.001832,0.046465
3525,-0.008979,-0.021098,0.027769
3526,0.008122,-0.001832,0.009072
3527,0.008122,-0.001832,-0.065715
3528,-0.008979,-0.021098,-0.065715
3529,0.008122,-0.078896,-0.047018
3530,0.008122,-0.098162,-0.028322
3531,-0.008979,-0.078896,0.027769
3532,0.008122,-0.078896,0.046465
3533,0.008122,-0.040364,-0.009625
3534,-0.008979,-0.001832,-0.009625
3535,-0.008979,-0.001832,0.009072
3536,-0.008979,0.0367,0.027769
3537,-0.008979,0.0367,0.065162
3538,-0.008979,-0.021098,0.083859
3539,0.008122,-0.021098,0.065162
3540,0.008122,0.017434,0.027769
3541,0.008122,0.0367,-0.009625
3542,-0.008979,0.0367,-0.065715
3543,0.008122,0.0367,-0.103109
3544,0.008122,0.055966,-0.084412
3545,0.008122,0.055966,-0.065715
3546,0.008122,0.017434,-0.028322
3547,-0.008979,-0.05963,-0.009625
3548,-0.008979,-0.078896,0.046465
3549,-0.008979,-0.001832,0.027769
3550,-0.008979,0.0367,0.027769
3551,-0.026081,0.017434,-0.028322
3552,0.008122,0.094498,-0.009625
3553,0.025223,0.152296,0.009072
3554,0.025223,0.094498,0.027769
3555,0.008122,0.055966,-0.028322
3556,0.008122,0.0367,-0.009625
3557,0.008122,0.017434,0.027769
3558,0.008122,-0.040364,0.065162
3559,-0.008979,-0.05963,0.027769
3560,0.008122,-0.040364,0.027769
3561,-0.008979,-0.078896,0.027769
3562,-0.008979,-0.021098,-0.028322
3563,0.008122,0.017434,-0.009625
3564,0.008122,0.0367,-0.028322
3565,0.008122,0.055966,-0.028322
3566,0.025223,0.094498,-0.028322
3567,-0.008979,0.0367,-0.065715
3568,0.008122,0.017434,-0.028322
3569,0.025223,0.017434,-0.009625
3570,0.008122,0.017434,0.027769
3571,-0.008979,-0.001832,0.046465
3572,0.008122,-0.05963,0.027769
3573,0.008122,-0.078896,0.065162
3574,-0.008979,-0.078896,0.046465
3575,-0.008979,-0.078896,0.009072
3576,-0.008979,-0.05963,-0.009625
3577,-0.043182,-0.040364,-0.009625
3578,-0.026081,-0.021098,-0.028322
3579,0.008122,0.055966,-0.047018
3580,0.008122,0.094498,-0.028322
3581,0.042325,0.094498,-0.028322
3582,0.008122,0.0367,0.009072
3583,-0.008979,-0.001832,0.009072
3584,0.025223,0.0367,0.046465
3585,0.008122,-0.001832,0.027769
3586,0.025223,-0.021098,0.046465
3587,0.025223,-0.021098,0.009072
3588,0.008122,-0.05963,-0.009625
3589,-0.008979,-0.021098,-0.009625
3590,-0.026081,-0.021098,0.009072
3591,0.008122,-0.021098,0.009072
3592,-0.008979,-0.001832,-0.009625
3593,-0.008979,-0.021098,0.009072
3594,0.025223,0.017434,-0.028322
3595,-0.008979,-0.021098,0.009072
3596,-0.008979,-0.021098,0.009072
3597,-0.008979,-0.040364,0.027769
3598,0.008122,0.017434,0.009072
3599,0.008122,-0.001832,0.083859
3600,0.008122,-0.021098,0.065162
3601,-0.008979,-0.05963,0.027769
3602,0.025223,-0.021098,-0.009625
3603,0.008122,-0.021098,-0.028322
3604,0.008122,-0.021098,-0.121806
3605,-0.008979,-0.021098,-0.065715
3606,-0.008979,0.017434,-0.028322
3607,-0.026081,0.055966,0.027769
3608,-0.008979,0.0367,0.009072
3609,0.008122,0.0367,0.065162
3610,0.008122,-0.021098,0.046465
3611,0.008122,-0.021098,0.046465
3612,0.008122,-0.05963,0.083859
3613,0.008122,-0.021098,0.065162
3614,0.025223,0.017434,0.027769
3615,0.008122,0.0367,0.009072
3616,0.008122,0.055966,-0.047018
3617,-0.008979,0.0367,-0.121806
3618,0.008122,-0.001832,-0.047018
3619,-0.008979,-0.001832,0.009072
3620,0.008122,-0.001832,-0.028322
3621,-0.008979,-0.021098,0.009072
3622,0.008122,-0.001832,0.027769
3623,0.008122,-0.040364,0.027769
3624,0.008122,-0.021098,0.009072
3625,-0.008979,-0.040364,-0.009625
3626,-0.008979,-0.021098,-0.047018
3627,-0.008979,-0.021098,-0.047018
3628,0.008122,-0.040364,-0.009625
3629,-0.008979,-0.040364,0.009072
3630,-0.008979,-0.05963,-0.009625
