# Requested Sampling Rate (Hz):,1000
# Actual Sampling Rate (Hz):,1008.575
# Requested Duration (s):,5.0
# Actual Duration (s):,4.998
# REST Calibration:,831.5250689655151,832.0950689655182,831.5147931034478
# MAX Calibration:,890.0000,884.0000,885.0000
# Normalization: MVC-based  (x_norm = (x - REST) / (MAX - REST))
sample_idx,EMG1,EMG2,EMG3
0,0.008122,-0.001832,-0.065715
1,0.008122,-0.001832,-0.009625
2,0.008122,0.0367,0.009072
3,-0.008979,-0.021098,0.027769
4,-0.008979,-0.040364,0.009072
5,-0.008979,-0.05963,0.027769
6,0.008122,-0.040364,0.009072
7,0.008122,-0.021098,0.009072
8,-0.008979,-0.040364,0.027769
9,-0.008979,0.017434,0.046465
10,0.008122,0.055966,0.027769
11,0.008122,0.017434,0.065162
12,0.008122,0.0367,0.009072
13,0.008122,-0.001832,0.027769
14,-0.008979,-0.021098,0.009072
15,-0.008979,-0.021098,-0.047018
16,-0.008979,-0.021098,-0.047018
17,0.008122,-0.021098,-0.028322
18,-0.008979,0.0367,-0.047018
19,0.008122,0.055966,-0.047018
20,0.008122,0.0367,-0.028322
21,0.008122,0.0367,-0.009625
22,0.008122,0.0367,-0.028322
23,-0.008979,0.0367,0.009072
24,0.025223,-0.001832,0.046465
25,-0.008979,-0.001832,0.009072
26,0.008122,0.017434,0.027769
27,0.008122,-0.001832,0.009072
28,0.008122,-0.001832,-0.028322
29,-0.008979,-0.001832,-0.028322
30,-0.008979,-0.001832,0.027769
31,-0.026081,-0.001832,0.009072
32,-0.026081,-0.040364,0.027769
33,-0.008979,-0.040364,0.065162
34,0.008122,-0.021098,0.009072
35,-0.008979,0.0367,-0.009625
36,0.008122,0.017434,-0.028322
37,0.025223,-0.001832,-0.047018
38,0.008122,0.017434,0.027769
39,0.008122,0.017434,0.027769
40,0.008122,-0.001832,-0.009625
41,-0.008979,-0.021098,-0.009625
42,0.008122,0.017434,0.027769
43,-0.008979,-0.001832,-0.009625
44,0.008122,-0.021098,-0.047018
45,-0.008979,0.0367,-0.009625
46,-0.008979,0.0367,0.027769
47,0.008122,0.055966,0.046465
48,0.008122,0.017434,0.027769
49,-0.008979,-0.021098,-0.009625
50,0.008122,-0.001832,-0.009625
51,0.008122,-0.001832,0.065162
52,0.008122,-0.001832,0.046465
53,0.025223,-0.021098,0.009072
54,0.025223,-0.001832,0.009072
55,0.008122,-0.040364,-0.084412
56,-0.008979,-0.040364,-0.047018
57,0.008122,-0.001832,-0.009625
58,-0.008979,-0.040364,0.009072
59,0.008122,-0.001832,0.009072
60,-0.008979,0.0367,-0.009625
61,-0.008979,0.0367,0.009072
62,-0.008979,-0.001832,-0.009625
63,-0.008979,0.017434,0.009072
64,-0.008979,0.017434,-0.028322
65,-0.008979,0.017434,-0.009625
66,0.008122,0.017434,-0.009625
67,0.025223,-0.001832,0.027769
68,0.008122,0.017434,-0.009625
69,0.008122,0.017434,0.027769
70,0.008122,0.017434,0.009072
71,-0.008979,0.017434,0.027769
72,-0.008979,-0.001832,0.009072
73,0.008122,-0.001832,0.027769
74,0.025223,0.017434,0.027769
75,0.008122,-0.021098,0.009072
76,-0.008979,-0.001832,0.009072
77,-0.008979,-0.021098,-0.009625
78,0.008122,-0.001832,-0.047018
79,0.008122,-0.001832,-0.009625
80,0.008122,0.017434,-0.009625
81,0.008122,0.017434,-0.028322
82,0.008122,0.017434,0.009072
83,0.025223,0.0367,-0.009625
84,0.025223,-0.021098,-0.028322
85,-0.008979,0.017434,0.009072
86,-0.008979,-0.001832,0.027769
87,-0.008979,-0.001832,0.009072
88,-0.008979,-0.021098,0.027769
89,-0.008979,-0.021098,-0.009625
90,-0.026081,-0.021098,0.009072
91,-0.008979,-0.040364,0.009072
92,0.008122,-0.040364,0.009072
93,-0.008979,-0.021098,-0.009625
94,0.008122,0.017434,0.027769
95,0.008122,-0.001832,-0.047018
96,0.008122,-0.001832,-0.065715
97,0.008122,0.017434,-0.065715
98,-0.008979,0.094498,0.009072
99,0.008122,-0.001832,-0.028322
100,0.008122,0.017434,0.027769
101,0.008122,0.017434,0.027769
102,0.025223,0.0367,0.027769
103,0.025223,0.0367,0.009072
104,0.008122,-0.001832,-0.009625
105,0.008122,0.017434,-0.009625
106,0.025223,-0.001832,0.027769
107,-0.008979,-0.021098,0.046465
108,-0.008979,-0.021098,-0.028322
109,-0.008979,-0.001832,-0.009625
110,0.008122,0.017434,0.009072
111,0.008122,-0.021098,-0.009625
112,0.008122,0.0367,-0.009625
113,-0.008979,0.017434,0.009072
114,-0.008979,-0.001832,-0.047018
115,-0.026081,-0.001832,-0.028322
116,0.008122,-0.001832,0.009072
117,-0.008979,-0.001832,-0.009625
118,0.025223,-0.001832,-0.009625
119,-0.008979,-0.001832,0.009072
120,-0.008979,-0.001832,0.009072
121,-0.008979,-0.021098,0.027769
122,-0.026081,-0.001832,0.009072
123,-0.008979,0.017434,-0.009625
124,0.008122,-0.021098,-0.009625
125,0.008122,0.0367,-0.009625
126,0.008122,0.017434,-0.028322
127,0.008122,0.0367,0.009072
128,-0.008979,0.0367,0.009072
129,0.008122,0.0367,0.027769
130,0.025223,0.0367,0.009072
131,0.025223,0.055966,0.009072
132,0.008122,-0.001832,0.009072
133,-0.008979,-0.001832,0.009072
134,0.008122,0.017434,0.027769
135,0.008122,0.017434,-0.009625
136,0.008122,0.017434,-0.009625
137,-0.008979,-0.001832,-0.009625
138,0.008122,0.017434,0.027769
139,0.008122,0.017434,-0.009625
140,0.008122,-0.040364,0.009072
141,0.008122,-0.021098,-0.009625
142,-0.026081,-0.078896,-0.009625
143,0.008122,-0.05963,0.027769
144,-0.008979,-0.040364,0.046465
145,-0.008979,-0.001832,0.027769
146,0.008122,0.017434,0.027769
147,-0.026081,0.0367,-0.009625
148,-0.008979,0.055966,0.027769
149,0.008122,0.055966,-0.047018
150,0.025223,0.055966,-0.047018
151,0.008122,-0.021098,-0.065715
152,-0.008979,-0.001832,-0.009625
153,-0.008979,-0.001832,-0.009625
154,-0.026081,-0.001832,-0.028322
155,-0.008979,-0.001832,-0.028322
156,-0.008979,-0.001832,0.009072
157,-0.008979,0.017434,0.027769
158,-0.008979,-0.001832,0.046465
159,-0.008979,0.0367,0.046465
160,0.008122,0.017434,0.027769
161,0.008122,-0.021098,0.046465
162,0.008122,-0.001832,-0.028322
163,-0.008979,-0.021098,-0.047018
164,0.008122,-0.021098,-0.047018
165,-0.008979,-0.040364,0.009072
166,-0.008979,-0.001832,-0.028322
167,0.008122,0.0367,-0.009625
168,0.008122,0.017434,0.027769
169,0.008122,0.017434,0.009072
170,-0.008979,0.0367,0.027769
171,0.008122,0.017434,0.027769
172,-0.008979,-0.021098,0.027769
173,-0.026081,0.017434,0.027769
174,0.008122,-0.001832,0.009072
175,0.008122,-0.001832,-0.047018
176,0.008122,-0.001832,-0.047018
177,0.008122,0.017434,-0.009625
178,0.008122,-0.021098,-0.047018
179,-0.008979,-0.001832,-0.009625
180,0.025223,-0.001832,0.009072
181,0.025223,-0.021098,0.027769
182,0.008122,-0.040364,0.027769
183,0.008122,-0.040364,0.046465
184,0.008122,-0.098162,0.027769
185,-0.008979,-0.040364,0.009072
186,-0.008979,-0.021098,-0.009625
187,0.008122,0.055966,-0.009625
188,0.025223,0.055966,-0.009625
189,0.025223,0.113764,0.009072
190,0.008122,0.075232,0.046465
191,-0.008979,0.075232,0.027769
192,0.008122,0.017434,0.009072
193,-0.008979,-0.001832,0.027769
194,-0.043182,-0.021098,0.009072
195,-0.008979,0.017434,0.027769
196,0.008122,0.017434,-0.009625
197,0.008122,-0.021098,-0.028322
198,0.008122,-0.001832,-0.028322
199,0.008122,-0.001832,-0.028322
200,0.008122,-0.05963,-0.028322
201,0.008122,-0.05963,-0.009625
202,0.008122,-0.001832,0.046465
203,-0.008979,-0.001832,0.009072
204,-0.008979,-0.001832,0.046465
205,0.008122,0.0367,0.009072
206,0.008122,0.075232,0.009072
207,-0.008979,0.094498,0.009072
208,0.008122,0.017434,0.009072
209,-0.008979,-0.021098,0.009072
210,-0.008979,0.017434,-0.009625
211,0.008122,-0.001832,-0.009625
212,0.008122,-0.001832,-0.028322
213,0.008122,-0.001832,-0.009625
214,-0.008979,-0.021098,0.027769
215,-0.008979,-0.001832,0.027769
216,0.008122,-0.021098,0.046465
217,0.008122,-0.021098,0.065162
218,0.008122,0.017434,0.027769
219,0.008122,-0.001832,0.027769
220,0.008122,0.017434,0.027769
221,0.008122,0.017434,-0.028322
222,0.025223,-0.001832,-0.084412
223,-0.008979,0.017434,-0.103109
224,-0.008979,-0.040364,-0.047018
225,-0.043182,-0.040364,-0.009625
226,-0.008979,-0.078896,-0.009625
227,-0.008979,-0.040364,-0.028322
228,-0.008979,0.017434,-0.009625
229,0.008122,0.055966,-0.047018
230,0.008122,0.0367,-0.009625
231,0.008122,0.017434,-0.028322
232,0.008122,0.0367,-0.009625
233,0.008122,0.017434,0.009072
234,0.008122,0.017434,0.009072
235,0.008122,-0.001832,0.027769
236,0.008122,-0.001832,0.027769
237,0.008122,-0.001832,0.065162
238,0.008122,0.017434,0.046465
239,0.008122,0.017434,0.027769
240,-0.026081,-0.001832,0.009072
241,-0.008979,-0.001832,-0.047018
242,-0.008979,-0.001832,-0.028322
243,0.008122,-0.001832,-0.047018
244,-0.008979,-0.021098,-0.028322
245,-0.008979,-0.001832,-0.009625
246,-0.008979,-0.021098,-0.009625
247,-0.008979,-0.040364,0.009072
248,0.008122,-0.021098,0.027769
249,0.008122,-0.021098,0.009072
250,0.008122,-0.021098,-0.009625
251,0.025223,0.017434,0.027769
252,-0.008979,0.017434,0.027769
253,-0.008979,-0.001832,0.027769
254,-0.008979,0.017434,0.009072
255,0.008122,0.0367,0.027769
256,0.025223,0.017434,0.009072
257,0.008122,-0.001832,0.027769
258,-0.008979,-0.001832,-0.009625
259,0.008122,-0.001832,-0.028322
260,-0.008979,-0.040364,-0.009625
261,-0.008979,-0.040364,-0.028322
262,-0.008979,0.017434,-0.028322
263,-0.008979,-0.001832,-0.009625
264,-0.008979,-0.001832,0.027769
265,-0.026081,-0.001832,0.009072
266,-0.008979,-0.001832,0.009072
267,0.008122,-0.001832,0.027769
268,0.025223,-0.001832,0.009072
269,0.008122,0.0367,0.046465
270,0.008122,-0.021098,0.027769
271,-0.008979,0.0367,0.009072
272,-0.008979,0.017434,-0.028322
273,0.008122,-0.001832,-0.028322
274,-0.008979,-0.05963,-0.047018
275,-0.008979,-0.05963,0.009072
276,0.008122,-0.05963,0.046465
277,-0.008979,-0.021098,0.083859
278,-0.008979,-0.021098,0.046465
279,-0.026081,0.0367,0.027769
280,-0.026081,0.075232,0.009072
281,0.008122,0.0367,-0.009625
282,0.008122,-0.021098,-0.084412
283,0.008122,-0.001832,-0.084412
284,0.025223,0.017434,-0.065715
285,0.008122,-0.001832,0.027769
286,-0.008979,0.017434,0.009072
287,-0.008979,0.017434,0.027769
288,-0.008979,0.0367,0.083859
289,0.008122,0.094498,0.027769
290,0.025223,0.055966,-0.009625
291,0.008122,0.055966,-0.009625
292,0.008122,0.0367,-0.084412
293,0.008122,0.017434,-0.065715
294,0.042325,-0.001832,-0.009625
295,0.008122,-0.001832,-0.047018
296,0.008122,-0.05963,-0.047018
297,-0.008979,-0.040364,-0.009625
298,-0.008979,-0.001832,0.009072
299,-0.043182,-0.021098,0.009072
300,0.008122,-0.001832,0.027769
301,0.008122,-0.021098,0.027769
302,-0.008979,-0.021098,0.009072
303,-0.008979,-0.001832,-0.028322
304,-0.008979,-0.021098,0.027769
305,-0.008979,-0.021098,-0.009625
306,0.008122,-0.021098,0.009072
307,-0.008979,0.017434,0.046465
308,-0.008979,0.017434,0.027769
309,-0.008979,0.0367,0.065162
310,0.008122,0.055966,0.065162
311,0.025223,0.055966,0.027769
312,-0.008979,0.0367,0.009072
313,0.008122,0.055966,-0.065715
314,0.025223,-0.001832,-0.065715
315,0.008122,-0.001832,-0.047018
316,0.008122,-0.021098,-0.009625
317,0.008122,-0.001832,-0.028322
318,0.008122,-0.001832,0.009072
319,-0.008979,-0.001832,0.046465
320,-0.008979,0.094498,0.027769
321,0.008122,-0.001832,-0.009625
322,0.008122,-0.001832,0.009072
323,0.008122,0.0367,-0.047018
324,0.008122,0.0367,-0.028322
325,0.008122,0.0367,-0.009625
326,0.008122,0.017434,-0.028322
327,-0.008979,-0.001832,-0.009625
328,-0.008979,-0.001832,0.009072
329,-0.008979,-0.021098,0.027769
330,-0.008979,-0.05963,0.027769
331,0.008122,-0.001832,0.027769
332,0.025223,0.017434,0.046465
333,0.008122,-0.021098,0.027769
334,0.008122,-0.001832,0.046465
335,-0.008979,-0.001832,0.046465
336,0.008122,0.055966,0.046465
337,0.008122,0.017434,0.009072
338,-0.008979,-0.001832,0.009072
339,-0.008979,-0.001832,-0.028322
340,-0.008979,0.017434,-0.065715
341,-0.008979,-0.021098,-0.065715
342,-0.008979,-0.001832,-0.065715
343,0.008122,-0.021098,0.009072
344,0.008122,-0.001832,0.027769
345,0.008122,-0.001832,0.009072
346,0.008122,-0.021098,0.009072
347,0.008122,-0.001832,0.009072
348,-0.008979,-0.001832,-0.009625
349,-0.008979,0.017434,-0.009625
350,-0.008979,-0.040364,-0.047018
351,-0.008979,-0.040364,-0.047018
352,-0.008979,-0.021098,0.027769
353,0.008122,-0.001832,0.027769
354,0.008122,-0.001832,0.009072
355,-0.008979,0.017434,-0.028322
356,-0.008979,0.055966,0.009072
357,-0.008979,0.0367,-0.009625
358,0.008122,0.055966,-0.028322
359,-0.008979,0.017434,0.027769
360,0.008122,-0.001832,0.009072
361,-0.026081,-0.001832,0.027769
362,-0.008979,0.0367,0.046465
363,0.008122,-0.001832,0.009072
364,0.008122,0.017434,0.009072
365,0.008122,0.017434,0.027769
366,-0.008979,-0.001832,-0.009625
367,0.008122,-0.040364,-0.028322
368,0.008122,-0.05963,-0.009625
369,-0.008979,-0.05963,0.009072
370,-0.008979,-0.040364,-0.028322
371,-0.008979,-0.021098,-0.009625
372,-0.008979,0.017434,0.027769
373,-0.008979,0.0367,0.009072
374,-0.008979,0.055966,0.027769
375,-0.026081,0.017434,0.027769
376,0.008122,0.017434,0.009072
377,0.008122,-0.021098,0.009072
378,0.025223,-0.021098,-0.028322
379,0.008122,-0.021098,0.009072
380,-0.008979,-0.021098,-0.009625
381,-0.008979,0.017434,0.009072
382,-0.008979,0.017434,-0.028322
383,0.008122,0.017434,-0.009625
384,0.025223,0.0367,0.009072
385,-0.008979,0.055966,-0.009625
386,0.008122,-0.001832,0.046465
387,-0.008979,-0.001832,0.065162
388,-0.008979,-0.021098,0.046465
389,0.008122,-0.021098,-0.009625
390,-0.008979,-0.021098,-0.009625
391,-0.008979,0.017434,-0.084412
392,0.008122,0.0367,-0.047018
393,-0.008979,0.0367,0.009072
394,0.008122,0.075232,0.009072
395,0.008122,0.055966,0.009072
396,-0.008979,0.017434,0.027769
397,0.008122,-0.021098,0.009072
398,-0.008979,-0.040364,-0.047018
399,0.008122,-0.078896,-0.028322
400,0.008122,-0.040364,-0.028322
401,-0.008979,-0.001832,-0.028322
402,0.008122,-0.021098,0.009072
403,0.008122,0.017434,0.027769
404,0.008122,0.0367,0.027769
405,0.008122,0.0367,0.046465
406,0.008122,0.0367,-0.009625
407,0.025223,0.017434,-0.028322
408,0.008122,0.0367,0.027769
409,0.008122,-0.001832,-0.009625
410,-0.008979,0.017434,-0.009625
411,0.008122,-0.001832,0.009072
412,-0.026081,-0.021098,-0.047018
413,-0.008979,-0.021098,-0.028322
414,-0.008979,0.017434,0.046465
415,-0.008979,-0.001832,0.065162
416,0.008122,-0.021098,0.027769
417,0.008122,-0.001832,0.027769
418,0.008122,0.0367,-0.009625
419,0.008122,0.055966,-0.065715
420,0.025223,0.0367,-0.047018
421,-0.008979,-0.001832,-0.009625
422,0.008122,-0.001832,-0.009625
423,0.008122,0.017434,0.009072
424,-0.008979,0.0367,0.027769
425,0.008122,0.017434,0.027769
426,0.008122,-0.001832,0.046465
427,-0.008979,0.017434,0.027769
428,-0.008979,-0.001832,-0.009625
429,-0.008979,-0.001832,0.009072
430,-0.008979,-0.021098,-0.009625
431,-0.008979,0.017434,-0.028322
432,0.008122,-0.040364,-0.009625
433,0.025223,-0.001832,0.009072
434,0.008122,0.017434,-0.009625
435,-0.008979,-0.05963,0.009072
436,0.008122,-0.098162,0.027769
437,-0.008979,-0.05963,0.009072
438,-0.008979,-0.078896,0.027769
439,-0.008979,-0.001832,-0.009625
440,-0.008979,0.017434,-0.009625
441,-0.008979,0.055966,-0.028322
442,0.025223,0.13303,0.009072
443,0.025223,0.075232,-0.009625
444,0.025223,0.0367,0.009072
445,0.008122,0.0367,-0.009625
446,0.008122,-0.001832,0.009072
447,0.025223,-0.021098,0.009072
448,0.008122,-0.021098,0.009072
449,0.008122,-0.001832,-0.009625
450,-0.008979,-0.021098,-0.028322
451,0.008122,0.017434,-0.009625
452,0.008122,-0.001832,-0.028322
453,-0.008979,-0.001832,-0.009625
454,-0.008979,0.017434,0.009072
455,-0.008979,0.017434,-0.009625
456,0.008122,0.017434,0.009072
457,0.008122,-0.021098,0.046465
458,0.008122,-0.001832,0.009072
459,-0.008979,0.017434,0.027769
460,-0.008979,-0.021098,0.009072
461,0.008122,-0.001832,-0.028322
462,-0.008979,0.017434,-0.047018
463,0.008122,-0.001832,-0.009625
464,-0.008979,-0.040364,-0.028322
465,-0.008979,-0.021098,0.009072
466,-0.008979,0.017434,0.027769
467,0.008122,-0.001832,0.027769
468,0.008122,-0.021098,0.009072
469,0.008122,0.017434,0.027769
470,-0.008979,0.017434,0.009072
471,-0.008979,-0.001832,0.009072
472,0.008122,0.017434,0.009072
473,0.008122,-0.001832,0.009072
474,0.025223,-0.021098,-0.009625
475,-0.008979,-0.001832,0.027769
476,-0.008979,0.017434,-0.047018
477,-0.008979,-0.001832,-0.084412
478,-0.026081,-0.001832,-0.028322
479,0.008122,-0.021098,0.009072
480,-0.008979,-0.001832,-0.009625
481,0.008122,-0.078896,0.009072
482,0.008122,-0.117428,-0.009625
483,-0.008979,-0.078896,-0.009625
484,-0.026081,-0.021098,-0.009625
485,0.008122,-0.001832,0.009072
486,-0.008979,0.055966,0.009072
487,0.008122,0.075232,0.027769
488,-0.008979,0.094498,0.065162
489,0.008122,0.094498,0.009072
490,-0.008979,0.055966,0.046465
491,-0.008979,0.0367,0.009072
492,-0.008979,0.017434,-0.047018
493,-0.008979,0.017434,-0.028322
494,0.008122,-0.001832,-0.009625
495,0.008122,0.017434,-0.009625
496,0.008122,0.017434,0.009072
497,0.008122,0.017434,0.027769
498,0.008122,0.017434,0.027769
499,0.008122,-0.021098,-0.009625
500,-0.008979,-0.021098,0.009072
501,0.008122,0.017434,-0.028322
502,-0.008979,-0.021098,-0.009625
503,-0.008979,0.017434,-0.009625
504,0.008122,-0.001832,-0.028322
505,-0.008979,-0.021098,-0.028322
506,-0.008979,0.017434,0.027769
507,-0.008979,-0.021098,-0.028322
508,0.008122,-0.001832,0.009072
509,0.008122,-0.001832,0.027769
510,0.025223,-0.021098,0.027769
511,0.008122,-0.001832,-0.009625
512,0.008122,-0.040364,0.027769
513,-0.043182,-0.098162,-0.009625
514,-0.008979,-0.001832,-0.028322
515,0.008122,0.017434,0.009072
516,0.008122,-0.001832,-0.009625
517,-0.008979,0.017434,0.009072
518,0.008122,-0.001832,-0.028322
519,-0.008979,0.017434,0.009072
520,-0.008979,-0.001832,0.009072
521,0.008122,-0.021098,0.027769
522,-0.008979,0.0367,0.027769
523,0.008122,0.0367,0.009072
524,0.008122,0.0367,-0.009625
525,0.025223,0.017434,0.027769
526,0.008122,-0.021098,0.009072
527,0.008122,-0.021098,-0.009625
528,0.008122,-0.001832,0.009072
529,-0.008979,0.017434,-0.028322
530,0.008122,0.0367,0.009072
531,0.025223,0.0367,0.009072
532,-0.008979,0.0367,-0.009625
533,0.008122,0.055966,0.027769
534,0.008122,0.017434,0.009072
535,0.008122,0.017434,-0.009625
536,0.008122,0.094498,-0.009625
537,0.008122,-0.001832,-0.009625
538,0.008122,-0.001832,-0.028322
539,-0.008979,0.017434,-0.009625
540,-0.008979,0.055966,0.027769
541,0.008122,0.017434,0.027769
542,-0.026081,0.0367,0.083859
543,0.008122,0.017434,0.065162
544,0.008122,-0.021098,0.027769
545,0.008122,-0.001832,0.027769
546,0.008122,-0.021098,0.046465
547,-0.026081,-0.021098,-0.028322
548,-0.008979,-0.040364,-0.065715
549,-0.008979,-0.040364,-0.047018
550,0.008122,-0.040364,-0.009625
551,0.008122,0.017434,0.027769
552,0.008122,0.017434,0.027769
553,0.008122,0.0367,-0.028322
554,0.008122,-0.001832,-0.065715
555,-0.008979,-0.001832,0.009072
556,-0.008979,0.017434,0.009072
557,-0.008979,-0.001832,0.009072
558,0.008122,-0.001832,0.009072
559,-0.008979,0.017434,-0.009625
560,-0.008979,-0.021098,0.009072
561,-0.008979,-0.001832,-0.009625
562,0.008122,-0.021098,-0.009625
563,0.008122,-0.040364,-0.028322
564,0.025223,-0.021098,-0.009625
565,0.025223,-0.021098,-0.028322
566,-0.008979,-0.001832,-0.009625
567,0.008122,-0.001832,-0.009625
568,-0.008979,0.017434,-0.009625
569,-0.008979,0.017434,-0.047018
570,0.008122,0.017434,-0.028322
571,0.008122,-0.001832,0.027769
572,-0.008979,0.017434,0.046465
573,0.008122,0.017434,0.027769
574,-0.008979,-0.021098,0.027769
575,0.008122,-0.001832,-0.009625
576,0.008122,-0.021098,0.009072
577,0.008122,-0.001832,-0.009625
578,0.008122,-0.021098,0.009072
579,-0.008979,-0.021098,0.027769
580,0.008122,-0.021098,0.027769
581,0.008122,-0.001832,-0.009625
582,-0.008979,-0.021098,0.009072
583,0.008122,-0.001832,0.009072
584,0.025223,0.0367,-0.028322
585,0.025223,0.017434,-0.065715
586,0.025223,0.017434,0.009072
587,0.008122,0.0367,0.009072
588,0.025223,0.0367,0.009072
589,-0.008979,-0.001832,0.009072
590,-0.008979,-0.001832,-0.009625
591,0.008122,0.017434,0.027769
592,0.025223,0.017434,0.009072
593,0.025223,0.0367,0.009072
594,0.008122,-0.001832,0.009072
595,0.008122,-0.021098,0.009072
596,-0.008979,-0.021098,-0.009625
597,0.008122,-0.021098,-0.028322
598,0.008122,-0.040364,-0.028322
599,0.008122,-0.078896,-0.028322
600,-0.008979,-0.05963,-0.028322
601,-0.008979,-0.05963,0.009072
602,0.008122,-0.001832,0.046465
603,-0.008979,0.0367,0.027769
604,-0.008979,0.055966,0.065162
605,0.008122,0.075232,0.083859
606,0.008122,0.075232,0.065162
607,0.008122,0.075232,0.083859
608,-0.008979,0.017434,0.027769
609,-0.008979,0.017434,-0.047018
610,0.008122,-0.001832,-0.047018
611,0.025223,0.017434,-0.028322
612,0.025223,-0.001832,-0.103109
613,0.025223,-0.001832,-0.047018
614,0.008122,-0.021098,-0.028322
615,0.025223,-0.001832,-0.028322
616,0.008122,-0.021098,-0.009625
617,0.008122,-0.001832,-0.009625
618,0.008122,-0.021098,-0.009625
619,-0.026081,-0.05963,-0.028322
620,-0.043182,-0.021098,-0.009625
621,0.008122,-0.001832,-0.047018
622,-0.008979,-0.001832,0.009072
623,-0.008979,0.017434,0.027769
624,-0.008979,-0.021098,0.046465
625,-0.008979,-0.040364,0.027769
626,-0.008979,-0.05963,0.046465
627,-0.008979,-0.05963,0.027769
628,-0.008979,-0.040364,0.009072
629,0.008122,-0.021098,0.009072
630,0.008122,-0.001832,0.009072
631,0.008122,0.055966,-0.028322
632,-0.008979,0.0367,-0.009625
633,-0.008979,0.0367,-0.047018
634,0.008122,-0.021098,-0.047018
635,-0.008979,0.017434,-0.047018
636,-0.008979,0.017434,-0.009625
637,0.008122,0.0367,-0.028322
638,-0.008979,0.0367,0.046465
639,0.008122,0.017434,0.046465
640,0.008122,0.0367,0.027769
641,0.008122,0.017434,0.046465
642,-0.008979,-0.001832,0.027769
643,0.008122,-0.001832,0.027769
644,0.008122,-0.021098,0.027769
645,0.025223,-0.021098,0.027769
646,0.008122,-0.001832,-0.047018
647,0.008122,-0.021098,0.009072
648,0.008122,-0.001832,0.027769
649,0.008122,0.017434,-0.009625
650,-0.008979,-0.001832,-0.028322
651,-0.008979,0.0367,-0.009625
652,0.008122,0.0367,-0.065715
653,0.008122,0.0367,-0.065715
654,-0.008979,0.0367,0.009072
655,-0.008979,-0.001832,0.046465
656,0.008122,0.017434,0.102556
657,0.008122,0.017434,0.083859
658,0.008122,0.017434,0.009072
659,0.008122,0.017434,0.009072
660,0.008122,-0.001832,0.083859
661,0.025223,0.0367,0.027769
662,0.008122,-0.001832,-0.103109
663,-0.026081,-0.040364,-0.140502
664,-0.026081,-0.021098,-0.121806
665,-0.026081,-0.040364,-0.065715
666,-0.008979,-0.001832,-0.047018
667,0.008122,-0.001832,-0.047018
668,-0.008979,-0.021098,-0.047018
669,-0.026081,-0.040364,0.009072
670,0.008122,0.017434,0.027769
671,0.008122,0.017434,0.009072
672,-0.008979,-0.001832,0.009072
673,-0.008979,-0.001832,0.046465
674,0.008122,0.017434,0.027769
675,0.008122,0.017434,0.065162
676,0.025223,0.017434,0.046465
677,0.008122,-0.001832,-0.009625
678,0.008122,-0.021098,-0.009625
679,0.008122,0.017434,0.083859
680,0.008122,-0.021098,0.102556
681,0.025223,-0.021098,0.139949
682,-0.008979,-0.040364,0.083859
683,0.008122,-0.05963,0.027769
684,0.008122,-0.05963,0.027769
685,-0.008979,-0.05963,0.009072
686,-0.008979,-0.040364,0.009072
687,-0.008979,-0.021098,-0.028322
688,-0.026081,-0.021098,-0.065715
689,0.008122,-0.001832,-0.028322
690,0.008122,-0.001832,-0.065715
691,0.025223,0.055966,-0.009625
692,-0.008979,0.055966,0.027769
693,-0.008979,0.094498,-0.028322
694,-0.008979,0.0367,-0.028322
695,0.008122,0.055966,-0.065715
696,0.008122,0.055966,-0.103109
697,0.008122,0.055966,-0.103109
698,0.008122,0.0367,-0.065715
699,0.008122,-0.001832,-0.047018
700,0.008122,0.017434,-0.009625
701,0.008122,-0.001832,0.009072
702,0.008122,-0.001832,0.009072
703,0.008122,0.017434,0.083859
704,0.008122,-0.001832,0.102556
705,-0.008979,0.055966,0.121252
706,-0.008979,-0.040364,0.158646
707,0.008122,-0.001832,0.158646
708,0.008122,0.017434,0.158646
709,0.008122,-0.021098,0.139949
710,0.025223,-0.001832,0.121252
711,-0.008979,-0.001832,0.046465
712,-0.008979,0.017434,0.027769
713,0.008122,0.055966,-0.009625
714,-0.008979,0.017434,-0.065715
715,-0.008979,-0.001832,-0.047018
716,0.025223,-0.021098,-0.103109
717,0.008122,-0.040364,-0.32747
718,-0.026081,-0.05963,-0.215289
719,-0.008979,-0.021098,-0.065715
720,0.008122,-0.001832,0.009072
721,-0.008979,-0.021098,0.027769
722,-0.026081,-0.021098,0.027769
723,0.008122,0.0367,0.027769
724,0.008122,0.017434,-0.047018
725,-0.026081,-0.001832,-0.028322
726,-0.008979,-0.021098,-0.047018
727,-0.008979,-0.021098,-0.028322
728,0.008122,0.017434,0.009072
729,0.008122,0.017434,-0.047018
730,-0.008979,-0.001832,-0.028322
731,0.008122,0.017434,-0.009625
732,0.008122,-0.021098,-0.047018
733,0.008122,-0.021098,-0.028322
734,-0.008979,-0.040364,-0.009625
735,-0.008979,-0.021098,0.009072
736,-0.008979,-0.001832,-0.009625
737,0.008122,0.017434,0.009072
738,-0.008979,0.0367,0.009072
739,-0.026081,-0.001832,0.009072
740,-0.008979,0.017434,0.027769
741,-0.026081,-0.021098,0.046465
742,0.008122,-0.021098,0.027769
743,0.008122,-0.001832,0.046465
744,0.008122,0.017434,0.027769
745,0.008122,-0.040364,-0.009625
746,-0.008979,-0.05963,0.009072
747,0.008122,-0.078896,0.009072
748,-0.008979,-0.078896,-0.009625
749,0.008122,-0.021098,0.046465
750,-0.008979,0.055966,0.065162
751,0.025223,0.055966,0.046465
752,0.008122,0.13303,0.083859
753,0.042325,0.113764,0.065162
754,0.025223,0.075232,0.046465
755,0.025223,0.017434,0.027769
756,0.008122,0.055966,0.009072
757,0.008122,0.075232,-0.028322
758,0.008122,0.075232,-0.028322
759,-0.008979,0.055966,-0.009625
760,-0.008979,-0.021098,-0.028322
761,-0.026081,-0.001832,-0.065715
762,-0.008979,-0.001832,-0.009625
763,-0.008979,-0.021098,-0.009625
764,0.008122,-0.021098,-0.047018
765,0.008122,-0.021098,0.009072
766,-0.008979,0.017434,-0.028322
767,0.008122,0.017434,0.009072
768,0.008122,0.017434,0.046465
769,0.008122,0.0367,0.027769
770,0.008122,0.017434,0.009072
771,-0.008979,-0.021098,0.027769
772,-0.008979,-0.001832,-0.047018
773,0.025223,-0.001832,0.046465
774,0.008122,0.017434,0.065162
775,-0.008979,-0.001832,0.046465
776,-0.026081,-0.021098,0.009072
777,-0.008979,-0.001832,-0.047018
778,-0.008979,0.0367,-0.121806
779,0.008122,-0.021098,-0.103109
780,0.008122,-0.001832,-0.028322
781,0.008122,-0.021098,-0.065715
782,0.008122,-0.001832,-0.047018
783,0.008122,-0.021098,-0.009625
784,-0.008979,-0.021098,0.027769
785,-0.008979,0.017434,-0.009625
786,-0.008979,-0.021098,0.046465
787,-0.008979,-0.001832,0.065162
788,-0.026081,-0.001832,0.102556
789,-0.008979,-0.001832,0.121252
790,0.025223,0.0367,0.121252
791,0.008122,-0.001832,-0.028322
792,0.025223,-0.001832,-0.140502
793,0.008122,-0.001832,-0.103109
794,0.008122,-0.001832,-0.103109
795,0.008122,-0.001832,-0.028322
796,-0.008979,-0.021098,-0.028322
797,-0.008979,-0.040364,-0.028322
798,-0.008979,-0.021098,0.102556
799,-0.008979,-0.040364,0.121252
800,0.008122,-0.040364,0.102556
801,0.008122,0.017434,0.083859
802,0.008122,0.0367,0.121252
803,-0.026081,0.0367,0.046465
804,0.008122,-0.001832,-0.047018
805,-0.008979,0.0367,-0.140502
806,0.008122,0.055966,-0.121806
807,0.008122,0.055966,-0.047018
808,0.025223,0.055966,-0.009625
809,-0.008979,-0.001832,-0.009625
810,-0.008979,-0.040364,0.009072
811,-0.008979,-0.021098,0.027769
812,0.008122,-0.001832,0.046465
813,-0.008979,-0.001832,0.046465
814,0.008122,-0.001832,0.046465
815,-0.008979,-0.040364,0.027769
816,-0.026081,-0.05963,-0.009625
817,-0.026081,-0.001832,-0.121806
818,-0.026081,-0.040364,-0.065715
819,-0.008979,-0.021098,0.046465
820,0.008122,0.017434,0.102556
821,0.008122,0.055966,0.121252
822,0.008122,0.0367,0.083859
823,0.008122,-0.001832,0.065162
824,0.008122,-0.001832,0.009072
825,-0.008979,0.017434,-0.121806
826,0.008122,0.017434,-0.159199
827,0.008122,0.0367,-0.103109
828,0.008122,-0.021098,-0.009625
829,0.008122,-0.040364,0.009072
830,-0.008979,-0.040364,-0.009625
831,-0.026081,-0.021098,-0.065715
832,-0.026081,-0.040364,-0.028322
833,-0.008979,-0.021098,0.009072
834,0.008122,0.0367,0.046465
835,0.008122,0.055966,0.046465
836,0.025223,-0.021098,0.065162
837,0.008122,-0.001832,0.027769
838,0.025223,-0.001832,0.065162
839,0.025223,0.094498,0.121252
840,0.008122,0.094498,0.009072
841,-0.008979,0.055966,-0.065715
842,-0.008979,0.0367,0.027769
843,0.008122,0.017434,0.009072
844,0.008122,0.075232,-0.009625
845,0.008122,0.0367,-0.009625
846,0.008122,0.0367,-0.047018
847,0.008122,0.0367,-0.009625
848,0.008122,-0.021098,0.046465
849,-0.008979,-0.001832,0.083859
850,0.008122,-0.021098,-0.009625
851,0.025223,-0.001832,-0.047018
852,0.008122,0.0367,-0.028322
853,-0.008979,-0.001832,-0.065715
854,-0.008979,-0.021098,-0.047018
855,-0.008979,-0.001832,-0.103109
856,-0.008979,0.017434,-0.065715
857,-0.008979,0.017434,-0.009625
858,-0.008979,-0.001832,0.009072
859,-0.008979,0.0367,0.046465
860,0.008122,0.017434,0.046465
861,0.008122,-0.001832,0.027769
862,-0.008979,-0.001832,0.065162
863,0.008122,0.017434,0.046465
864,0.008122,0.0367,-0.009625
865,0.008122,0.017434,-0.028322
866,0.008122,-0.021098,-0.047018
867,-0.026081,0.017434,-0.065715
868,-0.026081,-0.040364,-0.121806
869,-0.043182,-0.040364,-0.047018
870,-0.026081,-0.021098,0.009072
871,-0.008979,-0.001832,0.027769
872,-0.008979,0.017434,0.046465
873,0.008122,-0.001832,0.009072
874,0.008122,-0.001832,-0.047018
875,0.008122,-0.001832,0.027769
876,-0.008979,-0.001832,0.046465
877,0.008122,-0.001832,-0.028322
878,-0.008979,0.017434,0.121252
879,0.008122,0.0367,0.102556
880,-0.008979,0.017434,0.065162
881,0.008122,-0.001832,0.009072
882,0.008122,-0.001832,-0.009625
883,-0.026081,-0.040364,-0.047018
884,-0.008979,-0.021098,0.009072
885,0.008122,0.017434,0.065162
886,0.008122,-0.001832,0.046465
887,0.008122,0.0367,0.139949
888,0.025223,0.094498,0.196039
889,0.025223,0.017434,0.121252
890,-0.008979,0.017434,0.065162
891,-0.026081,-0.040364,0.027769
892,-0.026081,-0.040364,0.027769
893,-0.026081,-0.001832,-0.065715
894,-0.008979,-0.001832,-0.121806
895,-0.008979,-0.021098,-0.065715
896,0.008122,-0.001832,-0.084412
897,0.008122,-0.021098,-0.121806
898,0.008122,-0.001832,-0.177896
899,0.025223,0.017434,-0.047018
900,0.008122,-0.001832,0.046465
901,0.025223,-0.001832,-0.028322
902,-0.008979,-0.05963,-0.140502
903,-0.026081,-0.040364,-0.084412
904,-0.008979,-0.078896,-0.065715
905,-0.008979,-0.040364,-0.028322
906,0.025223,-0.021098,-0.009625
907,0.008122,-0.001832,0.046465
908,-0.008979,-0.021098,0.009072
909,0.008122,-0.021098,0.083859
910,-0.008979,-0.001832,0.196039
911,0.025223,0.055966,0.214736
912,0.025223,0.0367,0.25213
913,0.008122,0.055966,0.214736
914,-0.008979,-0.021098,0.027769
915,0.008122,0.094498,-0.028322
916,0.008122,0.094498,-0.121806
917,-0.008979,0.075232,-0.27138
918,0.008122,0.094498,-0.103109
919,0.025223,0.075232,0.009072
920,0.008122,-0.001832,0.009072
921,0.008122,-0.001832,-0.009625
922,-0.026081,-0.040364,-0.177896
923,-0.008979,-0.078896,-0.103109
924,-0.026081,-0.117428,-0.121806
925,-0.026081,-0.117428,-0.047018
926,-0.008979,-0.078896,-0.047018
927,-0.026081,-0.021098,-0.009625
928,-0.008979,-0.021098,0.065162
929,0.008122,0.0367,0.083859
930,0.008122,0.0367,0.102556
931,0.025223,0.075232,0.139949
932,0.025223,0.055966,0.009072
933,0.025223,-0.05963,-0.121806
934,0.008122,-0.001832,-0.084412
935,0.008122,0.075232,-0.084412
936,0.025223,0.113764,-0.028322
937,0.042325,0.094498,0.046465
938,0.025223,0.075232,0.065162
939,0.042325,0.055966,0.102556
940,0.025223,0.094498,0.102556
941,0.025223,0.0367,0.027769
942,0.008122,-0.021098,0.065162
943,0.008122,-0.021098,0.214736
944,0.025223,-0.021098,0.289523
945,-0.008979,-0.040364,0.196039
946,-0.008979,-0.040364,0.083859
947,-0.008979,-0.05963,-0.103109
948,-0.026081,-0.040364,-0.084412
949,-0.008979,-0.001832,-0.140502
950,0.025223,0.017434,-0.121806
951,0.008122,0.0367,-0.065715
952,-0.008979,0.0367,-0.009625
953,-0.008979,0.0367,-0.047018
954,-0.008979,0.0367,-0.047018
955,-0.008979,-0.021098,-0.047018
956,-0.008979,-0.021098,-0.009625
957,-0.008979,0.017434,-0.009625
958,-0.008979,-0.001832,0.027769
959,-0.008979,-0.001832,0.121252
960,0.008122,-0.021098,-0.009625
961,0.025223,-0.021098,-0.084412
962,-0.008979,-0.001832,-0.009625
963,0.008122,0.017434,0.065162
964,0.008122,-0.001832,0.083859
965,-0.008979,0.017434,-0.028322
966,0.008122,-0.001832,-0.084412
967,0.008122,-0.001832,0.009072
968,0.025223,-0.001832,0.158646
969,0.008122,-0.001832,0.177343
970,0.008122,0.055966,0.065162
971,0.008122,0.0367,0.065162
972,0.025223,-0.021098,-0.196593
973,-0.026081,-0.078896,-0.308773
974,-0.026081,-0.098162,-0.215289
975,-0.008979,-0.040364,-0.028322
976,-0.008979,0.0367,0.102556
977,0.008122,0.017434,0.196039
978,-0.008979,0.0367,0.177343
979,-0.008979,0.017434,0.083859
980,-0.008979,0.017434,0.046465
981,0.008122,0.017434,0.065162
982,0.008122,0.055966,0.158646
983,0.008122,0.094498,0.065162
984,-0.026081,0.017434,-0.084412
985,-0.026081,-0.040364,-0.140502
986,-0.008979,-0.001832,-0.084412
987,-0.008979,-0.021098,-0.103109
988,-0.008979,-0.021098,-0.233986
989,-0.008979,-0.05963,-0.252683
990,0.008122,-0.021098,-0.159199
991,-0.008979,-0.021098,-0.103109
992,0.008122,-0.021098,0.046465
993,0.008122,0.017434,0.270826
994,0.008122,0.017434,0.25213
995,0.042325,-0.001832,0.196039
996,0.025223,0.0367,0.177343
997,0.008122,-0.021098,0.121252
998,0.008122,-0.001832,-0.009625
999,0.008122,-0.021098,-0.009625
1000,0.008122,-0.021098,-0.065715
1001,0.008122,0.017434,-0.159199
1002,0.008122,0.017434,-0.196593
1003,0.008122,0.017434,-0.121806
1004,0.008122,0.017434,-0.009625
1005,0.008122,-0.021098,0.027769
1006,0.008122,0.017434,-0.084412
1007,0.008122,0.055966,-0.028322
1008,0.008122,0.055966,0.009072
1009,0.008122,0.075232,0.083859
1010,0.008122,0.055966,0.121252
1011,0.008122,0.055966,0.139949
1012,-0.008979,-0.040364,0.065162
1013,-0.008979,-0.040364,0.158646
1014,-0.008979,-0.05963,0.083859
1015,-0.008979,-0.098162,-0.009625
1016,-0.008979,-0.05963,-0.047018
1017,0.008122,-0.040364,0.177343
1018,0.025223,0.0367,0.345613
1019,0.025223,0.113764,0.270826
1020,0.059426,0.113764,0.326917
1021,0.025223,0.113764,0.102556
1022,-0.008979,0.094498,-0.196593
1023,-0.026081,-0.001832,-0.495741
1024,-0.026081,-0.040364,-0.402257
1025,-0.043182,-0.078896,-0.233986
1026,-0.008979,-0.040364,-0.121806
1027,0.008122,0.017434,-0.009625
1028,0.008122,0.017434,-0.196593
1029,0.025223,0.017434,-0.103109
1030,0.008122,-0.021098,0.083859
1031,0.008122,0.017434,0.177343
1032,-0.008979,-0.021098,0.25213
1033,-0.008979,-0.040364,0.046465
1034,-0.026081,-0.021098,-0.084412
1035,-0.008979,-0.001832,-0.103109
1036,0.008122,-0.021098,0.046465
1037,0.025223,0.017434,0.046465
1038,0.008122,-0.021098,0.065162
1039,0.008122,-0.001832,-0.009625
1040,-0.008979,-0.001832,-0.140502
1041,-0.008979,-0.040364,-0.009625
1042,-0.008979,-0.040364,0.046465
1043,-0.008979,-0.05963,0.121252
1044,-0.008979,-0.05963,0.233433
1045,0.025223,-0.021098,0.345613
1046,0.008122,0.0367,0.158646
1047,-0.008979,0.055966,-0.028322
1048,-0.008979,0.055966,-0.252683
1049,-0.026081,0.075232,-0.215289
1050,0.008122,-0.001832,-0.177896
1051,-0.008979,-0.040364,-0.196593
1052,-0.008979,-0.040364,-0.252683
1053,-0.008979,-0.078896,-0.140502
1054,-0.008979,-0.040364,-0.028322
1055,-0.008979,-0.021098,-0.065715
1056,0.008122,0.017434,0.065162
1057,0.025223,0.075232,0.158646
1058,-0.008979,0.094498,0.046465
1059,0.008122,0.055966,0.083859
1060,-0.026081,-0.001832,0.083859
1061,0.008122,-0.040364,0.102556
1062,-0.008979,-0.001832,0.027769
1063,0.008122,-0.001832,-0.065715
1064,0.008122,-0.001832,-0.028322
1065,-0.008979,-0.040364,0.139949
1066,0.008122,-0.040364,0.25213
1067,-0.026081,-0.040364,0.083859
1068,0.008122,0.017434,0.102556
1069,-0.008979,0.055966,-0.084412
1070,0.025223,0.152296,-0.084412
1071,0.008122,0.094498,-0.065715
1072,0.025223,0.0367,-0.009625
1073,0.008122,-0.021098,0.027769
1074,0.008122,-0.001832,0.065162
1075,-0.008979,0.017434,0.177343
1076,0.008122,0.017434,0.270826
1077,0.008122,-0.021098,0.233433
1078,-0.008979,0.055966,0.214736
1079,0.008122,0.075232,-0.159199
1080,-0.008979,-0.021098,-0.364863
1081,0.008122,0.0367,-0.196593
1082,0.008122,0.017434,-0.103109
1083,-0.026081,-0.136694,-0.140502
1084,-0.026081,-0.136694,0.046465
1085,-0.008979,-0.098162,-0.028322
1086,-0.008979,-0.021098,-0.009625
1087,-0.008979,-0.001832,0.046465
1088,-0.008979,0.055966,0.065162
1089,0.025223,0.0367,0.046465
1090,0.008122,-0.040364,0.009072
1091,-0.026081,-0.078896,-0.159199
1092,-0.043182,-0.05963,-0.159199
1093,-0.008979,-0.001832,-0.196593
1094,0.008122,-0.001832,0.083859
1095,-0.008979,0.055966,0.326917
1096,0.025223,0.094498,0.083859
1097,0.042325,0.152296,0.121252
1098,0.042325,0.13303,0.009072
1099,0.025223,0.055966,0.027769
1100,0.008122,0.017434,0.083859
1101,0.025223,-0.021098,-0.047018
1102,-0.008979,-0.098162,-0.308773
1103,-0.008979,-0.001832,-0.27138
1104,-0.008979,-0.001832,-0.215289
1105,0.008122,-0.021098,-0.084412
1106,-0.008979,0.055966,0.177343
1107,0.008122,0.0367,0.289523
1108,0.008122,0.017434,0.30822
1109,0.042325,0.017434,0.270826
1110,0.008122,0.017434,0.121252
1111,-0.008979,-0.05963,-0.290076
1112,0.008122,-0.117428,-0.252683
1113,0.008122,-0.098162,-0.215289
1114,-0.008979,-0.136694,-0.065715
1115,-0.026081,-0.117428,0.046465
1116,0.008122,0.055966,0.383007
1117,0.025223,0.094498,0.233433
1118,0.008122,0.075232,-0.047018
1119,0.025223,0.075232,-0.233986
1120,-0.026081,-0.05963,-0.346167
1121,-0.043182,-0.078896,-0.159199
1122,-0.026081,0.017434,-0.065715
1123,-0.026081,0.094498,-0.009625
1124,0.025223,0.113764,0.158646
1125,0.025223,0.017434,0.214736
1126,0.008122,-0.021098,0.289523
1127,0.025223,-0.021098,0.214736
1128,0.008122,0.017434,0.196039
1129,-0.026081,-0.001832,0.083859
1130,-0.008979,0.055966,0.083859
1131,0.025223,0.075232,-0.140502
1132,0.008122,-0.040364,-0.32747
1133,-0.043182,-0.15596,-0.32747
1134,-0.026081,-0.117428,-0.196593
1135,-0.026081,-0.040364,0.214736
1136,-0.008979,0.0367,0.719549
1137,0.042325,0.287158,0.626065
1138,0.059426,0.190828,0.345613
1139,0.042325,0.055966,0.027769
1140,0.025223,0.055966,-0.252683
1141,-0.008979,-0.001832,-0.589224
1142,-0.043182,-0.040364,-0.233986
1143,-0.008979,-0.05963,-0.140502
1144,-0.026081,-0.05963,-0.177896
1145,-0.008979,-0.098162,0.046465
1146,-0.043182,-0.098162,-0.047018
1147,-0.043182,-0.05963,-0.121806
1148,0.008122,-0.021098,-0.121806
1149,0.025223,0.055966,-0.196593
1150,0.042325,0.055966,-0.121806
1151,0.008122,0.055966,-0.177896
1152,0.008122,0.017434,-0.252683
1153,-0.008979,-0.040364,-0.233986
1154,-0.008979,-0.040364,-0.009625
1155,-0.008979,-0.001832,0.214736
1156,0.008122,-0.001832,0.214736
1157,-0.008979,-0.05963,0.158646
1158,0.008122,-0.098162,-0.140502
1159,-0.026081,-0.098162,0.139949
1160,0.008122,0.0367,0.663458
1161,0.059426,0.248626,0.663458
1162,0.042325,0.190828,0.326917
1163,0.042325,0.113764,0.065162
1164,-0.008979,-0.040364,-0.121806
1165,-0.043182,-0.117428,-0.402257
1166,-0.060283,-0.15596,-0.551831
1167,-0.043182,-0.136694,-0.402257
1168,-0.043182,-0.098162,-0.140502
1169,-0.008979,-0.001832,-0.233986
1170,0.008122,0.0367,-0.159199
1171,0.042325,0.055966,0.102556
1172,0.042325,0.055966,0.289523
1173,0.042325,0.094498,0.289523
1174,0.025223,0.055966,0.25213
1175,0.025223,0.055966,0.009072
1176,-0.008979,-0.040364,-0.308773
1177,-0.043182,-0.098162,-0.196593
1178,-0.043182,-0.05963,0.027769
1179,-0.008979,-0.001832,-0.009625
1180,0.008122,0.017434,0.065162
1181,0.025223,0.0367,-0.103109
1182,0.008122,-0.040364,-0.159199
1183,-0.008979,-0.136694,0.046465
1184,-0.008979,-0.098162,0.270826
1185,0.025223,0.055966,1.0
1186,0.042325,0.210094,0.794336
1187,0.025223,0.210094,0.102556
1188,-0.026081,0.094498,-0.533134
1189,0.008122,0.0367,-0.458347
1190,0.093629,0.152296,0.158646
1191,0.11073,0.152296,0.700852
1192,0.042325,0.094498,0.345613
1193,-0.060283,-0.05963,-0.32747
1194,-0.077385,-0.136694,-0.813586
1195,-0.094486,-0.175226,-0.757495
1196,-0.043182,-0.15596,-0.402257
1197,-0.077385,-0.175226,-0.233986
1198,-0.026081,-0.05963,0.083859
1199,-0.026081,-0.117428,-0.065715
1200,-0.008979,-0.001832,0.009072
1201,-0.008979,0.0367,0.289523
1202,0.025223,0.094498,0.383007
1203,0.042325,0.13303,0.326917
1204,0.059426,0.094498,0.139949
1205,0.025223,0.017434,-0.140502
1206,-0.008979,0.0367,0.196039
1207,0.059426,0.113764,0.196039
1208,-0.026081,0.017434,-0.233986
1209,-0.060283,-0.001832,-0.27138
1210,-0.060283,-0.078896,-0.364863
1211,-0.043182,-0.040364,-0.38356
1212,0.008122,-0.001832,-0.103109
1213,0.025223,-0.001832,-0.009625
1214,0.042325,-0.021098,0.083859
1215,0.042325,-0.021098,0.139949
1216,0.042325,-0.001832,0.083859
1217,0.025223,-0.021098,0.027769
1218,0.008122,0.0367,0.139949
1219,0.042325,0.094498,0.139949
1220,0.059426,0.094498,0.326917
1221,0.025223,0.0367,0.326917
1222,0.025223,-0.001832,0.177343
1223,-0.043182,-0.040364,0.046465
1224,-0.077385,-0.136694,-0.364863
1225,-0.043182,-0.117428,-0.43965
1226,-0.043182,-0.098162,-0.009625
1227,-0.008979,-0.021098,-0.009625
1228,0.025223,0.055966,0.121252
1229,0.008122,0.094498,-0.290076
1230,0.008122,0.0367,-0.27138
1231,0.008122,0.017434,-0.047018
1232,0.025223,-0.040364,-0.009625
1233,0.008122,-0.05963,0.027769
1234,0.025223,-0.001832,0.046465
1235,0.025223,0.094498,0.102556
1236,0.042325,0.152296,0.196039
1237,0.042325,0.210094,0.25213
1238,0.042325,0.152296,0.102556
1239,0.025223,0.055966,-0.121806
1240,-0.026081,-0.040364,-0.084412
1241,-0.043182,-0.117428,-0.233986
1242,-0.043182,-0.136694,-0.065715
1243,0.008122,-0.098162,0.121252
1244,-0.008979,-0.05963,0.083859
1245,0.008122,0.055966,0.196039
1246,-0.008979,-0.001832,-0.103109
1247,-0.060283,-0.040364,-0.290076
1248,-0.060283,-0.098162,-0.196593
1249,0.008122,-0.040364,0.139949
1250,0.008122,0.075232,0.25213
1251,0.008122,0.0367,0.177343
1252,-0.008979,-0.021098,-0.028322
1253,0.008122,0.017434,-0.047018
1254,0.042325,0.0367,-0.065715
1255,0.008122,0.0367,-0.028322
1256,0.008122,0.017434,0.158646
1257,0.025223,0.0367,0.270826
1258,0.008122,-0.001832,0.027769
1259,0.008122,-0.021098,-0.103109
1260,-0.026081,0.017434,-0.009625
1261,0.025223,0.094498,0.289523
1262,0.025223,0.055966,-0.084412
1263,0.025223,0.017434,-0.27138
1264,-0.008979,-0.021098,-0.27138
1265,-0.008979,-0.078896,0.027769
1266,-0.043182,-0.021098,0.233433
1267,0.025223,0.113764,0.457794
1268,0.008122,0.017434,0.214736
1269,-0.008979,-0.078896,-0.346167
1270,-0.008979,-0.194492,-0.477044
1271,-0.043182,-0.213758,-0.701405
1272,-0.026081,-0.078896,-0.009625
1273,0.059426,0.190828,0.869123
1274,0.008122,0.190828,-0.065715
1275,-0.043182,0.152296,-0.32747
1276,-0.077385,-0.021098,-0.121806
1277,-0.077385,-0.098162,-0.215289
1278,-0.043182,-0.078896,-0.140502
1279,0.008122,-0.05963,-0.047018
1280,0.025223,-0.021098,0.233433
1281,0.025223,0.075232,0.551278
1282,0.042325,0.075232,0.551278
1283,0.059426,0.113764,0.887819
1284,0.076527,0.152296,0.719549
1285,0.11073,0.210094,0.4204
1286,0.008122,0.094498,-0.196593
1287,-0.060283,0.017434,-0.477044
1288,-0.077385,-0.021098,-0.720102
1289,-0.111587,-0.15596,-0.645315
1290,-0.060283,-0.194492,-0.233986
1291,-0.026081,-0.194492,-0.364863
1292,-0.026081,-0.175226,-0.346167
1293,-0.026081,-0.136694,-0.065715
1294,0.059426,0.113764,0.607368
1295,0.076527,0.287158,0.775639
1296,0.076527,0.267892,0.513884
1297,0.025223,0.0367,-0.551831
1298,-0.043182,-0.15596,-0.458347
1299,-0.111587,-0.213758,-0.626618
1300,-0.060283,-0.098162,-0.215289
1301,0.008122,0.017434,0.065162
1302,0.042325,0.094498,0.027769
1303,0.025223,0.075232,-0.364863
1304,0.008122,-0.098162,-0.551831
1305,-0.043182,-0.213758,-0.121806
1306,-0.060283,-0.233024,0.214736
1307,-0.026081,-0.021098,0.869123
1308,0.042325,0.248626,0.887819
1309,0.076527,0.287158,0.607368
1310,0.076527,0.210094,0.345613
1311,-0.008979,0.094498,-0.196593
1312,-0.026081,0.055966,-0.140502
1313,-0.008979,-0.001832,-0.103109
1314,0.008122,-0.040364,-0.009625
1315,-0.008979,-0.098162,-0.028322
1316,-0.008979,-0.098162,0.027769
1317,0.025223,0.017434,0.121252
1318,0.042325,0.113764,0.457794
1319,0.059426,0.13303,0.457794
1320,0.008122,0.017434,-0.084412
1321,-0.008979,-0.040364,-0.43965
1322,-0.094486,-0.040364,-0.96316
1323,-0.043182,-0.05963,-0.233986
1324,-0.026081,-0.098162,-0.196593
1325,-0.008979,-0.05963,0.102556
1326,0.008122,0.017434,-0.103109
1327,0.008122,-0.021098,-0.27138
1328,-0.026081,-0.021098,-0.121806
1329,0.008122,-0.040364,-0.252683
1330,0.008122,-0.021098,-0.009625
1331,0.042325,-0.05963,0.289523
1332,0.042325,-0.021098,0.476491
1333,0.059426,0.0367,0.813032
1334,0.042325,0.0367,0.270826
1335,-0.008979,-0.078896,0.102556
1336,-0.026081,-0.021098,0.046465
1337,0.008122,0.13303,0.046465
1338,0.042325,0.22936,0.121252
1339,-0.026081,0.0367,-0.43965
1340,-0.094486,-0.117428,-0.645315
1341,-0.060283,-0.05963,-0.514437
1342,-0.043182,-0.001832,-0.159199
1343,-0.008979,0.017434,0.102556
1344,-0.026081,-0.078896,-0.009625
1345,-0.008979,-0.136694,-0.103109
1346,0.008122,-0.078896,0.083859
1347,0.025223,0.017434,0.009072
1348,0.025223,0.13303,0.289523
1349,0.059426,0.113764,0.4204
1350,0.025223,0.075232,0.383007
1351,0.008122,0.017434,0.214736
1352,0.042325,0.152296,-0.009625
1353,0.025223,0.13303,0.027769
1354,0.025223,0.055966,-0.233986
1355,0.042325,0.055966,-0.196593
1356,0.008122,-0.021098,-0.420954
1357,-0.060283,-0.15596,-0.196593
1358,-0.077385,-0.194492,0.009072
1359,-0.060283,-0.175226,-0.047018
1360,-0.043182,-0.136694,-0.233986
1361,-0.008979,-0.001832,-0.196593
1362,0.059426,0.0367,-0.028322
1363,0.059426,0.055966,0.214736
1364,0.025223,0.0367,-0.028322
1365,0.025223,-0.040364,-0.009625
1366,-0.008979,-0.021098,-0.084412
1367,0.008122,-0.021098,-0.121806
1368,0.042325,0.017434,0.214736
1369,0.025223,-0.040364,0.813032
1370,0.076527,0.0367,1.0
1371,0.076527,0.210094,0.700852
1372,0.008122,0.171562,-0.140502
1373,-0.077385,-0.040364,-0.720102
1374,-0.060283,-0.021098,-0.32747
1375,-0.026081,-0.001832,-0.308773
1376,-0.026081,-0.001832,-0.364863
1377,-0.060283,-0.040364,-0.364863
1378,0.008122,0.017434,-0.402257
1379,0.025223,-0.05963,-0.215289
1380,0.008122,-0.098162,0.065162
1381,0.025223,-0.098162,0.009072
1382,-0.008979,-0.117428,0.121252
1383,-0.060283,-0.15596,0.196039
1384,-0.043182,-0.021098,0.439097
1385,0.025223,0.094498,0.326917
1386,0.11073,0.152296,0.345613
1387,0.127831,0.190828,0.663458
1388,0.059426,0.22936,0.513884
1389,-0.060283,-0.040364,-0.607921
1390,-0.060283,-0.001832,-0.364863
1391,0.008122,-0.001832,-0.402257
1392,-0.008979,-0.05963,-0.402257
1393,-0.060283,-0.117428,-0.308773
1394,-0.043182,-0.05963,-0.065715
1395,-0.026081,-0.078896,0.083859
1396,-0.026081,-0.021098,-0.047018
1397,-0.043182,0.017434,-0.103109
1398,0.008122,0.0367,-0.159199
1399,0.025223,0.055966,-0.140502
1400,0.059426,-0.001832,0.214736
1401,0.025223,-0.040364,0.383007
1402,0.042325,-0.05963,0.588671
1403,0.042325,-0.040364,0.532581
1404,0.008122,-0.001832,0.457794
1405,-0.043182,0.017434,-0.290076
1406,-0.060283,-0.001832,-0.776192
1407,0.008122,0.171562,-0.084412
1408,0.025223,0.113764,0.158646
1409,-0.008979,0.055966,-0.121806
1410,-0.026081,-0.021098,-0.32747
1411,-0.026081,-0.117428,-0.047018
1412,-0.043182,-0.117428,-0.121806
1413,-0.026081,-0.078896,-0.233986
1414,-0.008979,-0.05963,-0.38356
1415,0.025223,0.0367,-0.047018
1416,0.042325,0.094498,0.532581
1417,0.042325,0.171562,0.569975
1418,0.025223,0.13303,0.233433
1419,0.025223,0.055966,-0.028322
1420,0.008122,-0.001832,-0.047018
1421,0.059426,0.055966,0.270826
1422,0.076527,0.0367,0.326917
1423,0.059426,0.055966,0.289523
1424,-0.060283,-0.078896,-0.346167
1425,-0.094486,-0.233024,-0.626618
1426,-0.077385,-0.078896,0.289523
1427,-0.060283,-0.040364,-0.103109
1428,-0.060283,-0.05963,-0.346167
1429,-0.008979,-0.05963,-0.252683
1430,-0.043182,-0.040364,-0.32747
1431,0.008122,-0.040364,-0.121806
1432,0.025223,-0.001832,0.177343
1433,0.059426,0.094498,0.233433
1434,0.059426,0.113764,0.36431
1435,0.042325,0.171562,0.25213
1436,0.008122,0.094498,-0.047018
1437,-0.043182,-0.078896,-0.252683
1438,-0.008979,0.0367,-0.028322
1439,0.025223,0.055966,0.065162
1440,0.042325,0.055966,0.177343
1441,0.025223,0.017434,0.102556
1442,-0.026081,-0.021098,-0.140502
1443,-0.060283,-0.078896,-0.38356
1444,-0.043182,-0.078896,-0.140502
1445,-0.026081,-0.078896,0.065162
1446,0.008122,-0.021098,0.139949
1447,0.042325,0.0367,0.177343
1448,0.008122,0.0367,-0.028322
1449,-0.008979,0.017434,-0.084412
1450,-0.008979,0.017434,-0.009625
1451,-0.026081,-0.021098,-0.252683
1452,-0.026081,-0.001832,-0.215289
1453,0.008122,0.017434,0.009072
1454,0.008122,-0.021098,0.083859
1455,0.025223,-0.021098,0.121252
1456,-0.008979,-0.001832,0.009072
1457,-0.008979,-0.001832,-0.121806
1458,-0.008979,-0.040364,-0.27138
1459,-0.008979,-0.001832,-0.140502
1460,-0.008979,-0.021098,-0.103109
1461,0.025223,-0.021098,0.065162
1462,0.008122,0.017434,0.158646
1463,-0.008979,-0.001832,0.177343
1464,0.025223,0.0367,-0.009625
1465,0.025223,-0.001832,0.046465
1466,-0.008979,-0.05963,0.083859
1467,0.008122,-0.001832,-0.121806
1468,-0.008979,-0.001832,-0.308773
1469,0.008122,-0.05963,-0.121806
1470,-0.043182,-0.05963,0.30822
1471,-0.008979,0.017434,0.36431
1472,0.025223,0.113764,0.513884
1473,0.042325,0.190828,0.439097
1474,0.042325,0.13303,0.25213
1475,0.008122,-0.001832,0.027769
1476,-0.043182,-0.040364,-0.626618
1477,-0.043182,-0.021098,-0.514437
1478,-0.026081,0.017434,-0.009625
1479,0.042325,0.017434,-0.084412
1480,0.025223,-0.001832,-0.009625
1481,-0.008979,-0.078896,0.046465
1482,0.008122,-0.05963,-0.065715
1483,-0.008979,-0.117428,-0.047018
1484,0.025223,0.075232,0.25213
1485,0.042325,0.055966,-0.009625
1486,0.025223,0.113764,0.233433
1487,0.008122,0.055966,-0.121806
1488,-0.043182,0.017434,-0.159199
1489,-0.008979,0.017434,0.009072
1490,-0.026081,-0.021098,-0.065715
1491,-0.043182,-0.05963,-0.177896
1492,-0.026081,-0.05963,-0.177896
1493,-0.008979,-0.05963,-0.159199
1494,-0.008979,-0.040364,-0.103109
1495,-0.008979,-0.021098,0.121252
1496,0.008122,0.055966,0.270826
1497,0.025223,0.0367,0.102556
1498,-0.008979,-0.021098,-0.028322
1499,-0.008979,-0.040364,-0.028322
1500,0.008122,-0.021098,-0.047018
1501,-0.008979,-0.021098,0.065162
1502,-0.008979,0.017434,0.027769
1503,-0.026081,0.017434,0.065162
1504,-0.008979,0.0367,-0.065715
1505,0.008122,0.055966,-0.009625
1506,0.025223,-0.001832,-0.009625
1507,0.008122,-0.001832,-0.028322
1508,-0.008979,0.017434,-0.009625
1509,0.008122,-0.040364,-0.028322
1510,-0.026081,-0.05963,0.046465
1511,-0.008979,-0.040364,0.009072
1512,-0.008979,-0.001832,-0.121806
1513,0.025223,0.0367,-0.028322
1514,0.008122,0.017434,0.102556
1515,0.025223,0.017434,0.027769
1516,0.025223,-0.021098,-0.065715
1517,0.025223,0.0367,0.027769
1518,0.008122,0.017434,0.083859
1519,-0.008979,-0.001832,-0.065715
1520,-0.043182,-0.040364,-0.047018
1521,-0.008979,-0.001832,0.027769
1522,0.008122,0.017434,-0.009625
1523,-0.008979,-0.001832,0.065162
1524,-0.008979,-0.021098,0.065162
1525,-0.008979,-0.021098,-0.047018
1526,0.008122,-0.05963,-0.065715
1527,0.008122,-0.021098,-0.140502
1528,-0.008979,-0.05963,-0.159199
1529,-0.008979,-0.098162,-0.047018
1530,-0.008979,-0.098162,0.233433
1531,-0.008979,-0.078896,0.158646
1532,0.008122,0.055966,-0.121806
1533,0.025223,0.113764,0.046465
1534,0.025223,0.094498,0.25213
1535,0.008122,0.075232,0.36431
1536,0.025223,0.13303,0.233433
1537,0.059426,0.113764,-0.140502
1538,0.025223,0.055966,-0.308773
1539,-0.026081,0.0367,-0.177896
1540,-0.008979,-0.001832,-0.084412
1541,0.008122,0.017434,0.065162
1542,0.025223,0.055966,0.139949
1543,0.042325,0.0367,-0.047018
1544,0.008122,0.017434,-0.047018
1545,-0.008979,-0.040364,-0.047018
1546,-0.026081,-0.098162,-0.028322
1547,-0.043182,-0.15596,-0.065715
1548,-0.043182,-0.136694,-0.047018
1549,-0.060283,-0.117428,-0.028322
1550,-0.060283,-0.117428,-0.009625
1551,-0.043182,-0.098162,0.009072
1552,-0.043182,-0.040364,0.027769
1553,-0.008979,-0.021098,-0.028322
1554,-0.043182,0.0367,0.009072
1555,-0.026081,0.055966,0.027769
1556,-0.008979,0.055966,-0.028322
1557,0.008122,0.094498,-0.084412
1558,0.008122,0.017434,-0.159199
1559,0.008122,0.017434,-0.103109
1560,0.008122,-0.040364,0.009072
1561,0.008122,0.0367,-0.159199
1562,0.025223,0.13303,0.158646
1563,0.076527,0.13303,0.177343
1564,0.059426,0.094498,0.102556
1565,0.042325,-0.001832,0.065162
1566,0.025223,-0.136694,0.102556
1567,-0.008979,-0.194492,0.065162
1568,-0.043182,-0.194492,-0.028322
1569,-0.008979,-0.136694,0.027769
1570,0.008122,-0.040364,0.065162
1571,-0.008979,-0.001832,0.065162
1572,-0.008979,0.113764,-0.047018
1573,-0.043182,0.094498,-0.103109
1574,0.025223,0.152296,-0.047018
1575,0.093629,0.13303,-0.009625
1576,0.127831,0.094498,-0.028322
1577,0.144933,0.017434,0.046465
1578,0.076527,0.0367,0.027769
1579,0.042325,0.017434,0.009072
1580,0.025223,0.055966,-0.009625
1581,-0.008979,0.113764,-0.009625
1582,-0.026081,0.075232,0.065162
1583,-0.026081,0.094498,0.102556
1584,-0.026081,0.075232,0.065162
1585,-0.026081,0.075232,0.046465
1586,-0.026081,-0.001832,-0.028322
1587,0.008122,-0.040364,-0.140502
1588,-0.008979,-0.078896,-0.047018
1589,-0.060283,-0.117428,0.009072
1590,-0.060283,-0.078896,0.009072
1591,-0.043182,-0.040364,-0.028322
1592,-0.043182,-0.098162,-0.084412
1593,-0.060283,-0.021098,-0.028322
1594,-0.077385,0.017434,0.027769
1595,-0.026081,0.017434,-0.009625
1596,0.008122,0.075232,-0.084412
1597,-0.008979,0.075232,-0.028322
1598,0.042325,0.075232,-0.009625
1599,0.076527,0.055966,0.065162
1600,0.059426,0.017434,0.158646
1601,0.059426,0.017434,0.102556
1602,0.042325,-0.021098,0.102556
1603,-0.008979,-0.05963,-0.047018
1604,-0.043182,-0.136694,-0.103109
1605,-0.008979,-0.117428,-0.028322
1606,0.008122,-0.078896,-0.047018
1607,-0.026081,-0.078896,-0.252683
1608,-0.008979,-0.05963,-0.177896
1609,0.025223,-0.040364,-0.028322
1610,0.059426,-0.001832,0.196039
1611,0.042325,0.055966,0.289523
1612,0.059426,0.171562,-0.215289
1613,0.059426,0.152296,-0.346167
1614,0.059426,0.094498,-0.103109
1615,0.042325,0.055966,0.233433
1616,0.008122,0.055966,0.289523
1617,-0.043182,0.075232,0.158646
1618,0.008122,0.055966,-0.009625
1619,-0.026081,0.0367,0.027769
1620,-0.026081,-0.001832,0.121252
1621,-0.008979,-0.021098,0.177343
1622,-0.008979,0.0367,0.102556
1623,0.008122,-0.001832,0.027769
1624,0.008122,0.0367,-0.028322
1625,0.059426,-0.001832,0.027769
1626,0.025223,-0.040364,0.009072
1627,0.008122,-0.021098,-0.084412
1628,0.008122,-0.021098,-0.009625
1629,-0.008979,-0.001832,0.083859
1630,-0.008979,-0.001832,0.196039
1631,-0.026081,-0.021098,-0.047018
1632,-0.008979,-0.040364,-0.028322
1633,0.008122,-0.040364,-0.084412
1634,-0.008979,-0.040364,-0.103109
1635,0.008122,0.017434,-0.047018
1636,-0.008979,-0.021098,-0.009625
1637,-0.008979,-0.001832,-0.065715
1638,-0.008979,0.0367,-0.009625
1639,-0.008979,-0.021098,0.083859
1640,-0.008979,-0.021098,-0.009625
1641,-0.008979,-0.05963,-0.028322
1642,-0.026081,-0.040364,-0.065715
1643,-0.060283,-0.040364,-0.047018
1644,-0.043182,-0.021098,0.083859
1645,-0.043182,0.017434,0.083859
1646,-0.043182,-0.021098,0.027769
1647,-0.008979,-0.001832,-0.009625
1648,-0.008979,0.0367,-0.084412
1649,0.042325,0.055966,-0.140502
1650,0.059426,0.075232,-0.084412
1651,0.042325,0.017434,-0.009625
1652,-0.060283,-0.021098,0.065162
1653,-0.077385,-0.078896,0.046465
1654,0.008122,-0.05963,0.046465
1655,0.025223,-0.15596,0.009072
1656,0.025223,-0.15596,-0.028322
1657,-0.026081,-0.117428,-0.009625
1658,0.008122,-0.040364,-0.009625
1659,0.008122,-0.001832,0.009072
1660,0.008122,-0.001832,0.027769
1661,-0.060283,-0.078896,-0.028322
1662,-0.077385,-0.098162,0.009072
1663,-0.008979,-0.021098,0.083859
1664,-0.077385,-0.040364,0.083859
1665,0.008122,-0.098162,0.065162
1666,0.025223,-0.078896,0.102556
1667,-0.026081,-0.05963,0.009072
1668,-0.060283,-0.001832,-0.065715
1669,-0.043182,0.055966,-0.084412
1670,0.008122,0.094498,-0.084412
1671,0.144933,0.248626,-0.047018
1672,0.264642,0.267892,-0.028322
1673,0.196237,0.306424,0.009072
1674,0.042325,0.210094,0.009072
1675,0.025223,0.055966,0.009072
1676,-0.008979,-0.078896,-0.009625
1677,-0.043182,-0.15596,0.009072
1678,-0.077385,-0.117428,-0.009625
1679,-0.077385,-0.05963,0.009072
1680,-0.060283,-0.040364,-0.009625
1681,-0.043182,0.0367,0.009072
1682,0.025223,0.094498,0.027769
1683,0.059426,0.094498,0.009072
1684,0.076527,0.113764,0.009072
1685,0.059426,0.113764,0.027769
1686,0.042325,0.094498,0.009072
1687,0.059426,0.094498,0.009072
1688,0.093629,0.075232,-0.009625
1689,0.076527,0.152296,-0.009625
1690,0.059426,0.171562,-0.028322
1691,0.059426,0.13303,0.027769
1692,0.042325,0.055966,-0.009625
1693,0.025223,-0.001832,0.065162
1694,-0.008979,-0.021098,0.121252
1695,-0.026081,-0.021098,0.158646
1696,-0.026081,-0.040364,0.027769
1697,-0.026081,-0.05963,-0.009625
1698,-0.008979,-0.078896,-0.047018
1699,-0.008979,-0.078896,-0.047018
1700,-0.043182,-0.05963,-0.065715
1701,-0.026081,0.017434,-0.047018
1702,-0.026081,0.017434,-0.140502
1703,-0.008979,-0.021098,-0.103109
1704,-0.008979,-0.021098,0.083859
1705,-0.008979,-0.001832,0.139949
1706,-0.043182,-0.001832,0.009072
1707,-0.026081,-0.021098,-0.047018
1708,-0.008979,0.0367,-0.065715
1709,-0.008979,0.017434,-0.084412
1710,0.008122,-0.021098,-0.028322
1711,0.008122,-0.021098,0.139949
1712,0.008122,-0.021098,0.270826
1713,-0.008979,-0.001832,0.196039
1714,0.008122,-0.001832,0.027769
1715,-0.026081,-0.001832,-0.103109
1716,-0.026081,-0.001832,-0.047018
1717,0.025223,0.055966,0.046465
1718,0.008122,0.0367,0.083859
1719,0.008122,0.0367,0.009072
1720,-0.008979,-0.001832,-0.047018
1721,-0.026081,0.017434,-0.103109
1722,-0.026081,-0.040364,-0.028322
1723,-0.008979,-0.040364,0.046465
1724,-0.008979,-0.021098,0.065162
1725,-0.008979,-0.078896,-0.028322
1726,-0.008979,-0.040364,-0.140502
1727,0.008122,-0.021098,-0.084412
1728,0.025223,-0.001832,-0.047018
1729,-0.008979,-0.021098,-0.028322
1730,-0.043182,-0.001832,-0.047018
1731,-0.026081,0.0367,-0.009625
1732,-0.026081,0.0367,0.027769
1733,-0.043182,-0.001832,-0.009625
1734,-0.043182,-0.040364,-0.009625
1735,-0.043182,-0.040364,0.009072
1736,-0.043182,-0.021098,0.027769
1737,-0.026081,-0.05963,-0.009625
1738,0.008122,-0.040364,0.009072
1739,0.025223,0.017434,-0.009625
1740,0.059426,-0.001832,0.027769
1741,0.059426,0.017434,0.009072
1742,0.042325,-0.078896,-0.009625
1743,0.025223,-0.040364,-0.028322
1744,0.042325,-0.021098,0.009072
1745,0.008122,-0.021098,-0.028322
1746,0.008122,0.0367,0.027769
1747,-0.008979,0.075232,0.065162
1748,0.025223,0.055966,0.027769
1749,-0.008979,-0.040364,0.027769
1750,-0.026081,-0.117428,0.009072
1751,-0.060283,-0.175226,0.009072
1752,-0.060283,-0.117428,-0.009625
1753,-0.026081,-0.05963,0.009072
1754,0.008122,-0.05963,-0.028322
1755,0.025223,-0.001832,-0.047018
1756,-0.008979,-0.021098,-0.009625
1757,0.008122,-0.05963,-0.009625
1758,-0.128689,-0.175226,0.027769
1759,-0.162891,-0.541279,0.046465
1760,-0.197094,-0.656875,0.083859
1761,-0.128689,-0.560545,0.102556
1762,-0.077385,-0.406417,0.065162
1763,-0.094486,-0.15596,-0.028322
1764,-0.077385,0.171562,-0.103109
1765,0.076527,0.556882,-0.084412
1766,0.162034,0.788074,-0.047018
1767,0.247541,0.90367,-0.047018
1768,0.281743,0.826606,0.009072
1769,0.247541,0.537616,0.046465
1770,0.162034,0.344956,0.046465
1771,0.076527,0.248626,0.027769
1772,0.008122,0.152296,0.009072
1773,0.042325,0.094498,-0.028322
1774,0.042325,0.094498,-0.009625
1775,0.008122,0.055966,-0.028322
1776,0.042325,0.0367,-0.028322
1777,0.025223,-0.001832,0.009072
1778,0.042325,-0.001832,0.046465
1779,0.008122,-0.05963,0.046465
1780,-0.008979,-0.040364,0.046465
1781,-0.026081,-0.05963,0.027769
1782,-0.026081,-0.021098,-0.084412
1783,-0.026081,-0.040364,-0.009625
1784,-0.008979,-0.040364,0.009072
1785,-0.008979,-0.05963,0.027769
1786,-0.026081,-0.078896,0.083859
1787,-0.026081,-0.078896,0.065162
1788,-0.008979,-0.078896,0.027769
1789,-0.008979,-0.078896,-0.047018
1790,0.008122,-0.021098,-0.084412
1791,-0.008979,-0.001832,-0.121806
1792,-0.026081,-0.098162,-0.121806
1793,-0.026081,-0.05963,0.009072
1794,-0.008979,-0.040364,0.121252
1795,0.008122,-0.001832,0.121252
1796,0.008122,-0.040364,0.083859
1797,-0.008979,-0.078896,-0.084412
1798,0.025223,-0.021098,0.009072
1799,0.025223,0.017434,0.139949
1800,-0.008979,-0.001832,0.121252
1801,-0.026081,0.055966,0.065162
1802,0.008122,0.055966,0.027769
1803,-0.026081,-0.021098,0.009072
1804,-0.026081,-0.021098,0.065162
1805,-0.008979,-0.001832,0.027769
1806,-0.008979,0.017434,-0.065715
1807,-0.026081,-0.021098,-0.065715
1808,0.008122,-0.021098,0.009072
1809,0.008122,-0.001832,0.009072
1810,0.008122,-0.040364,-0.009625
1811,-0.008979,-0.001832,0.009072
1812,-0.008979,-0.040364,-0.065715
1813,-0.008979,-0.021098,-0.140502
1814,0.008122,-0.021098,-0.065715
1815,-0.008979,-0.001832,0.009072
1816,-0.026081,0.017434,0.046465
1817,0.008122,-0.021098,0.009072
1818,0.008122,-0.001832,0.046465
1819,0.008122,-0.040364,0.027769
1820,-0.008979,-0.040364,-0.103109
1821,0.008122,0.017434,-0.009625
1822,-0.026081,-0.021098,-0.028322
1823,-0.008979,-0.021098,-0.065715
1824,-0.026081,-0.001832,-0.009625
1825,-0.026081,-0.001832,0.027769
1826,-0.008979,-0.001832,0.009072
1827,-0.008979,0.017434,0.027769
1828,0.008122,-0.001832,0.009072
1829,0.008122,-0.001832,-0.009625
1830,-0.026081,-0.001832,-0.047018
1831,-0.008979,-0.021098,-0.047018
1832,-0.026081,-0.078896,-0.047018
1833,-0.043182,-0.098162,0.009072
1834,-0.043182,-0.078896,0.046465
1835,-0.026081,-0.098162,0.046465
1836,-0.008979,-0.05963,0.027769
1837,0.025223,-0.098162,0.009072
1838,0.059426,-0.175226,-0.028322
1839,0.042325,-0.136694,0.046465
1840,0.025223,-0.117428,0.009072
1841,-0.043182,-0.078896,-0.009625
1842,-0.128689,-0.021098,-0.028322
1843,-0.043182,0.094498,0.009072
1844,-0.060283,0.13303,-0.009625
1845,-0.008979,0.171562,0.027769
1846,0.042325,0.13303,0.027769
1847,-0.026081,0.094498,0.027769
1848,-0.060283,0.113764,0.027769
1849,-0.026081,0.055966,0.027769
1850,-0.077385,-0.001832,0.009072
1851,0.008122,-0.021098,-0.009625
1852,0.042325,-0.021098,0.009072
1853,-0.008979,0.075232,0.009072
1854,0.11073,0.113764,0.009072
1855,0.144933,0.075232,0.009072
1856,0.11073,0.094498,0.027769
1857,0.093629,0.113764,0.027769
1858,0.076527,0.171562,0.009072
1859,0.059426,0.094498,0.027769
1860,0.059426,0.075232,-0.028322
1861,0.025223,-0.001832,0.027769
1862,0.025223,-0.021098,0.009072
1863,0.008122,-0.040364,-0.009625
1864,-0.008979,-0.136694,0.009072
1865,-0.043182,-0.310087,0.009072
1866,-0.077385,-0.560545,0.027769
1867,-0.026081,-0.522013,0.027769
1868,-0.026081,-0.348619,0.046465
1869,-0.060283,-0.15596,-0.009625
1870,-0.077385,0.075232,0.009072
1871,-0.043182,0.248626,-0.047018
1872,-0.043182,0.479818,-0.065715
1873,-0.060283,0.61468,-0.047018
1874,0.076527,0.61468,0.027769
1875,0.162034,0.306424,0.009072
1876,0.11073,0.113764,0.065162
1877,0.025223,0.075232,0.027769
1878,0.025223,0.0367,-0.028322
1879,0.008122,-0.001832,0.027769
1880,0.008122,0.075232,0.102556
1881,0.025223,0.055966,0.027769
1882,0.059426,0.0367,-0.047018
1883,0.042325,0.0367,0.027769
1884,0.008122,-0.001832,0.027769
1885,0.008122,-0.001832,-0.028322
1886,0.008122,-0.040364,-0.028322
1887,-0.026081,-0.05963,-0.009625
1888,-0.008979,-0.021098,0.046465
1889,-0.008979,-0.040364,0.083859
1890,-0.008979,-0.05963,0.046465
1891,-0.008979,-0.040364,-0.028322
1892,-0.008979,-0.021098,-0.084412
1893,0.008122,-0.040364,-0.047018
1894,-0.008979,-0.021098,0.065162
1895,0.008122,-0.040364,0.083859
1896,-0.008979,-0.001832,0.027769
1897,-0.008979,-0.040364,-0.009625
1898,0.008122,-0.021098,-0.047018
1899,-0.008979,-0.040364,-0.047018
1900,-0.026081,-0.05963,-0.028322
1901,-0.008979,-0.05963,-0.028322
1902,0.008122,-0.040364,-0.009625
1903,0.008122,-0.021098,0.009072
1904,-0.026081,-0.021098,0.027769
1905,-0.026081,-0.021098,-0.047018
1906,-0.008979,-0.001832,-0.103109
1907,-0.008979,-0.021098,-0.047018
1908,-0.008979,-0.040364,-0.028322
1909,0.025223,-0.021098,-0.028322
1910,0.008122,-0.021098,-0.009625
1911,0.008122,-0.040364,-0.009625
1912,0.008122,-0.001832,-0.009625
1913,0.025223,-0.001832,0.009072
1914,-0.008979,-0.001832,0.027769
1915,-0.008979,-0.021098,-0.009625
1916,-0.008979,-0.001832,-0.028322
1917,-0.060283,-0.040364,0.009072
1918,-0.026081,-0.001832,0.027769
1919,-0.026081,0.017434,0.009072
1920,-0.026081,-0.001832,-0.009625
1921,-0.008979,-0.05963,0.009072
1922,-0.008979,-0.001832,-0.009625
1923,0.008122,-0.021098,0.009072
1924,0.025223,-0.001832,0.009072
1925,0.025223,0.017434,0.046465
1926,0.008122,-0.001832,0.046465
1927,0.025223,-0.001832,0.027769
1928,0.042325,-0.001832,-0.009625
1929,0.025223,-0.021098,-0.009625
1930,-0.008979,-0.05963,-0.084412
1931,0.025223,-0.05963,-0.047018
1932,-0.026081,-0.05963,-0.009625
1933,-0.060283,-0.05963,0.009072
1934,-0.077385,-0.05963,0.027769
1935,-0.094486,-0.021098,0.009072
1936,-0.111587,-0.001832,0.009072
1937,-0.077385,0.113764,-0.009625
1938,-0.008979,0.075232,-0.009625
1939,0.059426,-0.001832,0.009072
1940,0.093629,-0.117428,-0.009625
1941,0.059426,-0.194492,-0.028322
1942,0.025223,-0.136694,-0.009625
1943,0.008122,-0.05963,-0.047018
1944,0.025223,0.0367,0.009072
1945,-0.043182,0.094498,0.009072
1946,-0.14579,0.152296,0.027769
1947,-0.128689,0.210094,-0.009625
1948,-0.026081,0.210094,0.009072
1949,0.162034,0.152296,0.009072
1950,0.230439,0.094498,0.009072
1951,0.127831,-0.001832,-0.009625
1952,0.059426,-0.001832,-0.009625
1953,0.042325,0.017434,0.009072
1954,0.008122,0.017434,0.009072
1955,0.025223,0.075232,0.046465
1956,-0.026081,0.0367,0.009072
1957,-0.008979,-0.001832,0.027769
1958,-0.008979,-0.040364,0.027769
1959,0.025223,-0.15596,0.009072
1960,0.008122,-0.175226,-0.009625
1961,0.008122,-0.078896,0.009072
1962,0.025223,-0.05963,-0.009625
1963,0.008122,0.055966,-0.028322
1964,-0.026081,0.075232,-0.065715
1965,-0.008979,0.152296,-0.028322
1966,-0.043182,0.113764,0.027769
1967,-0.026081,0.13303,0.065162
1968,0.008122,0.094498,0.027769
1969,0.025223,0.094498,0.046465
1970,0.025223,0.075232,0.046465
1971,0.025223,0.017434,0.009072
1972,0.025223,-0.021098,0.009072
1973,0.008122,-0.001832,0.027769
1974,0.025223,-0.040364,-0.009625
1975,-0.008979,0.017434,0.009072
1976,0.008122,-0.001832,0.065162
1977,0.008122,0.0367,0.102556
1978,0.008122,-0.001832,0.046465
1979,0.008122,0.017434,0.046465
1980,-0.026081,-0.040364,0.027769
1981,-0.026081,-0.021098,0.009072
1982,-0.008979,-0.001832,0.083859
1983,0.025223,-0.001832,0.065162
1984,0.025223,-0.021098,0.009072
1985,0.008122,-0.001832,0.046465
1986,0.025223,0.0367,-0.009625
1987,-0.008979,-0.021098,-0.121806
1988,-0.026081,-0.021098,-0.065715
1989,-0.008979,-0.040364,0.027769
1990,-0.026081,-0.040364,-0.065715
1991,-0.008979,-0.040364,-0.103109
1992,-0.026081,-0.05963,-0.140502
1993,-0.008979,-0.078896,-0.159199
1994,-0.008979,-0.040364,-0.140502
1995,-0.026081,-0.05963,-0.140502
1996,0.008122,-0.040364,-0.047018
1997,0.008122,-0.040364,0.158646
1998,0.008122,0.017434,0.233433
1999,0.008122,0.017434,0.121252
2000,-0.008979,0.017434,0.009072
2001,0.008122,0.075232,-0.028322
2002,-0.008979,0.055966,0.009072
2003,-0.008979,0.017434,0.009072
2004,0.008122,0.017434,0.027769
2005,0.008122,-0.001832,-0.028322
2006,0.008122,0.0367,-0.084412
2007,0.008122,-0.001832,-0.065715
2008,0.008122,-0.021098,-0.084412
2009,-0.008979,-0.021098,-0.047018
2010,-0.008979,-0.021098,0.009072
2011,-0.026081,-0.040364,0.009072
2012,-0.026081,-0.078896,0.009072
2013,-0.026081,-0.117428,0.027769
2014,-0.060283,-0.194492,0.009072
2015,-0.060283,-0.175226,-0.028322
2016,-0.043182,-0.117428,-0.028322
2017,-0.008979,-0.040364,0.009072
2018,-0.008979,0.075232,-0.009625
2019,0.042325,0.13303,0.009072
2020,0.042325,0.190828,0.009072
2021,0.076527,0.210094,-0.009625
2022,0.093629,0.190828,0.027769
2023,0.008122,0.13303,0.065162
2024,-0.008979,0.055966,0.027769
2025,0.025223,0.017434,0.009072
2026,0.008122,-0.021098,0.027769
2027,-0.008979,-0.021098,0.009072
2028,-0.026081,-0.040364,0.009072
2029,-0.026081,-0.117428,0.009072
2030,0.008122,-0.175226,-0.028322
2031,-0.008979,-0.310087,0.009072
2032,-0.008979,-0.271555,0.009072
2033,-0.026081,-0.271555,0.027769
2034,-0.111587,-0.252289,0.027769
2035,-0.14579,-0.078896,0.027769
2036,-0.179993,0.0367,-0.028322
2037,-0.162891,0.094498,-0.047018
2038,-0.026081,0.267892,-0.009625
2039,0.11073,0.210094,-0.028322
2040,0.230439,0.113764,-0.009625
2041,0.162034,-0.001832,0.009072
2042,0.093629,-0.040364,0.009072
2043,0.025223,-0.021098,-0.009625
2044,-0.026081,0.13303,-0.009625
2045,0.025223,0.248626,-0.009625
2046,0.059426,0.344956,-0.028322
2047,0.076527,0.441286,0.046465
2048,0.076527,0.32569,0.027769
2049,0.11073,0.152296,0.009072
2050,0.042325,0.075232,0.027769
2051,0.025223,0.017434,-0.009625
2052,0.025223,-0.001832,0.009072
2053,0.008122,-0.001832,0.027769
2054,0.008122,-0.021098,0.046465
2055,-0.008979,-0.021098,-0.009625
2056,-0.008979,-0.021098,0.027769
2057,-0.026081,-0.05963,-0.009625
2058,-0.026081,-0.078896,-0.028322
2059,-0.008979,-0.05963,-0.028322
2060,-0.026081,-0.021098,-0.009625
2061,0.008122,-0.001832,-0.009625
2062,-0.008979,-0.021098,-0.009625
2063,-0.008979,-0.078896,0.009072
2064,-0.026081,-0.040364,0.046465
2065,-0.008979,-0.078896,0.009072
2066,-0.026081,-0.040364,0.027769
2067,-0.008979,-0.021098,0.009072
2068,-0.008979,0.094498,-0.009625
2069,-0.043182,0.017434,0.027769
2070,-0.008979,0.017434,0.027769
2071,0.008122,0.0367,0.027769
2072,0.008122,0.055966,0.046465
2073,0.008122,-0.001832,0.027769
2074,0.008122,-0.001832,0.027769
2075,0.008122,-0.001832,0.027769
2076,0.008122,-0.021098,0.027769
2077,0.008122,0.0367,0.065162
2078,-0.008979,-0.021098,0.083859
2079,-0.008979,-0.021098,0.083859
2080,0.008122,-0.021098,0.065162
2081,0.008122,-0.021098,-0.009625
2082,0.008122,0.017434,-0.065715
2083,0.008122,-0.001832,-0.121806
2084,-0.008979,-0.021098,-0.047018
2085,-0.008979,-0.021098,0.046465
2086,-0.026081,-0.040364,0.027769
2087,-0.008979,-0.001832,0.083859
2088,-0.008979,-0.001832,0.065162
2089,0.008122,-0.021098,-0.009625
2090,0.008122,0.017434,-0.215289
2091,0.008122,-0.021098,-0.140502
2092,-0.008979,-0.021098,-0.065715
2093,0.008122,-0.021098,-0.065715
2094,-0.026081,-0.078896,-0.009625
2095,0.008122,-0.040364,-0.009625
2096,0.008122,-0.040364,0.027769
2097,-0.008979,-0.001832,0.027769
2098,0.025223,-0.001832,0.009072
2099,0.008122,0.017434,0.027769
2100,0.008122,0.055966,0.009072
2101,-0.008979,-0.001832,-0.028322
2102,-0.008979,-0.001832,-0.065715
2103,0.008122,0.0367,-0.047018
2104,0.008122,0.017434,-0.028322
2105,-0.008979,-0.001832,0.009072
2106,-0.008979,-0.05963,0.009072
2107,0.008122,-0.078896,0.046465
2108,0.008122,-0.040364,-0.009625
2109,-0.008979,0.017434,0.027769
2110,-0.060283,-0.001832,-0.028322
2111,-0.077385,-0.001832,-0.047018
2112,-0.094486,-0.001832,-0.009625
2113,-0.026081,0.0367,-0.028322
2114,0.008122,0.0367,-0.028322
2115,0.008122,0.017434,-0.028322
2116,0.076527,0.055966,-0.009625
2117,0.076527,0.0367,0.009072
2118,0.076527,0.075232,0.009072
2119,0.042325,0.055966,0.027769
2120,0.025223,0.017434,0.027769
2121,0.025223,0.017434,0.046465
2122,0.025223,-0.001832,0.009072
2123,0.008122,0.017434,0.009072
2124,0.008122,0.017434,-0.009625
2125,0.025223,-0.05963,0.009072
2126,0.025223,-0.078896,-0.028322
2127,0.025223,-0.098162,0.027769
2128,-0.094486,-0.117428,0.027769
2129,-0.128689,-0.05963,0.027769
2130,-0.077385,-0.040364,0.027769
2131,-0.060283,-0.117428,0.027769
2132,-0.043182,-0.233024,-0.009625
2133,0.008122,-0.271555,-0.009625
2134,-0.026081,-0.194492,0.009072
2135,-0.026081,-0.001832,0.009072
2136,0.042325,0.094498,-0.009625
2137,0.059426,0.210094,0.027769
2138,0.059426,0.287158,-0.009625
2139,0.076527,0.32569,0.009072
2140,0.11073,0.287158,0.046465
2141,0.093629,0.094498,0.046465
2142,-0.060283,-0.001832,0.009072
2143,-0.008979,0.017434,0.027769
2144,-0.026081,0.113764,0.009072
2145,0.025223,0.075232,-0.009625
2146,0.093629,-0.021098,0.009072
2147,0.059426,-0.117428,-0.009625
2148,-0.026081,-0.098162,-0.009625
2149,-0.043182,-0.05963,0.009072
2150,-0.026081,-0.001832,0.046465
2151,-0.026081,0.113764,0.009072
2152,-0.043182,0.171562,0.009072
2153,-0.043182,0.152296,0.009072
2154,0.008122,0.13303,0.009072
2155,0.042325,0.0367,-0.028322
2156,0.042325,-0.040364,-0.009625
2157,0.025223,-0.021098,-0.065715
2158,0.025223,-0.001832,-0.009625
2159,-0.008979,-0.001832,0.009072
2160,0.008122,0.017434,-0.009625
2161,0.008122,0.0367,0.009072
2162,0.008122,0.055966,0.027769
2163,0.008122,0.0367,0.009072
2164,0.008122,-0.05963,0.027769
2165,-0.008979,-0.040364,0.009072
2166,-0.026081,-0.05963,0.009072
2167,-0.008979,-0.040364,0.009072
2168,-0.008979,-0.040364,0.065162
2169,-0.008979,-0.001832,0.027769
2170,0.008122,0.0367,0.083859
2171,-0.008979,0.055966,0.102556
2172,0.025223,0.0367,0.121252
2173,0.008122,0.017434,0.065162
2174,0.008122,0.017434,0.083859
2175,0.008122,-0.001832,0.009072
2176,-0.008979,-0.040364,-0.121806
2177,-0.008979,-0.05963,-0.159199
2178,-0.026081,-0.05963,-0.159199
2179,-0.008979,-0.078896,-0.103109
2180,-0.008979,-0.040364,-0.028322
2181,-0.008979,-0.040364,0.009072
2182,-0.008979,-0.040364,0.065162
2183,-0.008979,0.055966,0.083859
2184,0.008122,0.0367,0.046465
2185,0.008122,0.0367,-0.009625
2186,0.008122,0.017434,-0.028322
2187,0.025223,-0.001832,0.009072
2188,0.025223,0.017434,0.009072
2189,0.008122,0.017434,0.009072
2190,-0.026081,0.017434,0.027769
2191,-0.026081,0.017434,0.027769
2192,-0.008979,-0.001832,0.046465
2193,0.008122,-0.001832,-0.009625
2194,-0.008979,-0.021098,-0.084412
2195,-0.008979,-0.021098,-0.103109
2196,0.008122,-0.021098,-0.047018
2197,-0.008979,-0.001832,-0.028322
2198,-0.043182,-0.001832,-0.009625
2199,-0.008979,-0.001832,0.009072
2200,0.008122,-0.001832,-0.028322
2201,-0.008979,-0.001832,0.009072
2202,0.008122,-0.001832,-0.009625
2203,0.008122,0.0367,-0.028322
2204,0.008122,-0.040364,-0.047018
2205,-0.008979,-0.040364,0.009072
2206,-0.008979,-0.001832,0.009072
2207,-0.026081,-0.040364,-0.009625
2208,-0.008979,-0.040364,0.009072
2209,-0.043182,-0.021098,-0.028322
2210,-0.026081,-0.040364,-0.028322
2211,-0.026081,-0.021098,-0.009625
2212,-0.026081,-0.021098,-0.009625
2213,-0.026081,-0.078896,0.009072
2214,-0.008979,-0.078896,0.009072
2215,0.008122,-0.05963,0.027769
2216,0.008122,-0.098162,0.009072
2217,0.042325,-0.040364,0.009072
2218,0.042325,0.0367,0.009072
2219,0.042325,0.055966,-0.009625
2220,0.076527,0.113764,-0.009625
2221,0.042325,0.075232,0.009072
2222,0.008122,0.0367,-0.028322
2223,0.025223,0.13303,0.009072
2224,0.042325,0.171562,0.009072
2225,0.025223,0.094498,-0.009625
2226,-0.077385,0.075232,0.009072
2227,-0.060283,-0.001832,0.009072
2228,-0.026081,-0.040364,0.009072
2229,-0.008979,-0.05963,0.027769
2230,-0.008979,-0.098162,-0.009625
2231,-0.008979,-0.078896,-0.028322
2232,-0.008979,-0.05963,-0.009625
2233,-0.008979,-0.117428,0.009072
2234,-0.008979,-0.117428,-0.009625
2235,-0.026081,-0.15596,0.027769
2236,-0.060283,-0.117428,0.009072
2237,-0.077385,-0.040364,-0.009625
2238,-0.060283,0.094498,0.009072
2239,0.008122,0.267892,0.027769
2240,0.059426,0.364222,0.009072
2241,0.076527,0.306424,-0.009625
2242,0.059426,0.152296,0.009072
2243,0.059426,0.055966,-0.028322
2244,0.059426,0.0367,-0.009625
2245,0.042325,0.0367,0.027769
2246,0.025223,-0.001832,0.009072
2247,0.025223,-0.001832,0.009072
2248,-0.026081,-0.001832,0.009072
2249,0.008122,0.017434,-0.009625
2250,0.008122,-0.001832,-0.028322
2251,0.008122,0.017434,0.009072
2252,-0.008979,0.0367,0.009072
2253,-0.026081,-0.021098,0.009072
2254,-0.026081,-0.040364,0.046465
2255,0.008122,-0.001832,0.027769
2256,0.008122,-0.021098,0.065162
2257,-0.008979,-0.001832,0.046465
2258,-0.008979,-0.001832,-0.009625
2259,0.008122,-0.021098,-0.084412
2260,-0.008979,-0.040364,-0.047018
2261,-0.008979,-0.001832,-0.028322
2262,0.008122,-0.021098,-0.047018
2263,0.008122,-0.040364,-0.047018
2264,-0.008979,-0.021098,0.009072
2265,0.008122,-0.001832,0.046465
2266,-0.008979,0.017434,0.065162
2267,0.008122,0.017434,0.102556
2268,0.008122,-0.021098,0.083859
2269,-0.008979,-0.001832,0.083859
2270,0.008122,-0.021098,-0.009625
2271,0.008122,-0.040364,-0.065715
2272,-0.008979,-0.021098,-0.028322
2273,-0.026081,-0.040364,-0.009625
2274,-0.008979,-0.040364,-0.028322
2275,-0.026081,-0.021098,0.009072
2276,-0.008979,0.0367,-0.028322
2277,-0.026081,-0.001832,-0.065715
2278,0.008122,0.017434,-0.009625
2279,0.008122,-0.021098,0.027769
2280,0.008122,-0.001832,0.009072
2281,0.008122,-0.021098,0.027769
2282,0.008122,-0.021098,0.027769
2283,0.008122,-0.001832,-0.065715
2284,-0.008979,-0.001832,-0.065715
2285,-0.008979,-0.001832,-0.009625
2286,0.008122,-0.001832,0.046465
2287,0.008122,0.0367,0.083859
2288,0.008122,0.017434,0.046465
2289,-0.008979,0.017434,0.009072
2290,0.008122,0.017434,0.009072
2291,0.008122,-0.001832,0.009072
2292,-0.008979,-0.001832,-0.028322
2293,-0.008979,-0.021098,-0.121806
2294,0.008122,-0.040364,-0.084412
2295,0.008122,-0.05963,-0.065715
2296,-0.008979,-0.05963,-0.047018
2297,-0.043182,-0.040364,-0.028322
2298,-0.008979,-0.05963,-0.009625
2299,-0.008979,-0.05963,-0.009625
2300,-0.026081,-0.098162,0.009072
2301,-0.008979,-0.040364,0.009072
2302,0.008122,-0.021098,0.009072
2303,-0.008979,0.017434,0.046465
2304,0.008122,0.0367,0.009072
2305,0.025223,0.075232,-0.009625
2306,0.042325,0.113764,-0.009625
2307,0.025223,0.152296,-0.009625
2308,0.025223,0.113764,-0.009625
2309,0.042325,0.075232,0.027769
2310,0.025223,-0.001832,0.027769
2311,0.025223,-0.021098,0.009072
2312,0.008122,-0.021098,0.046465
2313,-0.008979,-0.001832,0.027769
2314,-0.060283,-0.040364,-0.009625
2315,-0.008979,-0.021098,-0.009625
2316,0.025223,0.017434,0.009072
2317,0.025223,0.055966,-0.009625
2318,0.008122,0.017434,0.009072
2319,-0.008979,-0.040364,0.046465
2320,-0.008979,-0.021098,0.009072
2321,-0.026081,-0.040364,0.027769
2322,-0.060283,-0.078896,0.027769
2323,-0.060283,-0.040364,0.009072
2324,-0.026081,-0.021098,-0.028322
2325,-0.026081,-0.001832,0.009072
2326,0.008122,-0.001832,-0.028322
2327,-0.008979,-0.001832,-0.009625
2328,0.008122,-0.001832,-0.009625
2329,0.042325,0.0367,-0.009625
2330,0.076527,0.0367,0.009072
2331,0.076527,-0.001832,0.009072
2332,0.042325,-0.001832,0.009072
2333,0.025223,0.017434,0.027769
2334,0.025223,0.0367,0.027769
2335,0.008122,0.075232,-0.009625
2336,0.008122,0.017434,-0.009625
2337,-0.008979,-0.098162,0.009072
2338,-0.026081,-0.117428,-0.009625
2339,-0.026081,-0.05963,0.009072
2340,-0.008979,-0.117428,0.009072
2341,-0.008979,0.017434,0.027769
2342,-0.026081,0.0367,0.027769
2343,-0.026081,0.094498,0.009072
2344,0.008122,0.22936,0.009072
2345,0.025223,0.287158,0.009072
2346,0.008122,0.152296,0.027769
2347,0.025223,0.113764,-0.009625
2348,0.025223,0.055966,-0.028322
2349,0.025223,-0.040364,-0.009625
2350,0.042325,0.0367,0.027769
2351,0.025223,0.017434,0.009072
2352,0.008122,0.017434,0.027769
2353,0.008122,-0.021098,0.009072
2354,0.008122,0.017434,-0.009625
2355,-0.026081,-0.021098,0.027769
2356,0.025223,0.017434,0.009072
2357,-0.008979,-0.021098,-0.028322
2358,0.008122,-0.021098,-0.009625
2359,0.008122,-0.021098,-0.028322
2360,-0.008979,-0.001832,-0.047018
2361,-0.008979,-0.040364,0.009072
2362,0.008122,-0.040364,0.009072
2363,0.008122,-0.001832,-0.028322
2364,0.008122,-0.001832,0.046465
2365,0.008122,0.0367,0.046465
2366,0.008122,-0.001832,-0.009625
2367,-0.026081,-0.021098,-0.047018
2368,0.008122,-0.001832,-0.009625
2369,0.008122,-0.021098,0.027769
2370,0.008122,-0.021098,0.027769
2371,0.008122,-0.001832,0.046465
2372,-0.008979,-0.021098,-0.009625
2373,-0.008979,-0.040364,-0.009625
2374,-0.026081,-0.040364,0.046465
2375,-0.026081,-0.05963,0.009072
2376,0.008122,-0.021098,-0.047018
2377,0.008122,-0.001832,0.027769
2378,0.008122,-0.021098,-0.009625
2379,0.008122,-0.001832,-0.009625
2380,0.025223,0.017434,0.065162
2381,0.008122,0.055966,-0.009625
2382,0.008122,0.017434,-0.028322
2383,-0.008979,0.017434,-0.028322
2384,-0.008979,0.017434,-0.028322
2385,0.008122,-0.001832,-0.028322
2386,0.008122,-0.040364,-0.028322
2387,-0.008979,-0.05963,-0.028322
2388,-0.008979,-0.040364,-0.084412
2389,-0.008979,-0.05963,-0.047018
2390,-0.008979,-0.040364,-0.121806
2391,-0.008979,-0.040364,-0.065715
2392,-0.008979,-0.001832,-0.047018
2393,-0.008979,-0.021098,-0.028322
2394,0.008122,-0.001832,-0.047018
2395,-0.008979,0.017434,0.009072
2396,0.008122,-0.001832,0.027769
2397,-0.008979,-0.021098,0.009072
2398,0.008122,-0.040364,0.009072
2399,-0.008979,-0.040364,0.009072
2400,0.008122,-0.021098,-0.028322
2401,0.008122,0.055966,0.009072
2402,-0.008979,0.094498,0.027769
2403,0.008122,0.075232,0.009072
2404,0.008122,0.094498,0.027769
2405,0.042325,0.075232,0.046465
2406,0.025223,0.0367,0.046465
2407,0.008122,-0.001832,0.046465
2408,0.008122,-0.001832,0.027769
2409,0.025223,0.055966,-0.009625
2410,0.008122,-0.021098,-0.009625
2411,-0.008979,-0.021098,0.009072
2412,0.008122,-0.05963,-0.028322
2413,-0.026081,-0.05963,0.027769
2414,-0.008979,-0.001832,0.027769
2415,-0.008979,0.017434,0.046465
2416,0.025223,0.055966,0.046465
2417,0.008122,0.0367,0.046465
2418,0.025223,0.055966,0.027769
2419,-0.008979,0.075232,-0.028322
2420,-0.008979,-0.001832,0.009072
2421,-0.008979,0.017434,-0.028322
2422,-0.026081,-0.021098,-0.028322
2423,-0.026081,-0.05963,-0.009625
2424,0.008122,-0.05963,-0.028322
2425,-0.008979,-0.098162,-0.009625
2426,-0.008979,-0.175226,0.009072
2427,-0.008979,-0.194492,0.046465
2428,-0.043182,-0.175226,-0.028322
2429,-0.026081,-0.040364,0.027769
2430,-0.026081,0.0367,0.009072
2431,0.008122,0.13303,-0.028322
2432,0.025223,0.210094,-0.009625
2433,0.076527,0.267892,0.027769
2434,0.076527,0.190828,-0.009625
2435,0.042325,0.113764,0.027769
2436,0.008122,0.055966,0.027769
2437,0.025223,0.055966,-0.009625
2438,-0.008979,-0.001832,0.009072
2439,0.008122,0.0367,-0.009625
2440,0.008122,0.0367,-0.009625
2441,0.008122,0.017434,0.009072
2442,0.008122,-0.001832,-0.028322
2443,0.008122,-0.05963,-0.047018
2444,-0.008979,-0.001832,-0.009625
2445,-0.008979,-0.040364,0.009072
2446,-0.008979,-0.05963,0.009072
2447,-0.008979,-0.078896,-0.009625
2448,-0.008979,-0.040364,0.046465
2449,-0.008979,-0.021098,-0.009625
2450,0.008122,0.017434,0.027769
2451,0.008122,0.0367,0.027769
2452,0.008122,0.113764,0.009072
2453,0.008122,0.113764,-0.009625
2454,-0.008979,0.017434,0.009072
2455,-0.008979,-0.040364,-0.009625
2456,-0.008979,0.017434,0.046465
2457,-0.008979,-0.001832,0.065162
2458,-0.008979,-0.021098,0.065162
2459,-0.008979,-0.021098,0.046465
2460,0.008122,-0.001832,0.046465
2461,0.025223,0.017434,0.027769
2462,-0.008979,0.017434,-0.121806
2463,-0.008979,-0.001832,-0.121806
2464,-0.008979,-0.001832,-0.047018
2465,0.008122,-0.001832,-0.028322
2466,-0.008979,0.094498,-0.028322
2467,0.008122,-0.001832,-0.028322
2468,-0.008979,-0.040364,-0.084412
2469,0.008122,-0.021098,-0.009625
2470,0.008122,-0.021098,-0.009625
2471,0.008122,-0.001832,0.009072
2472,0.008122,-0.021098,0.027769
2473,0.008122,-0.040364,0.009072
2474,0.008122,-0.021098,-0.028322
2475,-0.008979,-0.001832,-0.009625
2476,0.008122,0.017434,-0.009625
2477,0.025223,0.017434,-0.009625
2478,0.008122,0.017434,0.027769
2479,-0.008979,0.0367,0.102556
2480,0.008122,-0.001832,0.083859
2481,0.008122,0.017434,0.083859
2482,-0.026081,-0.001832,0.027769
2483,-0.008979,-0.021098,0.009072
2484,-0.008979,-0.001832,-0.047018
2485,0.025223,0.017434,-0.028322
2486,-0.008979,-0.001832,-0.084412
2487,0.008122,-0.001832,-0.047018
2488,-0.008979,0.017434,0.027769
2489,-0.008979,0.017434,0.065162
2490,0.008122,0.017434,0.046465
2491,0.008122,0.0367,0.046465
2492,0.025223,0.017434,0.009072
2493,0.008122,-0.021098,-0.028322
2494,-0.008979,-0.021098,-0.009625
2495,-0.008979,-0.021098,-0.159199
2496,-0.026081,0.017434,-0.121806
2497,-0.008979,0.017434,-0.047018
2498,0.008122,0.017434,-0.065715
2499,-0.008979,-0.040364,-0.009625
2500,0.008122,-0.021098,0.027769
2501,0.025223,-0.001832,0.065162
2502,-0.008979,0.017434,0.065162
2503,-0.008979,0.0367,0.027769
2504,0.008122,0.055966,0.027769
2505,0.025223,0.0367,-0.028322
2506,0.025223,0.0367,-0.084412
2507,0.008122,0.075232,-0.084412
2508,0.025223,-0.001832,-0.047018
2509,0.008122,-0.001832,-0.028322
2510,0.008122,-0.021098,-0.009625
2511,-0.008979,-0.040364,0.009072
2512,-0.043182,-0.040364,0.027769
2513,-0.026081,-0.040364,0.027769
2514,0.025223,-0.021098,0.009072
2515,-0.008979,-0.021098,0.027769
2516,0.008122,-0.001832,0.009072
2517,-0.026081,0.0367,0.009072
2518,0.008122,0.0367,0.009072
2519,0.008122,0.017434,0.046465
2520,0.025223,0.055966,0.009072
2521,0.008122,0.055966,0.009072
2522,-0.008979,0.0367,0.027769
2523,-0.008979,-0.001832,0.009072
2524,-0.026081,-0.021098,0.009072
2525,-0.008979,-0.001832,0.009072
2526,0.008122,-0.040364,-0.009625
2527,-0.008979,-0.078896,-0.028322
2528,-0.026081,-0.078896,0.046465
2529,-0.008979,-0.040364,0.027769
2530,-0.008979,-0.040364,0.046465
2531,0.008122,-0.040364,0.046465
2532,0.008122,-0.021098,0.046465
2533,0.008122,0.017434,0.027769
2534,0.008122,0.017434,-0.028322
2535,-0.008979,-0.021098,-0.065715
2536,0.025223,0.0367,-0.065715
2537,0.042325,0.075232,-0.047018
2538,0.008122,0.075232,-0.028322
2539,0.008122,0.0367,-0.009625
2540,0.008122,0.075232,0.027769
2541,0.025223,0.055966,-0.009625
2542,0.008122,0.055966,0.046465
2543,0.008122,0.0367,0.027769
2544,0.008122,0.017434,0.027769
2545,-0.008979,0.0367,0.009072
2546,-0.008979,-0.001832,0.027769
2547,-0.008979,-0.021098,-0.047018
2548,0.025223,-0.001832,-0.065715
2549,0.008122,0.017434,-0.047018
2550,0.008122,-0.001832,-0.028322
2551,-0.008979,-0.021098,-0.009625
2552,0.008122,-0.001832,-0.009625
2553,-0.008979,0.017434,0.009072
2554,0.008122,0.017434,0.009072
2555,-0.008979,-0.001832,0.009072
2556,0.008122,0.017434,-0.009625
2557,0.008122,-0.021098,-0.028322
2558,-0.008979,-0.001832,-0.047018
2559,0.008122,0.017434,0.009072
2560,0.008122,-0.001832,-0.009625
2561,-0.008979,-0.001832,0.009072
2562,0.008122,0.017434,0.027769
2563,0.008122,0.017434,-0.009625
2564,0.008122,0.017434,0.027769
2565,0.008122,0.017434,0.046465
2566,0.025223,-0.021098,-0.009625
2567,0.008122,-0.021098,0.027769
2568,0.008122,0.017434,0.009072
2569,-0.008979,-0.001832,0.009072
2570,0.008122,-0.021098,0.009072
2571,0.008122,-0.001832,0.046465
2572,0.008122,-0.001832,0.027769
2573,0.008122,-0.021098,0.046465
2574,0.008122,-0.001832,0.027769
2575,0.008122,-0.001832,0.046465
2576,-0.008979,-0.021098,-0.009625
2577,0.008122,-0.021098,0.009072
2578,-0.008979,-0.021098,-0.065715
2579,-0.008979,0.017434,-0.047018
2580,-0.008979,0.017434,0.009072
2581,-0.008979,0.0367,-0.028322
2582,0.008122,0.055966,-0.028322
2583,-0.008979,0.0367,0.009072
2584,-0.008979,0.055966,0.046465
2585,-0.008979,-0.001832,-0.009625
2586,-0.008979,-0.040364,-0.140502
2587,-0.008979,-0.021098,-0.084412
2588,0.008122,-0.021098,-0.047018
2589,-0.008979,-0.021098,0.009072
2590,-0.008979,-0.001832,-0.009625
2591,0.008122,-0.001832,-0.028322
2592,0.008122,-0.001832,-0.009625
2593,0.008122,-0.021098,0.027769
2594,-0.008979,-0.021098,0.009072
2595,0.008122,-0.05963,0.027769
2596,0.025223,-0.021098,0.083859
2597,0.008122,-0.001832,0.065162
2598,0.025223,0.017434,0.027769
2599,0.008122,0.055966,-0.047018
2600,0.008122,0.0367,-0.065715
2601,0.008122,0.0367,-0.028322
2602,-0.008979,0.017434,-0.047018
2603,-0.026081,-0.021098,-0.009625
2604,0.008122,-0.001832,-0.009625
2605,-0.008979,-0.021098,0.027769
2606,-0.026081,-0.021098,0.046465
2607,0.008122,-0.021098,-0.009625
2608,0.008122,-0.05963,0.027769
2609,-0.008979,-0.021098,0.027769
2610,-0.008979,-0.021098,-0.009625
2611,0.025223,-0.021098,0.009072
2612,0.025223,-0.001832,0.009072
2613,0.025223,0.0367,-0.009625
2614,0.008122,0.055966,0.027769
2615,0.025223,0.0367,0.027769
2616,0.008122,0.055966,0.027769
2617,0.008122,0.055966,0.046465
2618,-0.008979,0.055966,0.046465
2619,0.008122,0.017434,0.009072
2620,-0.008979,0.017434,0.046465
2621,0.008122,-0.001832,0.046465
2622,0.025223,-0.021098,0.009072
2623,-0.008979,-0.021098,-0.047018
2624,-0.008979,-0.021098,-0.084412
2625,0.025223,-0.040364,-0.065715
2626,0.008122,-0.021098,-0.028322
2627,-0.008979,-0.021098,0.009072
2628,0.008122,-0.040364,-0.028322
2629,0.008122,-0.001832,-0.009625
2630,0.008122,0.017434,0.027769
2631,0.008122,0.017434,0.009072
2632,-0.008979,0.017434,-0.009625
2633,-0.008979,0.017434,0.009072
2634,0.008122,0.055966,-0.009625
2635,0.008122,0.017434,-0.028322
2636,-0.008979,0.055966,0.009072
2637,-0.008979,0.017434,-0.009625
2638,-0.026081,0.017434,-0.028322
2639,-0.008979,-0.001832,0.009072
2640,-0.008979,-0.021098,0.027769
2641,-0.008979,-0.001832,0.027769
2642,-0.008979,0.0367,0.046465
2643,0.008122,0.017434,0.009072
2644,0.008122,-0.001832,0.009072
2645,0.008122,-0.001832,-0.009625
2646,0.025223,0.017434,0.009072
2647,0.008122,0.017434,-0.028322
2648,-0.008979,-0.021098,-0.028322
2649,-0.008979,-0.021098,-0.009625
2650,-0.008979,-0.021098,-0.009625
2651,0.008122,-0.001832,0.027769
2652,0.008122,-0.001832,0.046465
2653,0.008122,-0.021098,0.083859
2654,0.008122,-0.040364,0.083859
2655,-0.008979,-0.05963,0.046465
2656,-0.008979,-0.05963,0.009072
2657,0.008122,-0.001832,-0.121806
2658,-0.008979,0.017434,-0.103109
2659,0.008122,-0.001832,-0.121806
2660,-0.008979,-0.001832,-0.103109
2661,0.008122,0.055966,-0.009625
2662,0.025223,0.0367,0.027769
2663,0.008122,0.017434,0.027769
2664,-0.008979,-0.040364,0.065162
2665,0.008122,0.017434,0.027769
2666,0.008122,0.0367,0.009072
2667,0.008122,-0.001832,0.027769
2668,0.025223,0.0367,-0.028322
2669,0.008122,0.0367,-0.047018
2670,-0.008979,0.0367,-0.047018
2671,0.008122,0.0367,0.009072
2672,0.008122,0.017434,0.009072
2673,-0.008979,-0.001832,0.027769
2674,-0.008979,-0.001832,0.027769
2675,-0.008979,-0.001832,0.009072
2676,0.008122,-0.001832,0.046465
2677,0.008122,-0.001832,0.009072
2678,0.008122,-0.040364,0.009072
2679,-0.026081,-0.05963,-0.028322
2680,-0.008979,-0.040364,-0.028322
2681,0.008122,0.017434,-0.028322
2682,-0.008979,0.0367,0.027769
2683,-0.008979,0.0367,0.027769
2684,0.008122,0.075232,0.046465
2685,0.008122,0.055966,0.046465
2686,0.008122,0.017434,0.046465
2687,-0.008979,-0.001832,0.027769
2688,-0.008979,-0.040364,-0.047018
2689,0.008122,-0.001832,-0.047018
2690,0.025223,-0.001832,-0.028322
2691,-0.008979,-0.001832,-0.009625
2692,0.008122,-0.001832,0.027769
2693,-0.026081,-0.040364,-0.009625
2694,0.008122,-0.001832,-0.009625
2695,-0.008979,0.017434,0.027769
2696,0.008122,0.017434,0.009072
2697,0.025223,0.017434,-0.028322
2698,0.008122,-0.001832,-0.009625
2699,-0.008979,-0.040364,-0.028322
2700,-0.026081,-0.05963,-0.047018
2701,-0.008979,-0.05963,-0.028322
2702,-0.026081,-0.001832,-0.009625
2703,0.008122,-0.001832,0.009072
2704,0.008122,-0.001832,0.009072
2705,-0.008979,-0.001832,0.027769
2706,0.008122,0.0367,-0.028322
2707,0.008122,0.055966,0.027769
2708,0.008122,-0.001832,0.027769
2709,-0.008979,-0.05963,0.027769
2710,0.008122,-0.040364,-0.009625
2711,-0.008979,-0.040364,-0.009625
2712,0.008122,-0.001832,-0.009625
2713,-0.026081,-0.021098,0.027769
2714,0.008122,0.017434,0.046465
2715,0.008122,0.055966,0.027769
2716,-0.008979,0.055966,0.009072
2717,0.008122,0.0367,-0.009625
2718,0.008122,0.017434,-0.065715
2719,0.008122,-0.021098,-0.065715
2720,0.008122,-0.001832,0.009072
2721,0.008122,-0.021098,0.009072
2722,0.025223,-0.001832,-0.009625
2723,0.008122,0.055966,-0.009625
2724,0.008122,0.017434,-0.065715
2725,0.008122,-0.001832,-0.028322
2726,-0.008979,-0.001832,0.009072
2727,0.008122,-0.001832,0.009072
2728,-0.008979,0.017434,0.027769
2729,-0.026081,0.017434,0.009072
2730,-0.008979,0.017434,-0.047018
2731,0.008122,-0.001832,-0.028322
2732,0.008122,-0.001832,0.009072
2733,-0.008979,-0.021098,-0.028322
2734,-0.008979,-0.021098,-0.028322
2735,0.008122,0.017434,0.009072
2736,0.008122,-0.001832,0.027769
2737,0.008122,-0.021098,0.009072
2738,0.008122,-0.001832,0.046465
2739,0.008122,-0.021098,0.046465
2740,0.008122,0.017434,-0.009625
2741,0.008122,-0.040364,0.046465
2742,-0.008979,-0.001832,0.009072
2743,0.008122,0.0367,0.009072
2744,-0.008979,0.055966,0.027769
2745,0.025223,0.0367,0.027769
2746,0.025223,-0.001832,-0.047018
2747,-0.026081,-0.001832,-0.009625
2748,-0.008979,0.017434,0.065162
2749,-0.008979,0.017434,0.065162
2750,0.008122,0.017434,0.046465
2751,0.008122,-0.001832,0.027769
2752,0.008122,-0.05963,0.027769
2753,-0.008979,-0.098162,-0.028322
2754,0.008122,-0.098162,-0.028322
2755,0.008122,-0.021098,-0.028322
2756,0.008122,0.017434,-0.009625
2757,0.008122,0.017434,0.009072
2758,0.008122,0.075232,0.027769
2759,-0.008979,0.094498,0.009072
2760,0.025223,0.094498,0.009072
2761,0.025223,0.0367,0.009072
2762,0.025223,0.0367,0.027769
2763,-0.008979,-0.040364,0.027769
2764,0.008122,-0.021098,0.009072
2765,-0.026081,-0.040364,-0.065715
2766,0.008122,-0.021098,-0.009625
2767,0.008122,-0.001832,-0.009625
2768,0.008122,0.017434,0.009072
2769,-0.008979,0.017434,-0.028322
2770,0.008122,-0.021098,-0.028322
2771,-0.026081,-0.040364,-0.047018
2772,0.008122,-0.05963,0.009072
2773,-0.008979,-0.021098,-0.009625
2774,0.025223,0.0367,-0.028322
2775,0.008122,0.0367,-0.028322
2776,0.008122,0.017434,-0.028322
2777,-0.008979,-0.001832,-0.047018
2778,-0.008979,0.055966,-0.028322
2779,0.008122,-0.001832,0.009072
2780,-0.008979,-0.040364,0.009072
2781,-0.008979,-0.040364,0.027769
2782,-0.008979,-0.001832,0.083859
2783,-0.008979,0.0367,0.027769
2784,0.008122,0.055966,0.009072
2785,-0.026081,0.0367,-0.009625
2786,-0.008979,0.017434,0.027769
2787,0.008122,-0.001832,0.027769
2788,-0.008979,0.017434,0.009072
2789,0.008122,-0.001832,-0.009625
2790,0.008122,0.0367,-0.028322
2791,-0.008979,-0.001832,-0.084412
2792,-0.008979,-0.001832,-0.009625
2793,0.042325,-0.021098,0.009072
2794,0.008122,-0.001832,0.009072
2795,-0.008979,-0.021098,0.009072
2796,-0.008979,-0.001832,-0.028322
2797,-0.008979,0.017434,-0.009625
2798,-0.008979,0.017434,-0.009625
2799,0.008122,-0.021098,-0.009625
2800,-0.008979,-0.021098,0.027769
2801,0.008122,-0.001832,0.046465
2802,0.008122,-0.001832,0.027769
2803,0.008122,-0.001832,0.046465
2804,-0.008979,-0.040364,0.046465
2805,-0.026081,-0.021098,0.009072
2806,0.008122,-0.001832,0.065162
2807,0.008122,0.017434,0.009072
2808,0.008122,-0.040364,-0.009625
2809,-0.008979,-0.040364,-0.009625
2810,-0.008979,-0.021098,-0.009625
2811,0.025223,-0.001832,-0.028322
2812,-0.008979,-0.021098,-0.009625
2813,-0.008979,-0.021098,-0.009625
2814,-0.008979,0.017434,-0.028322
2815,0.008122,-0.001832,-0.009625
2816,0.025223,0.0367,-0.009625
2817,0.008122,0.0367,-0.047018
2818,-0.008979,0.0367,-0.047018
2819,0.008122,0.0367,-0.009625
2820,-0.008979,0.055966,-0.028322
2821,0.008122,-0.001832,0.027769
2822,0.008122,0.017434,0.046465
2823,0.008122,-0.001832,0.027769
2824,0.008122,-0.001832,0.009072
2825,0.008122,-0.021098,0.027769
2826,-0.008979,-0.021098,0.009072
2827,-0.026081,-0.040364,-0.009625
2828,0.008122,-0.021098,-0.009625
2829,0.008122,0.0367,-0.009625
2830,0.008122,0.0367,0.027769
2831,0.008122,-0.021098,0.009072
2832,-0.008979,-0.001832,-0.028322
2833,-0.008979,-0.021098,-0.009625
2834,-0.008979,-0.021098,0.027769
2835,-0.008979,-0.021098,0.009072
2836,-0.026081,0.017434,0.009072
2837,-0.008979,0.0367,0.027769
2838,-0.026081,0.094498,0.027769
2839,0.025223,0.055966,-0.009625
2840,0.008122,0.017434,0.027769
2841,0.008122,0.055966,0.046465
2842,0.025223,0.017434,0.009072
2843,0.025223,0.017434,0.009072
2844,0.025223,-0.040364,0.046465
2845,0.008122,-0.05963,-0.009625
2846,-0.008979,-0.098162,-0.009625
2847,-0.008979,-0.078896,-0.065715
2848,0.008122,-0.040364,-0.065715
2849,-0.008979,-0.001832,-0.047018
2850,0.008122,0.017434,-0.009625
2851,0.008122,0.055966,-0.009625
2852,0.008122,0.075232,-0.009625
2853,0.008122,0.113764,0.009072
2854,-0.008979,0.017434,-0.028322
2855,0.008122,0.017434,0.009072
2856,0.008122,0.0367,-0.028322
2857,-0.008979,0.0367,-0.084412
2858,-0.008979,-0.001832,-0.009625
2859,-0.026081,-0.021098,-0.009625
2860,-0.008979,-0.001832,-0.028322
2861,-0.008979,-0.001832,-0.047018
2862,0.008122,0.017434,0.009072
2863,-0.008979,-0.021098,-0.028322
2864,-0.008979,-0.040364,0.009072
2865,0.008122,-0.05963,0.027769
2866,0.008122,-0.040364,0.046465
2867,0.008122,-0.021098,0.046465
2868,0.008122,0.017434,0.046465
2869,0.008122,0.0367,0.027769
2870,-0.008979,0.094498,-0.009625
2871,0.008122,0.055966,0.027769
2872,0.025223,0.0367,-0.009625
2873,0.025223,0.017434,0.009072
2874,-0.008979,0.017434,0.009072
2875,0.008122,-0.001832,0.046465
2876,-0.026081,-0.021098,0.009072
2877,-0.026081,-0.040364,0.046465
2878,-0.008979,-0.021098,0.065162
2879,0.025223,0.017434,0.027769
2880,-0.008979,-0.001832,0.046465
2881,-0.008979,-0.001832,0.009072
2882,-0.008979,-0.001832,-0.009625
2883,0.008122,-0.021098,-0.028322
2884,0.008122,-0.021098,-0.065715
2885,-0.008979,-0.021098,-0.047018
2886,-0.008979,-0.040364,-0.047018
2887,-0.026081,-0.001832,0.009072
2888,-0.008979,-0.021098,-0.047018
2889,-0.008979,0.017434,0.009072
2890,-0.026081,-0.040364,-0.009625
2891,-0.008979,-0.001832,-0.009625
2892,0.008122,-0.001832,-0.028322
2893,0.008122,-0.001832,-0.009625
2894,0.008122,-0.001832,-0.009625
2895,0.008122,-0.001832,0.009072
2896,0.008122,-0.021098,0.027769
2897,-0.008979,-0.001832,0.009072
2898,0.008122,-0.001832,-0.009625
2899,-0.026081,-0.021098,0.027769
2900,-0.008979,-0.021098,0.009072
2901,-0.008979,-0.078896,0.009072
2902,-0.008979,-0.098162,0.009072
2903,-0.008979,-0.078896,-0.009625
2904,-0.008979,-0.05963,-0.028322
2905,-0.026081,-0.021098,0.009072
2906,-0.008979,0.017434,-0.047018
2907,0.008122,0.055966,0.009072
2908,0.025223,0.075232,0.027769
2909,0.025223,0.075232,0.027769
2910,0.008122,0.055966,0.027769
2911,0.025223,0.0367,0.046465
2912,0.025223,-0.001832,-0.009625
2913,0.008122,0.0367,-0.028322
2914,-0.008979,-0.001832,-0.028322
2915,0.008122,0.017434,-0.009625
2916,-0.008979,-0.021098,-0.028322
2917,0.008122,0.017434,0.046465
2918,0.008122,0.0367,0.027769
2919,0.008122,0.017434,-0.028322
2920,-0.008979,-0.021098,0.009072
2921,0.008122,-0.040364,0.027769
2922,0.008122,-0.098162,-0.028322
2923,-0.008979,-0.040364,0.009072
2924,-0.008979,-0.040364,-0.028322
2925,-0.008979,-0.001832,-0.047018
2926,0.025223,0.0367,-0.009625
2927,0.008122,0.075232,0.009072
2928,0.025223,0.094498,-0.009625
2929,0.025223,0.055966,0.009072
2930,0.008122,0.0367,0.046465
2931,-0.008979,-0.001832,0.027769
2932,0.008122,-0.001832,0.046465
2933,0.025223,0.017434,0.027769
2934,-0.008979,0.017434,0.009072
2935,0.008122,0.0367,-0.028322
2936,0.008122,-0.001832,-0.009625
2937,0.008122,-0.001832,-0.028322
2938,-0.008979,-0.001832,-0.065715
2939,-0.008979,-0.001832,-0.009625
2940,-0.008979,-0.05963,-0.009625
2941,0.008122,-0.05963,0.009072
2942,0.025223,-0.05963,0.065162
2943,-0.008979,-0.040364,-0.009625
2944,-0.008979,-0.040364,-0.047018
2945,-0.008979,0.017434,-0.028322
2946,0.008122,0.055966,-0.009625
2947,-0.008979,0.017434,-0.028322
2948,0.008122,0.017434,0.027769
2949,0.008122,-0.001832,0.009072
2950,0.008122,0.017434,0.065162
2951,0.008122,0.0367,0.065162
2952,0.008122,0.055966,0.065162
2953,0.008122,0.075232,0.009072
2954,0.025223,0.055966,0.009072
2955,-0.026081,0.055966,-0.028322
2956,-0.008979,-0.001832,-0.065715
2957,-0.008979,0.0367,-0.047018
2958,0.008122,0.017434,-0.047018
2959,-0.008979,-0.001832,-0.047018
2960,0.008122,-0.001832,-0.028322
2961,0.008122,-0.001832,0.027769
2962,0.008122,-0.040364,-0.009625
2963,-0.008979,-0.021098,0.027769
2964,-0.008979,-0.001832,0.027769
2965,-0.008979,0.017434,-0.009625
2966,0.008122,-0.001832,-0.047018
2967,-0.008979,-0.001832,-0.009625
2968,-0.008979,-0.001832,-0.009625
2969,-0.008979,-0.021098,0.009072
2970,-0.026081,-0.001832,0.027769
2971,-0.008979,-0.021098,-0.028322
2972,-0.008979,-0.001832,-0.009625
2973,-0.008979,-0.021098,0.027769
2974,-0.008979,-0.001832,-0.009625
2975,0.008122,-0.021098,0.009072
2976,0.025223,0.0367,0.009072
2977,0.008122,0.075232,0.009072
2978,0.008122,0.017434,-0.028322
2979,0.008122,-0.001832,0.009072
2980,0.008122,-0.021098,-0.028322
2981,0.008122,0.017434,0.027769
2982,-0.008979,0.017434,0.065162
2983,0.008122,0.017434,0.065162
2984,-0.008979,0.0367,0.102556
2985,-0.008979,-0.021098,0.046465
2986,-0.008979,-0.001832,0.027769
2987,-0.008979,-0.001832,-0.084412
2988,-0.008979,-0.001832,-0.084412
2989,0.008122,-0.001832,-0.084412
2990,0.008122,0.017434,-0.028322
2991,-0.008979,-0.021098,-0.047018
2992,0.008122,-0.001832,-0.065715
2993,0.008122,-0.001832,-0.028322
2994,0.008122,0.017434,-0.009625
2995,0.008122,0.017434,-0.028322
2996,0.008122,-0.001832,-0.047018
2997,-0.008979,-0.001832,-0.009625
2998,-0.008979,-0.001832,0.009072
2999,-0.008979,0.017434,-0.009625
3000,0.008122,-0.021098,0.027769
3001,-0.008979,0.017434,-0.009625
3002,0.008122,0.017434,0.009072
3003,0.008122,-0.001832,0.046465
3004,0.008122,0.017434,0.046465
3005,0.008122,-0.021098,0.027769
3006,0.025223,0.0367,0.065162
3007,0.008122,-0.001832,0.027769
3008,0.025223,0.017434,0.027769
3009,-0.008979,-0.040364,0.009072
3010,-0.008979,-0.001832,-0.009625
3011,0.008122,-0.001832,-0.009625
3012,0.008122,-0.05963,-0.028322
3013,-0.008979,-0.117428,0.009072
3014,-0.026081,-0.136694,-0.047018
3015,-0.026081,-0.175226,-0.009625
3016,-0.026081,-0.117428,-0.009625
3017,-0.026081,-0.040364,-0.028322
3018,0.008122,0.0367,-0.047018
3019,0.025223,0.13303,-0.009625
3020,0.042325,0.171562,-0.009625
3021,0.042325,0.152296,-0.009625
3022,0.025223,0.113764,0.009072
3023,-0.008979,0.055966,-0.009625
3024,0.008122,0.017434,0.027769
3025,0.008122,-0.040364,0.027769
3026,-0.008979,-0.040364,0.009072
3027,-0.008979,-0.021098,0.046465
3028,-0.008979,0.017434,0.009072
3029,0.008122,0.0367,-0.009625
3030,0.008122,0.0367,-0.009625
3031,0.008122,0.0367,0.009072
3032,0.008122,0.094498,-0.009625
3033,0.008122,0.055966,0.027769
3034,-0.008979,-0.001832,0.027769
3035,-0.008979,-0.05963,0.009072
3036,-0.008979,-0.021098,0.009072
3037,0.008122,-0.021098,-0.009625
3038,0.008122,-0.040364,-0.028322
3039,0.008122,-0.040364,-0.028322
3040,0.008122,-0.05963,-0.009625
3041,0.008122,-0.021098,0.009072
3042,-0.008979,0.017434,-0.009625
3043,-0.008979,-0.021098,0.009072
3044,-0.008979,-0.001832,0.027769
3045,-0.008979,0.017434,0.009072
3046,0.008122,0.055966,0.046465
3047,0.008122,0.0367,0.027769
3048,0.008122,0.0367,-0.009625
3049,0.008122,0.0367,0.027769
3050,0.008122,0.055966,0.009072
3051,-0.008979,0.017434,-0.009625
3052,0.008122,-0.001832,0.027769
3053,-0.008979,-0.021098,-0.009625
3054,-0.008979,-0.001832,0.009072
3055,-0.008979,0.017434,0.027769
3056,0.008122,-0.001832,0.027769
3057,0.025223,0.017434,-0.028322
3058,0.008122,-0.001832,-0.028322
3059,0.008122,-0.001832,-0.009625
3060,0.008122,-0.040364,-0.028322
3061,0.008122,-0.001832,-0.028322
3062,-0.008979,-0.001832,0.009072
3063,0.008122,-0.001832,0.009072
3064,0.008122,-0.001832,0.027769
3065,-0.008979,-0.001832,-0.009625
3066,0.008122,-0.001832,-0.047018
3067,-0.008979,-0.001832,-0.009625
3068,0.008122,-0.021098,-0.028322
3069,-0.008979,-0.021098,-0.009625
3070,-0.008979,-0.021098,-0.028322
3071,0.008122,-0.001832,0.009072
3072,-0.008979,0.017434,-0.009625
3073,0.008122,0.0367,0.027769
3074,0.008122,0.017434,0.046465
3075,0.008122,0.017434,0.009072
3076,0.008122,0.017434,-0.009625
3077,-0.026081,-0.021098,-0.009625
3078,-0.026081,0.017434,-0.009625
3079,-0.008979,-0.021098,0.027769
3080,0.008122,-0.001832,0.027769
3081,0.008122,-0.001832,0.009072
3082,-0.008979,-0.001832,-0.028322
3083,0.025223,0.017434,-0.028322
3084,-0.008979,-0.001832,-0.028322
3085,-0.008979,-0.001832,-0.009625
3086,0.008122,-0.001832,-0.009625
3087,-0.008979,-0.021098,0.027769
3088,-0.008979,-0.021098,0.009072
3089,0.008122,0.017434,0.046465
3090,-0.008979,-0.001832,0.027769
3091,-0.008979,-0.001832,0.046465
3092,0.008122,0.017434,0.046465
3093,0.008122,-0.001832,-0.009625
3094,0.008122,-0.001832,-0.065715
3095,0.025223,-0.001832,-0.047018
3096,0.025223,-0.001832,-0.047018
3097,0.008122,-0.021098,-0.028322
3098,-0.043182,0.017434,-0.028322
3099,-0.008979,0.017434,-0.009625
3100,-0.008979,-0.021098,-0.009625
3101,-0.008979,-0.021098,0.046465
3102,-0.026081,-0.021098,0.009072
3103,-0.008979,-0.001832,-0.009625
3104,-0.008979,-0.021098,0.009072
3105,-0.008979,-0.001832,-0.009625
3106,0.008122,0.017434,-0.028322
3107,0.008122,-0.001832,0.009072
3108,0.008122,-0.001832,0.009072
3109,0.008122,-0.021098,-0.009625
3110,-0.008979,-0.05963,0.009072
3111,0.008122,-0.001832,-0.009625
3112,0.008122,0.017434,0.009072
3113,0.008122,0.017434,-0.028322
3114,-0.008979,0.017434,-0.009625
3115,0.008122,0.055966,-0.028322
3116,0.008122,0.055966,-0.009625
3117,0.008122,0.055966,0.009072
3118,0.008122,-0.021098,0.009072
3119,-0.008979,-0.040364,0.009072
3120,-0.008979,-0.05963,0.027769
3121,0.008122,-0.05963,0.009072
3122,0.008122,-0.040364,-0.028322
3123,-0.008979,-0.021098,0.009072
3124,-0.008979,-0.021098,-0.009625
3125,-0.026081,-0.001832,-0.009625
3126,-0.008979,-0.001832,0.027769
3127,0.008122,0.017434,-0.028322
3128,0.008122,-0.021098,0.009072
3129,0.008122,-0.001832,0.046465
3130,0.025223,0.055966,0.009072
3131,0.008122,0.075232,0.027769
3132,0.008122,0.017434,-0.009625
3133,-0.008979,0.0367,-0.028322
3134,-0.008979,0.055966,-0.028322
3135,-0.008979,0.075232,0.009072
3136,-0.008979,0.0367,0.009072
3137,-0.008979,0.055966,0.027769
3138,0.025223,0.017434,0.027769
3139,-0.008979,0.017434,0.027769
3140,-0.008979,0.017434,0.027769
3141,-0.008979,-0.001832,0.046465
3142,0.008122,-0.021098,-0.028322
3143,0.008122,-0.021098,-0.028322
3144,-0.008979,-0.040364,-0.009625
3145,0.008122,-0.040364,-0.009625
3146,0.008122,-0.05963,-0.028322
3147,-0.008979,-0.040364,0.027769
3148,-0.008979,0.017434,0.027769
3149,0.025223,0.0367,0.027769
3150,0.025223,0.0367,0.046465
3151,0.008122,0.0367,0.046465
3152,0.008122,0.055966,0.027769
3153,0.008122,0.017434,0.065162
3154,0.008122,0.017434,0.009072
3155,-0.008979,0.017434,-0.028322
3156,0.025223,0.0367,-0.084412
3157,0.025223,0.017434,-0.065715
3158,0.008122,-0.021098,-0.047018
3159,-0.008979,-0.001832,-0.028322
3160,-0.008979,-0.001832,0.027769
3161,0.008122,-0.021098,0.027769
3162,0.008122,0.017434,0.027769
3163,-0.026081,-0.001832,-0.009625
3164,-0.008979,0.0367,-0.009625
3165,0.008122,0.017434,-0.047018
3166,0.008122,-0.021098,-0.028322
3167,0.008122,-0.001832,0.009072
3168,-0.008979,-0.001832,0.027769
3169,-0.008979,0.017434,0.065162
3170,-0.008979,-0.001832,0.046465
3171,0.008122,-0.001832,0.065162
3172,0.008122,-0.001832,0.065162
3173,0.008122,-0.001832,0.046465
3174,-0.008979,-0.001832,-0.065715
3175,0.008122,-0.021098,-0.084412
3176,-0.008979,-0.021098,-0.047018
3177,0.008122,-0.001832,-0.065715
3178,-0.008979,-0.021098,-0.009625
3179,-0.008979,0.017434,-0.028322
3180,-0.008979,0.017434,0.009072
3181,0.008122,0.0367,0.027769
3182,0.008122,-0.001832,0.027769
3183,0.008122,0.017434,0.027769
3184,-0.008979,-0.001832,-0.009625
3185,0.008122,-0.001832,-0.028322
3186,-0.008979,-0.001832,-0.009625
3187,0.008122,-0.021098,-0.009625
3188,-0.008979,-0.001832,-0.009625
3189,0.008122,-0.001832,-0.028322
3190,-0.008979,-0.001832,-0.028322
3191,-0.008979,-0.021098,0.027769
3192,-0.008979,-0.021098,-0.009625
3193,-0.008979,0.017434,0.027769
3194,-0.008979,-0.001832,0.027769
3195,-0.008979,0.017434,-0.009625
3196,-0.008979,-0.001832,0.027769
3197,0.008122,-0.001832,-0.009625
3198,-0.008979,0.0367,-0.009625
3199,0.008122,-0.001832,-0.009625
3200,0.008122,-0.021098,0.009072
3201,-0.008979,-0.021098,-0.009625
3202,0.008122,0.017434,0.009072
3203,0.008122,0.017434,-0.009625
3204,-0.008979,-0.001832,-0.028322
3205,0.008122,-0.001832,0.009072
3206,0.008122,-0.001832,-0.028322
3207,0.008122,-0.021098,-0.009625
3208,0.025223,-0.021098,-0.028322
3209,0.008122,-0.040364,-0.009625
3210,0.008122,-0.001832,-0.028322
3211,0.008122,0.017434,0.009072
3212,-0.008979,0.017434,0.027769
3213,0.008122,0.017434,0.027769
3214,0.008122,0.0367,0.046465
3215,0.008122,0.017434,0.027769
3216,0.025223,0.017434,-0.009625
3217,0.008122,-0.001832,0.009072
3218,-0.008979,0.0367,0.027769
3219,-0.026081,0.017434,0.009072
3220,-0.008979,0.055966,0.009072
3221,-0.008979,-0.021098,0.009072
3222,-0.008979,-0.001832,-0.047018
3223,-0.008979,-0.021098,-0.065715
3224,-0.043182,-0.021098,-0.009625
3225,0.008122,-0.021098,0.009072
3226,0.008122,-0.001832,0.009072
3227,0.008122,-0.021098,0.009072
3228,-0.008979,-0.040364,-0.009625
3229,-0.008979,0.017434,-0.065715
3230,0.025223,0.094498,-0.028322
3231,0.025223,0.055966,-0.028322
3232,0.008122,-0.021098,0.009072
3233,0.025223,-0.098162,0.009072
3234,0.008122,-0.05963,0.027769
3235,0.008122,-0.040364,0.009072
3236,-0.008979,-0.021098,0.027769
3237,-0.008979,0.017434,0.009072
3238,0.008122,0.0367,-0.028322
3239,-0.008979,-0.001832,-0.009625
3240,0.008122,0.0367,-0.028322
3241,0.025223,-0.001832,-0.047018
3242,0.008122,-0.021098,-0.009625
3243,-0.008979,-0.040364,0.027769
3244,-0.008979,-0.001832,0.009072
3245,-0.008979,-0.001832,0.027769
3246,0.008122,0.017434,0.065162
3247,0.008122,0.017434,0.065162
3248,0.008122,0.0367,0.083859
3249,0.008122,0.0367,0.027769
3250,-0.008979,0.055966,0.027769
3251,0.025223,0.094498,-0.047018
3252,0.008122,0.055966,-0.009625
3253,0.008122,0.0367,-0.047018
3254,-0.026081,0.017434,-0.047018
3255,-0.008979,0.0367,-0.028322
3256,-0.008979,-0.021098,-0.028322
3257,0.008122,0.017434,-0.009625
3258,-0.008979,-0.001832,0.009072
3259,0.025223,0.017434,-0.028322
3260,0.008122,0.017434,-0.028322
3261,-0.026081,-0.021098,-0.028322
3262,0.008122,0.017434,-0.028322
3263,0.008122,-0.001832,0.009072
3264,0.008122,0.017434,0.009072
3265,-0.008979,0.017434,0.027769
3266,-0.008979,0.017434,0.009072
3267,-0.008979,0.017434,0.027769
3268,-0.008979,0.017434,0.009072
3269,-0.008979,-0.021098,-0.028322
3270,-0.026081,-0.05963,0.027769
3271,0.008122,-0.001832,0.009072
3272,-0.008979,-0.021098,-0.028322
3273,0.008122,0.017434,0.009072
3274,0.008122,-0.001832,-0.009625
3275,0.008122,-0.001832,0.009072
3276,0.008122,-0.001832,0.009072
3277,-0.008979,-0.001832,0.027769
3278,-0.008979,-0.001832,-0.009625
3279,0.008122,-0.021098,0.027769
3280,-0.008979,0.017434,0.009072
3281,-0.008979,-0.021098,-0.009625
3282,0.008122,-0.001832,-0.009625
3283,0.008122,-0.001832,0.009072
3284,-0.008979,-0.001832,-0.009625
3285,-0.008979,-0.001832,-0.009625
3286,-0.008979,0.017434,0.009072
3287,-0.008979,-0.021098,0.009072
3288,-0.008979,-0.001832,0.027769
3289,0.008122,-0.001832,0.009072
3290,0.008122,-0.021098,-0.009625
3291,0.008122,-0.040364,0.009072
3292,-0.008979,-0.05963,0.027769
3293,-0.008979,-0.05963,-0.028322
3294,0.008122,-0.040364,-0.084412
3295,0.008122,-0.001832,-0.028322
3296,0.008122,0.0367,-0.047018
3297,-0.008979,0.0367,0.009072
3298,0.008122,0.055966,0.027769
3299,0.008122,0.055966,0.009072
3300,0.008122,0.055966,0.046465
3301,0.008122,0.055966,0.046465
3302,-0.008979,0.0367,0.009072
3303,0.008122,0.017434,0.009072
3304,-0.008979,0.055966,0.027769
3305,-0.008979,0.017434,0.009072
3306,0.025223,0.017434,0.009072
3307,0.008122,0.017434,0.027769
3308,0.025223,-0.001832,-0.028322
3309,-0.008979,-0.021098,-0.009625
3310,0.008122,0.017434,0.009072
3311,-0.008979,-0.001832,-0.009625
3312,0.008122,-0.021098,-0.028322
3313,-0.008979,0.0367,-0.009625
3314,-0.008979,-0.001832,-0.028322
3315,0.008122,-0.021098,-0.009625
3316,0.008122,-0.001832,0.009072
3317,0.008122,-0.001832,0.046465
3318,0.008122,0.017434,-0.009625
3319,-0.008979,-0.001832,0.009072
3320,-0.008979,-0.001832,-0.028322
3321,-0.008979,-0.05963,-0.009625
3322,0.008122,-0.05963,0.009072
3323,-0.008979,-0.098162,0.009072
3324,0.008122,-0.040364,-0.009625
3325,-0.008979,-0.001832,0.027769
3326,-0.026081,0.0367,0.027769
3327,0.008122,0.055966,0.027769
3328,0.008122,0.055966,0.046465
3329,0.025223,0.113764,0.009072
3330,0.008122,0.0367,-0.047018
3331,0.008122,-0.001832,-0.009625
3332,0.008122,-0.05963,-0.009625
3333,-0.008979,-0.078896,-0.009625
3334,-0.008979,-0.021098,0.027769
3335,-0.008979,-0.021098,-0.009625
3336,-0.008979,0.0367,-0.028322
3337,-0.008979,0.0367,-0.047018
3338,-0.008979,0.0367,-0.009625
3339,0.025223,0.0367,-0.028322
3340,0.008122,0.017434,-0.009625
3341,0.008122,0.017434,-0.028322
3342,0.008122,-0.001832,-0.009625
3343,0.008122,-0.021098,-0.028322
3344,0.008122,-0.021098,-0.009625
3345,0.008122,-0.001832,-0.028322
3346,0.008122,-0.001832,-0.028322
3347,0.008122,0.0367,0.009072
3348,-0.026081,-0.001832,-0.028322
3349,-0.008979,-0.001832,0.009072
3350,0.008122,-0.040364,0.027769
3351,0.008122,-0.001832,-0.028322
3352,0.008122,0.017434,0.027769
3353,-0.008979,-0.001832,0.009072
3354,-0.008979,-0.001832,-0.028322
3355,0.008122,0.017434,-0.047018
3356,-0.008979,0.055966,0.027769
3357,-0.008979,0.0367,-0.009625
3358,0.008122,0.017434,0.009072
3359,0.008122,-0.021098,0.027769
3360,0.008122,-0.001832,0.065162
3361,0.008122,-0.001832,0.046465
3362,0.008122,-0.021098,0.027769
3363,0.008122,0.0367,0.027769
3364,0.008122,-0.001832,0.027769
3365,0.008122,-0.001832,0.046465
3366,-0.008979,-0.021098,0.009072
3367,0.008122,0.017434,0.009072
3368,-0.008979,-0.001832,-0.028322
3369,0.008122,-0.021098,-0.009625
3370,-0.008979,-0.021098,-0.084412
3371,-0.008979,-0.040364,-0.047018
3372,-0.008979,-0.001832,0.009072
3373,0.008122,0.0367,-0.009625
3374,0.008122,-0.001832,0.046465
3375,-0.008979,0.0367,0.009072
3376,-0.008979,0.017434,-0.028322
3377,0.025223,-0.001832,-0.047018
3378,0.008122,0.017434,-0.028322
3379,0.008122,-0.001832,-0.028322
3380,-0.008979,-0.001832,0.009072
3381,-0.008979,0.017434,0.046465
3382,-0.008979,-0.001832,0.027769
3383,0.025223,-0.001832,0.027769
3384,-0.008979,-0.001832,0.027769
3385,0.008122,-0.001832,0.046465
3386,0.008122,-0.001832,0.009072
3387,0.008122,-0.021098,0.027769
3388,0.008122,0.0367,-0.009625
3389,0.008122,-0.001832,-0.009625
3390,0.008122,-0.001832,-0.009625
3391,-0.008979,0.017434,-0.065715
3392,0.008122,-0.001832,-0.028322
3393,0.008122,-0.001832,0.009072
3394,0.008122,-0.021098,-0.009625
3395,-0.008979,-0.021098,-0.028322
3396,0.008122,-0.001832,-0.009625
3397,-0.026081,-0.001832,-0.028322
3398,0.008122,-0.001832,-0.065715
3399,0.008122,-0.001832,-0.009625
3400,0.008122,0.017434,-0.028322
3401,0.008122,0.0367,-0.009625
3402,0.008122,-0.001832,0.046465
3403,0.025223,-0.001832,0.102556
3404,0.008122,0.017434,0.065162
3405,0.008122,-0.001832,0.065162
3406,0.008122,-0.001832,0.046465
3407,-0.008979,-0.001832,-0.009625
3408,0.008122,-0.001832,-0.065715
3409,-0.008979,0.017434,-0.009625
3410,0.008122,-0.021098,0.009072
3411,0.008122,-0.001832,0.009072
3412,-0.008979,-0.021098,0.009072
3413,-0.008979,-0.021098,0.009072
3414,0.008122,-0.040364,0.009072
3415,0.025223,-0.001832,-0.028322
3416,-0.008979,-0.001832,-0.065715
3417,-0.026081,0.017434,0.009072
3418,0.008122,0.017434,-0.009625
3419,0.008122,-0.001832,-0.028322
3420,0.008122,0.094498,-0.028322
3421,0.008122,0.0367,-0.028322
3422,0.008122,0.0367,-0.028322
3423,0.008122,-0.001832,-0.009625
3424,-0.008979,-0.040364,0.009072
3425,0.025223,-0.05963,0.009072
3426,0.008122,-0.001832,-0.009625
3427,0.025223,-0.001832,0.009072
3428,0.008122,0.017434,0.009072
3429,-0.008979,0.0367,-0.028322
3430,-0.008979,0.0367,0.009072
3431,0.008122,0.017434,-0.009625
3432,-0.008979,-0.040364,-0.009625
3433,-0.008979,-0.078896,0.027769
3434,-0.008979,-0.05963,0.027769
3435,-0.008979,-0.05963,-0.009625
3436,-0.008979,-0.078896,0.027769
3437,-0.008979,0.017434,0.027769
3438,0.025223,0.094498,-0.009625
3439,0.042325,0.152296,0.027769
3440,0.025223,0.094498,-0.028322
3441,0.008122,0.075232,-0.028322
3442,-0.008979,0.055966,-0.009625
3443,0.008122,0.075232,-0.009625
3444,0.025223,0.055966,-0.009625
3445,0.008122,0.055966,0.027769
3446,0.008122,0.0367,0.046465
3447,-0.008979,0.017434,0.027769
3448,-0.026081,-0.001832,0.046465
3449,-0.008979,-0.001832,0.009072
3450,0.008122,-0.001832,-0.028322
3451,0.008122,-0.001832,-0.047018
3452,-0.026081,-0.001832,-0.009625
3453,-0.008979,-0.021098,-0.028322
3454,0.008122,-0.001832,0.009072
3455,0.025223,-0.001832,0.009072
3456,0.008122,-0.021098,-0.009625
3457,0.008122,-0.001832,-0.009625
3458,-0.008979,-0.021098,0.046465
3459,0.008122,-0.001832,0.009072
3460,0.008122,-0.001832,-0.028322
3461,0.008122,0.055966,-0.009625
3462,-0.008979,0.017434,-0.028322
3463,-0.008979,0.017434,-0.028322
3464,-0.008979,0.017434,0.027769
3465,-0.008979,-0.001832,-0.009625
3466,-0.008979,-0.021098,-0.009625
3467,0.008122,-0.001832,0.046465
3468,0.008122,-0.040364,0.027769
3469,0.008122,-0.001832,0.046465
3470,0.008122,0.017434,0.046465
3471,-0.008979,0.017434,0.009072
3472,0.008122,-0.001832,-0.009625
3473,0.008122,-0.001832,0.009072
3474,-0.026081,-0.021098,0.027769
3475,0.008122,-0.021098,0.046465
3476,0.008122,-0.021098,0.046465
3477,0.008122,-0.021098,0.046465
3478,0.008122,0.017434,-0.028322
3479,0.008122,-0.021098,-0.047018
3480,-0.026081,-0.001832,-0.103109
3481,0.008122,0.094498,-0.065715
3482,0.008122,-0.021098,-0.047018
3483,0.008122,-0.001832,-0.028322
3484,-0.008979,-0.001832,-0.028322
3485,-0.008979,-0.021098,-0.009625
3486,-0.026081,-0.001832,0.009072
3487,0.008122,-0.001832,-0.028322
3488,0.008122,-0.001832,0.009072
3489,-0.008979,-0.001832,0.009072
3490,-0.026081,-0.001832,0.009072
3491,0.008122,-0.001832,0.009072
3492,0.008122,-0.021098,-0.009625
3493,-0.008979,-0.001832,-0.028322
3494,0.008122,0.017434,0.009072
3495,0.008122,-0.001832,0.065162
3496,0.008122,0.017434,0.027769
3497,0.008122,-0.001832,0.046465
3498,0.008122,0.017434,0.046465
3499,0.008122,0.0367,0.027769
3500,-0.008979,-0.001832,-0.028322
3501,0.008122,-0.021098,-0.047018
3502,0.008122,-0.001832,-0.047018
3503,-0.008979,-0.001832,-0.047018
3504,-0.008979,-0.05963,-0.028322
3505,-0.008979,-0.05963,-0.009625
3506,-0.008979,-0.021098,-0.028322
3507,-0.043182,-0.021098,-0.009625
3508,-0.008979,0.017434,0.027769
3509,0.025223,0.0367,0.009072
3510,0.008122,0.0367,0.027769
3511,0.008122,0.055966,-0.009625
3512,0.042325,0.0367,-0.028322
3513,0.042325,0.017434,0.009072
3514,0.008122,0.017434,0.009072
3515,0.008122,-0.001832,0.009072
3516,0.008122,-0.001832,0.046465
3517,0.008122,-0.001832,0.009072
3518,0.008122,-0.001832,-0.009625
3519,-0.008979,-0.021098,0.009072
3520,-0.008979,-0.021098,0.027769
3521,-0.026081,-0.021098,-0.009625
3522,-0.026081,-0.117428,-0.009625
3523,-0.026081,-0.098162,-0.009625
3524,-0.026081,-0.078896,-0.028322
3525,0.025223,-0.040364,-0.028322
3526,0.008122,-0.001832,0.009072
3527,0.008122,0.0367,-0.047018
3528,0.008122,0.113764,-0.028322
3529,0.008122,0.113764,-0.009625
3530,0.025223,0.13303,0.009072
3531,0.008122,0.075232,0.009072
3532,0.008122,-0.001832,0.009072
3533,0.025223,-0.040364,-0.009625
3534,0.008122,-0.021098,-0.009625
3535,0.008122,-0.021098,0.046465
3536,-0.008979,0.0367,0.046465
3537,0.008122,0.017434,0.027769
3538,0.008122,0.0367,0.046465
3539,-0.008979,0.0367,0.009072
3540,0.008122,0.017434,-0.009625
3541,-0.008979,-0.021098,-0.047018
3542,0.008122,-0.040364,-0.047018
3543,-0.008979,-0.021098,0.009072
3544,-0.008979,-0.001832,0.027769
3545,0.008122,0.017434,0.009072
3546,0.008122,0.017434,-0.028322
3547,0.008122,0.017434,-0.009625
3548,0.008122,0.055966,0.009072
3549,0.008122,0.055966,0.009072
3550,0.008122,-0.021098,0.027769
3551,0.008122,-0.078896,0.065162
3552,0.008122,-0.040364,0.046465
3553,0.008122,-0.040364,0.083859
3554,0.008122,-0.040364,0.046465
3555,0.008122,-0.021098,-0.009625
3556,-0.026081,-0.001832,-0.028322
3557,-0.026081,0.055966,-0.159199
3558,-0.008979,0.075232,-0.103109
3559,0.008122,-0.001832,-0.009625
3560,0.008122,-0.001832,-0.009625
3561,0.008122,0.017434,-0.009625
3562,-0.008979,-0.001832,-0.009625
3563,0.008122,0.017434,0.046465
3564,-0.008979,-0.001832,0.027769
3565,-0.008979,-0.001832,0.046465
3566,-0.008979,-0.001832,0.009072
3567,0.008122,-0.001832,-0.028322
3568,-0.008979,-0.021098,-0.028322
3569,-0.008979,-0.021098,-0.028322
3570,-0.008979,-0.001832,-0.047018
3571,0.008122,-0.021098,-0.009625
3572,0.008122,-0.001832,-0.009625
3573,0.008122,-0.001832,0.046465
3574,-0.008979,-0.001832,0.009072
3575,0.008122,0.0367,0.027769
3576,0.008122,-0.001832,0.009072
3577,0.008122,-0.021098,-0.009625
3578,0.008122,-0.001832,-0.009625
3579,0.008122,0.017434,-0.009625
3580,-0.008979,-0.001832,-0.028322
3581,-0.008979,-0.021098,-0.009625
3582,0.008122,0.017434,-0.009625
3583,0.008122,-0.021098,0.027769
3584,-0.008979,-0.001832,-0.009625
3585,0.008122,-0.021098,0.027769
3586,0.008122,-0.001832,0.009072
3587,0.008122,-0.021098,0.009072
3588,-0.008979,-0.001832,-0.028322
3589,0.008122,-0.001832,-0.028322
3590,0.008122,-0.021098,-0.009625
3591,0.008122,-0.001832,-0.047018
3592,-0.008979,-0.05963,-0.028322
3593,0.008122,-0.021098,-0.028322
3594,-0.008979,-0.001832,0.009072
3595,-0.008979,0.017434,0.009072
3596,0.008122,0.0367,0.027769
3597,0.008122,-0.001832,0.009072
3598,0.008122,0.0367,-0.009625
3599,0.008122,-0.001832,-0.028322
3600,-0.008979,-0.001832,0.009072
3601,-0.026081,0.017434,-0.009625
3602,-0.008979,-0.001832,0.027769
3603,-0.008979,-0.001832,0.046465
3604,0.008122,0.017434,-0.009625
3605,0.008122,-0.001832,0.009072
3606,0.008122,0.0367,0.027769
3607,0.008122,-0.001832,0.009072
3608,0.008122,-0.021098,-0.009625
3609,-0.008979,-0.021098,-0.028322
3610,0.008122,-0.021098,-0.009625
3611,0.008122,-0.001832,-0.028322
3612,0.008122,-0.001832,-0.009625
3613,-0.043182,-0.021098,-0.047018
3614,-0.008979,0.0367,0.009072
3615,-0.008979,-0.001832,0.046465
3616,0.008122,0.017434,0.027769
3617,0.008122,-0.001832,0.046465
3618,-0.008979,-0.001832,0.065162
3619,0.008122,-0.001832,0.046465
3620,-0.008979,-0.021098,0.046465
3621,0.008122,-0.021098,0.046465
3622,0.008122,-0.021098,0.027769
3623,0.025223,-0.001832,0.046465
3624,0.008122,0.017434,0.027769
3625,0.008122,0.017434,-0.009625
3626,0.008122,0.017434,-0.159199
3627,0.008122,0.017434,-0.103109
3628,0.008122,-0.001832,-0.065715
3629,-0.008979,-0.001832,-0.047018
