# Requested Sampling Rate (Hz):,1000
# Actual Sampling Rate (Hz):,998.85
# Requested Duration (s):,5.0
# Actual Duration (s):,5.049
# REST Calibration:,831.5250689655151,832.0950689655182,831.5147931034478
# MAX Calibration:,890.0000,884.0000,885.0000
# Normalization: MVC-based  (x_norm = (x - REST) / (MAX - REST))
sample_idx,EMG1,EMG2,EMG3
0,0.025223,0.0367,0.046465
1,0.008122,0.017434,0.046465
2,0.008122,0.017434,0.027769
3,-0.008979,-0.021098,0.009072
4,-0.008979,-0.001832,0.046465
5,0.008122,-0.021098,0.009072
6,-0.008979,-0.001832,-0.009625
7,0.008122,-0.021098,-0.028322
8,0.008122,-0.001832,-0.047018
9,-0.008979,0.017434,-0.047018
10,0.008122,-0.021098,0.009072
11,0.008122,-0.001832,0.027769
12,0.008122,-0.001832,0.046465
13,0.008122,0.017434,0.027769
14,-0.008979,-0.001832,0.027769
15,0.025223,-0.021098,0.027769
16,-0.008979,0.017434,-0.009625
17,-0.008979,0.017434,0.009072
18,-0.008979,-0.001832,-0.009625
19,0.008122,-0.001832,-0.028322
20,-0.008979,0.0367,-0.028322
21,0.008122,-0.001832,0.009072
22,0.008122,0.017434,-0.028322
23,-0.008979,0.017434,0.009072
24,-0.008979,-0.001832,0.009072
25,-0.008979,-0.001832,0.009072
26,-0.008979,0.0367,0.027769
27,0.008122,-0.001832,0.009072
28,0.008122,-0.001832,-0.009625
29,0.025223,-0.001832,-0.009625
30,-0.008979,-0.040364,0.027769
31,-0.026081,-0.001832,-0.009625
32,-0.008979,-0.040364,-0.009625
33,0.008122,-0.021098,-0.028322
34,0.008122,0.017434,0.027769
35,0.008122,0.017434,-0.009625
36,-0.008979,0.017434,0.046465
37,-0.008979,0.017434,0.065162
38,-0.008979,-0.001832,0.083859
39,0.008122,0.0367,0.046465
40,0.025223,-0.001832,0.065162
41,-0.008979,-0.001832,0.027769
42,0.008122,-0.021098,-0.065715
43,-0.008979,-0.001832,-0.121806
44,0.008122,-0.001832,-0.065715
45,0.008122,-0.021098,-0.065715
46,0.008122,-0.05963,-0.047018
47,-0.008979,-0.05963,-0.009625
48,0.008122,0.017434,-0.009625
49,0.025223,0.017434,0.027769
50,0.008122,0.017434,0.046465
51,0.008122,0.0367,0.009072
52,0.008122,0.055966,-0.009625
53,-0.008979,0.055966,0.027769
54,-0.008979,0.0367,0.009072
55,0.008122,-0.001832,-0.028322
56,0.008122,-0.021098,0.009072
57,0.008122,-0.001832,-0.028322
58,0.008122,0.017434,-0.047018
59,0.008122,-0.001832,0.027769
60,-0.008979,-0.001832,-0.028322
61,0.008122,-0.021098,-0.028322
62,0.008122,-0.001832,-0.009625
63,0.008122,-0.021098,0.009072
64,-0.008979,-0.021098,-0.009625
65,0.008122,0.0367,0.027769
66,-0.008979,-0.001832,0.027769
67,0.008122,0.0367,0.027769
68,0.008122,0.017434,-0.009625
69,-0.008979,-0.021098,0.009072
70,-0.008979,-0.001832,0.009072
71,-0.026081,-0.001832,-0.047018
72,0.008122,-0.001832,-0.009625
73,0.008122,-0.021098,-0.028322
74,0.008122,0.017434,-0.028322
75,0.008122,-0.021098,-0.009625
76,0.008122,-0.021098,0.009072
77,-0.008979,0.017434,-0.009625
78,0.008122,-0.001832,0.027769
79,0.008122,0.017434,0.046465
80,-0.008979,-0.001832,0.027769
81,0.008122,-0.021098,-0.009625
82,0.008122,-0.001832,-0.009625
83,0.008122,-0.021098,0.009072
84,-0.008979,0.017434,-0.009625
85,0.008122,0.017434,0.009072
86,0.008122,-0.021098,-0.009625
87,0.008122,-0.001832,-0.028322
88,-0.008979,-0.001832,-0.009625
89,-0.008979,-0.001832,0.046465
90,-0.008979,-0.021098,0.027769
91,-0.008979,0.017434,0.009072
92,0.008122,0.017434,0.027769
93,0.025223,-0.021098,0.009072
94,0.025223,-0.001832,-0.009625
95,0.008122,-0.021098,-0.009625
96,0.008122,-0.001832,-0.028322
97,-0.008979,-0.021098,-0.009625
98,-0.008979,0.017434,0.009072
99,0.008122,0.0367,-0.009625
100,0.025223,0.017434,0.009072
101,0.008122,0.0367,0.065162
102,0.025223,0.017434,0.065162
103,0.008122,-0.001832,0.046465
104,0.008122,-0.040364,0.046465
105,-0.008979,-0.040364,0.046465
106,0.008122,-0.001832,-0.009625
107,-0.008979,-0.001832,-0.065715
108,-0.008979,-0.021098,-0.065715
109,-0.008979,-0.001832,-0.028322
110,-0.008979,-0.021098,-0.047018
111,0.008122,-0.001832,0.027769
112,0.025223,0.017434,0.027769
113,0.025223,0.055966,0.009072
114,0.008122,0.017434,0.027769
115,-0.008979,-0.021098,0.065162
116,-0.008979,-0.05963,0.027769
117,0.008122,-0.040364,0.009072
118,0.008122,-0.021098,-0.009625
119,-0.008979,-0.001832,0.009072
120,-0.026081,0.017434,0.009072
121,-0.008979,0.075232,-0.009625
122,0.008122,0.094498,0.009072
123,0.008122,0.094498,-0.009625
124,0.008122,0.0367,-0.009625
125,-0.008979,0.017434,-0.047018
126,0.008122,-0.001832,-0.047018
127,-0.008979,-0.001832,-0.047018
128,-0.008979,-0.021098,0.009072
129,-0.008979,-0.001832,0.009072
130,-0.008979,0.017434,0.009072
131,0.025223,-0.021098,0.027769
132,-0.008979,-0.001832,0.009072
133,0.008122,0.017434,0.009072
134,-0.008979,-0.001832,0.009072
135,-0.008979,-0.001832,0.009072
136,-0.008979,0.055966,0.009072
137,-0.008979,-0.001832,0.009072
138,0.008122,-0.001832,-0.009625
139,-0.008979,-0.040364,-0.084412
140,0.008122,-0.040364,-0.028322
141,-0.008979,-0.040364,0.009072
142,0.008122,-0.021098,0.027769
143,0.008122,-0.001832,0.009072
144,-0.008979,0.017434,0.046465
145,0.008122,0.055966,0.046465
146,0.008122,-0.001832,0.046465
147,0.008122,0.017434,0.027769
148,0.008122,0.017434,0.065162
149,0.008122,-0.001832,0.009072
150,-0.008979,-0.001832,-0.009625
151,0.008122,-0.001832,-0.009625
152,-0.008979,-0.021098,-0.047018
153,0.008122,-0.001832,-0.028322
154,-0.008979,-0.021098,-0.028322
155,0.008122,0.017434,0.027769
156,0.008122,-0.001832,0.027769
157,-0.008979,0.0367,0.027769
158,0.008122,-0.001832,0.009072
159,0.008122,0.017434,-0.009625
160,0.008122,-0.001832,-0.028322
161,0.008122,-0.021098,-0.065715
162,-0.008979,-0.021098,-0.084412
163,-0.008979,-0.001832,-0.009625
164,0.008122,-0.001832,0.009072
165,-0.026081,-0.040364,0.046465
166,-0.008979,-0.05963,0.027769
167,0.008122,-0.078896,0.027769
168,-0.026081,-0.136694,0.046465
169,-0.026081,-0.078896,-0.009625
170,-0.008979,-0.040364,0.009072
171,0.008122,-0.021098,-0.009625
172,0.008122,0.017434,-0.009625
173,0.008122,0.055966,-0.028322
174,0.008122,0.094498,0.009072
175,0.008122,0.13303,0.009072
176,0.008122,0.13303,0.009072
177,0.025223,0.094498,0.046465
178,0.008122,0.055966,0.027769
179,-0.008979,0.075232,-0.009625
180,-0.008979,0.0367,-0.009625
181,0.008122,-0.001832,0.009072
182,0.008122,-0.021098,0.027769
183,0.008122,-0.021098,0.027769
184,-0.008979,-0.021098,0.009072
185,-0.026081,-0.021098,-0.009625
186,-0.008979,-0.021098,-0.028322
187,-0.026081,-0.021098,-0.009625
188,0.008122,-0.021098,-0.047018
189,-0.008979,-0.078896,-0.009625
190,-0.026081,-0.464215,0.102556
191,-0.043182,-0.541279,0.009072
192,-0.060283,-0.502747,0.009072
193,-0.060283,-0.464215,0.046465
194,-0.077385,-0.483481,0.009072
195,-0.094486,-0.483481,-0.047018
196,-0.043182,-0.310087,-0.009625
197,0.11073,0.210094,0.027769
198,0.144933,0.51835,0.009072
199,0.025223,0.402754,-0.047018
200,-0.14579,0.364222,-0.009625
201,-0.008979,0.633946,-0.009625
202,0.076527,0.80734,0.027769
203,0.093629,0.71101,0.027769
204,0.127831,0.460552,0.027769
205,0.093629,0.287158,0.009072
206,0.093629,0.152296,0.009072
207,0.042325,0.094498,-0.009625
208,0.042325,0.055966,-0.009625
209,0.025223,0.0367,-0.047018
210,0.025223,0.0367,0.009072
211,0.025223,-0.021098,-0.009625
212,0.025223,-0.001832,-0.009625
213,0.008122,-0.001832,0.009072
214,-0.008979,-0.040364,0.009072
215,-0.026081,-0.117428,0.027769
216,-0.026081,-0.425683,0.046465
217,-0.077385,-0.753205,0.065162
218,-0.111587,-1.119259,0.027769
219,-0.128689,-1.196323,0.027769
220,-0.162891,-1.119259,0.009072
221,-0.179993,-1.080727,0.009072
222,-0.179993,-0.695407,-0.047018
223,-0.162891,-0.05963,-0.028322
224,-0.077385,0.556882,-0.103109
225,0.076527,1.077064,-0.047018
226,0.281743,1.28899,-0.009625
227,0.350149,1.211926,-0.028322
228,0.213338,1.134862,0.027769
229,0.144933,1.038532,0.083859
230,0.247541,0.749542,0.027769
231,0.127831,0.42202,0.009072
232,-0.008979,0.267892,0.046465
233,0.076527,0.113764,-0.009625
234,0.076527,0.055966,-0.028322
235,0.008122,-0.078896,-0.028322
236,0.076527,-0.175226,-0.009625
237,0.042325,-0.213758,-0.028322
238,-0.008979,-0.194492,0.009072
239,-0.026081,-0.136694,0.046465
240,-0.026081,-0.117428,0.027769
241,-0.026081,-0.05963,0.046465
242,-0.026081,-0.021098,0.009072
243,-0.077385,0.0367,0.027769
244,-0.14579,-0.05963,0.046465
245,-0.128689,-0.367885,0.065162
246,-0.214196,-0.714673,-0.009625
247,-0.077385,-0.830269,-0.065715
248,0.042325,-0.945865,-0.028322
249,0.025223,-0.965131,-0.009625
250,0.059426,-0.907333,-0.047018
251,-0.077385,-0.541279,-0.028322
252,-0.043182,0.248626,0.027769
253,0.144933,0.90367,0.027769
254,0.127831,0.884404,-0.028322
255,-0.060283,0.691744,0.009072
256,-0.248398,0.499084,0.009072
257,0.042325,0.383488,0.027769
258,0.333048,0.32569,0.027769
259,0.144933,0.055966,0.009072
260,0.076527,0.113764,0.046465
261,-0.008979,0.017434,0.009072
262,-0.231297,-0.15596,-0.065715
263,-0.179993,-0.406417,-0.140502
264,-0.282601,-0.444949,-0.009625
265,-0.2655,-0.425683,0.065162
266,-0.14579,-0.464215,0.065162
267,0.162034,-0.252289,-0.028322
268,0.333048,-0.001832,0.046465
269,0.196237,0.13303,0.009072
270,0.333048,0.306424,-0.047018
271,0.350149,0.633946,-0.009625
272,0.230439,0.788074,0.009072
273,0.196237,0.749542,0.009072
274,-0.077385,0.344956,-0.028322
275,0.008122,0.210094,0.009072
276,-0.026081,0.190828,-0.084412
277,0.008122,0.210094,-0.009625
278,-0.111587,0.190828,0.027769
279,-0.162891,0.171562,0.046465
280,-0.077385,0.267892,0.027769
281,0.11073,0.13303,0.009072
282,0.196237,-0.040364,-0.009625
283,0.196237,-0.021098,-0.009625
284,0.059426,-0.078896,0.027769
285,-0.077385,-0.194492,0.046465
286,-0.128689,-0.175226,0.027769
287,-0.299702,-0.15596,0.027769
288,-0.197094,-0.213758,-0.009625
289,-0.043182,-0.194492,-0.065715
290,0.059426,-0.175226,0.027769
291,-0.008979,-0.194492,0.027769
292,0.042325,-0.117428,0.027769
293,-0.026081,-0.252289,-0.009625
294,0.025223,-0.329353,0.009072
295,-0.111587,-0.194492,-0.009625
296,0.025223,-0.252289,-0.009625
297,0.281743,-0.001832,-0.009625
298,0.247541,0.055966,0.009072
299,0.008122,-0.05963,-0.028322
300,-0.214196,-0.175226,-0.009625
301,0.042325,-0.098162,0.083859
302,-0.094486,-0.021098,0.083859
303,0.008122,-0.05963,0.065162
304,0.076527,-0.290821,-0.009625
305,0.059426,-0.483481,-0.065715
306,-0.111587,-0.522013,-0.009625
307,-0.248398,-0.348619,0.046465
308,-0.231297,-0.444949,0.009072
309,-0.14579,-0.387151,-0.047018
310,0.042325,0.017434,-0.084412
311,0.435656,0.90367,-0.047018
312,0.555365,1.09633,-0.009625
313,0.435656,0.922936,0.046465
314,0.179135,0.460552,0.027769
315,0.093629,0.210094,-0.009625
316,-0.333905,0.113764,0.009072
317,-0.487817,0.152296,0.046465
318,-0.128689,0.0367,0.065162
319,-0.14579,-0.271555,0.009072
320,-0.282601,-0.618343,0.083859
321,-0.333905,-1.138525,0.046465
322,-0.026081,-0.945865,-0.028322
323,0.401453,-0.811003,-0.065715
324,0.333048,-0.579811,-0.140502
325,0.179135,-0.098162,-0.121806
326,0.144933,0.691744,-0.065715
327,0.076527,1.366054,0.083859
328,0.025223,1.28899,0.083859
329,-0.197094,0.768808,0.046465
330,-0.231297,0.653212,0.065162
331,-0.162891,0.653212,0.046465
332,0.042325,0.383488,0.065162
333,-0.060283,-0.001832,0.046465
334,-0.008979,-0.05963,0.027769
335,0.093629,-0.021098,0.027769
336,-0.026081,-0.05963,-0.028322
337,-0.111587,-0.098162,-0.028322
338,-0.128689,-0.001832,-0.084412
339,-0.179993,-0.021098,-0.009625
340,-0.214196,-0.464215,0.027769
341,-0.111587,-0.599077,0.065162
342,0.008122,-0.541279,0.009072
343,0.162034,-0.406417,-0.084412
344,0.264642,-0.175226,-0.103109
345,0.162034,0.113764,0.009072
346,-0.060283,0.499084,0.121252
347,-0.214196,0.287158,0.083859
348,-0.419412,-0.040364,-0.009625
349,-0.2655,-0.15596,-0.159199
350,0.11073,-0.290821,-0.065715
351,0.281743,-0.271555,0.027769
352,0.333048,-0.271555,-0.009625
353,0.247541,-0.348619,-0.047018
354,0.230439,-0.136694,-0.028322
355,0.350149,0.13303,0.046465
356,0.179135,-0.021098,0.065162
357,0.025223,-0.078896,-0.028322
358,-0.060283,-0.271555,-0.103109
359,-0.043182,-0.213758,-0.103109
360,0.059426,0.152296,-0.084412
361,0.093629,0.344956,-0.028322
362,-0.008979,0.22936,0.027769
363,-0.060283,0.113764,0.027769
364,-0.060283,0.306424,0.009072
365,-0.077385,0.499084,0.009072
366,-0.008979,0.402754,0.009072
367,0.025223,0.13303,0.009072
368,0.008122,0.055966,0.046465
369,0.076527,-0.117428,0.046465
370,0.162034,-0.213758,-0.028322
371,0.093629,-0.021098,-0.047018
372,0.059426,0.190828,-0.028322
373,-0.351006,0.22936,-0.028322
374,-0.231297,0.094498,-0.028322
375,-0.128689,0.017434,0.009072
376,-0.026081,-0.040364,-0.009625
377,-0.060283,-0.310087,-0.047018
378,-0.111587,-0.522013,-0.028322
379,-0.162891,-0.367885,0.046465
380,-0.162891,-0.290821,0.027769
381,-0.128689,-0.310087,-0.009625
382,-0.008979,-0.213758,-0.009625
383,0.179135,-0.078896,-0.047018
384,0.247541,-0.348619,-0.084412
385,0.36725,-0.406417,-0.047018
386,0.384352,-0.117428,-0.009625
387,0.213338,-0.040364,-0.009625
388,-0.214196,0.055966,0.009072
389,-0.179993,0.306424,0.065162
390,-0.128689,0.017434,0.009072
391,0.076527,-0.021098,0.009072
392,0.196237,0.210094,0.009072
393,-0.094486,-0.213758,-0.047018
394,0.076527,-0.310087,-0.009625
395,0.281743,0.0367,-0.009625
396,-0.026081,0.32569,-0.047018
397,-0.40231,0.13303,-0.047018
398,-0.008979,0.383488,0.009072
399,-0.094486,0.51835,0.027769
400,-0.316804,0.094498,0.009072
401,-0.111587,-0.252289,-0.009625
402,0.11073,-0.367885,0.009072
403,0.162034,-0.464215,-0.028322
404,0.452757,-0.098162,0.046465
405,0.247541,0.113764,0.027769
406,0.025223,-0.213758,-0.028322
407,-0.162891,-0.098162,-0.047018
408,-0.111587,0.13303,-0.065715
409,-0.026081,0.672478,-0.009625
410,-0.128689,0.788074,-0.009625
411,-0.231297,0.576148,0.027769
412,-0.282601,0.364222,0.027769
413,-0.214196,-0.078896,0.009072
414,-0.128689,-0.252289,0.009072
415,-0.197094,-0.194492,0.065162
416,-0.060283,-0.040364,0.027769
417,0.127831,0.075232,0.009072
418,0.281743,0.22936,-0.028322
419,0.076527,0.0367,-0.028322
420,0.008122,-0.213758,0.027769
421,0.042325,-0.040364,0.009072
422,-0.008979,0.094498,-0.028322
423,-0.043182,-0.001832,-0.028322
424,-0.094486,-0.040364,-0.065715
425,-0.128689,0.075232,-0.084412
426,-0.14579,0.113764,-0.028322
427,0.076527,0.171562,0.027769
428,0.179135,0.460552,0.065162
429,0.093629,0.210094,-0.009625
430,0.059426,0.055966,0.027769
431,0.11073,-0.175226,-0.009625
432,0.11073,-0.233024,-0.047018
433,0.11073,-0.040364,0.046465
434,-0.111587,0.0367,0.027769
435,-0.231297,0.055966,-0.047018
436,-0.094486,-0.05963,-0.028322
437,0.008122,-0.194492,0.009072
438,-0.043182,-0.15596,0.027769
439,-0.043182,-0.175226,-0.009625
440,-0.094486,-0.387151,0.009072
441,0.008122,-0.136694,0.027769
442,0.042325,-0.098162,0.027769
443,-0.008979,-0.040364,0.009072
444,-0.043182,-0.021098,0.009072
445,0.076527,-0.001832,-0.028322
446,0.11073,-0.194492,-0.047018
447,0.230439,-0.001832,-0.047018
448,0.042325,0.364222,-0.009625
449,-0.043182,0.402754,0.027769
450,0.11073,0.287158,0.027769
451,0.059426,0.190828,-0.009625
452,0.162034,-0.098162,-0.009625
453,0.162034,-0.310087,0.065162
454,-0.231297,-0.406417,0.065162
455,0.059426,-0.329353,0.065162
456,0.281743,-0.15596,0.046465
457,0.076527,0.094498,-0.047018
458,-0.470716,0.13303,-0.121806
459,-0.299702,0.210094,-0.047018
460,-0.043182,0.171562,0.009072
461,-0.077385,0.055966,0.027769
462,-0.162891,-0.175226,0.009072
463,-0.026081,-0.233024,-0.009625
464,0.264642,-0.021098,0.027769
465,0.196237,0.32569,0.065162
466,0.042325,0.460552,0.027769
467,-0.14579,0.287158,-0.028322
468,-0.008979,0.171562,-0.009625
469,0.008122,0.094498,0.027769
470,-0.179993,0.017434,0.027769
471,-0.14579,-0.021098,0.009072
472,-0.14579,-0.213758,-0.028322
473,-0.043182,-0.194492,-0.047018
474,-0.094486,-0.117428,0.009072
475,-0.026081,-0.078896,0.009072
476,0.11073,-0.117428,-0.028322
477,-0.008979,-0.367885,0.009072
478,-0.197094,-0.579811,0.009072
479,0.230439,-0.271555,0.046465
480,0.675074,0.094498,-0.047018
481,0.863189,0.210094,-0.065715
482,-0.111587,0.267892,-0.009625
483,-0.2655,0.267892,0.009072
484,-0.385209,0.13303,0.009072
485,-0.14579,0.190828,0.046465
486,-0.094486,0.210094,0.009072
487,-0.162891,0.190828,-0.009625
488,-0.094486,0.22936,0.027769
489,0.042325,0.13303,-0.009625
490,0.076527,-0.021098,-0.009625
491,0.127831,-0.098162,-0.009625
492,-0.111587,-0.078896,-0.009625
493,-0.162891,-0.078896,0.027769
494,-0.077385,0.113764,0.065162
495,0.025223,-0.001832,0.027769
496,0.127831,-0.175226,0.009072
497,0.025223,-0.194492,-0.009625
498,0.059426,-0.252289,-0.028322
499,-0.111587,0.0367,-0.047018
500,-0.094486,0.055966,-0.047018
501,-0.094486,-0.194492,-0.009625
502,0.042325,-0.040364,0.009072
503,0.144933,0.055966,0.046465
504,0.025223,0.017434,0.065162
505,-0.179993,-0.040364,0.027769
506,-0.231297,-0.194492,-0.047018
507,0.452757,-0.117428,-0.028322
508,0.606669,-0.213758,0.046465
509,0.333048,-0.367885,0.027769
510,-0.419412,-0.406417,-0.028322
511,-0.40231,-0.464215,-0.028322
512,-0.162891,0.32569,-0.028322
513,-0.14579,0.499084,-0.028322
514,-0.008979,0.364222,-0.009625
515,0.230439,0.344956,-0.047018
516,0.144933,0.441286,0.009072
517,-0.128689,0.32569,0.046465
518,-0.094486,0.171562,0.065162
519,0.076527,0.267892,0.027769
520,0.042325,0.171562,0.009072
521,-0.026081,0.094498,0.027769
522,-0.008979,0.0367,-0.028322
523,0.025223,0.055966,-0.047018
524,-0.060283,-0.040364,-0.028322
525,-0.043182,-0.021098,0.009072
526,0.008122,0.0367,-0.009625
527,0.042325,-0.001832,0.009072
528,0.025223,-0.136694,-0.009625
529,0.008122,-0.348619,-0.028322
530,-0.043182,-0.444949,0.009072
531,-0.043182,-0.367885,0.046465
532,-0.008979,-0.233024,-0.009625
533,-0.14579,0.055966,-0.028322
534,0.042325,0.479818,0.009072
535,0.093629,0.364222,-0.028322
536,-0.111587,0.075232,-0.028322
537,-0.128689,-0.001832,0.009072
538,-0.043182,-0.001832,-0.028322
539,-0.094486,-0.001832,-0.028322
540,0.025223,0.152296,0.046465
541,0.298845,0.113764,0.027769
542,0.333048,-0.078896,-0.047018
543,0.196237,-0.078896,-0.028322
544,-0.043182,-0.001832,0.009072
545,-0.179993,0.017434,0.027769
546,-0.248398,0.075232,0.083859
547,-0.111587,0.055966,0.083859
548,-0.043182,0.0367,-0.009625
549,-0.026081,-0.040364,-0.065715
550,-0.043182,-0.05963,-0.028322
551,-0.026081,-0.040364,0.009072
552,-0.026081,-0.021098,-0.009625
553,-0.026081,-0.001832,0.027769
554,-0.008979,-0.001832,0.009072
555,-0.008979,-0.001832,0.027769
556,0.008122,-0.021098,0.046465
557,0.008122,-0.021098,0.027769
558,0.008122,-0.021098,0.027769
559,-0.008979,-0.040364,0.065162
560,0.008122,-0.078896,0.027769
561,0.008122,-0.136694,-0.084412
562,-0.026081,-0.15596,-0.121806
563,-0.026081,-0.040364,-0.103109
564,-0.026081,-0.021098,-0.103109
565,-0.026081,0.0367,-0.084412
566,-0.008979,0.0367,-0.009625
567,-0.008979,0.0367,0.027769
568,-0.008979,0.017434,-0.028322
569,-0.043182,0.017434,-0.028322
570,-0.008979,0.075232,0.009072
571,-0.026081,0.0367,-0.028322
572,0.025223,0.017434,0.009072
573,0.025223,0.0367,0.009072
574,0.008122,-0.001832,-0.009625
575,-0.008979,-0.001832,-0.047018
576,-0.008979,-0.021098,0.009072
577,-0.008979,-0.001832,-0.028322
578,0.008122,-0.021098,-0.028322
579,-0.008979,-0.001832,0.102556
580,0.008122,-0.05963,0.121252
581,0.008122,-0.040364,0.046465
582,0.008122,-0.078896,-0.065715
583,-0.043182,-0.05963,-0.047018
584,-0.026081,-0.117428,0.009072
585,-0.043182,-0.136694,0.046465
586,-0.077385,-0.329353,-0.047018
587,-0.043182,-0.387151,-0.009625
588,-0.043182,-0.290821,-0.009625
589,0.025223,-0.040364,0.027769
590,0.093629,0.306424,0.027769
591,0.196237,0.364222,0.009072
592,0.179135,0.306424,0.009072
593,0.059426,0.152296,0.027769
594,0.008122,0.364222,0.009072
595,-0.197094,0.210094,0.009072
596,-0.077385,0.075232,0.009072
597,-0.026081,0.055966,0.009072
598,0.042325,-0.021098,0.046465
599,0.008122,0.075232,0.009072
600,-0.026081,0.152296,-0.009625
601,-0.026081,0.055966,-0.028322
602,-0.026081,0.017434,-0.028322
603,-0.026081,-0.001832,-0.028322
604,-0.026081,-0.021098,-0.065715
605,-0.026081,-0.021098,-0.028322
606,-0.043182,-0.078896,0.083859
607,-0.026081,-0.05963,0.083859
608,-0.008979,-0.05963,0.102556
609,-0.008979,-0.078896,0.083859
610,-0.043182,-0.098162,0.027769
611,-0.026081,-0.040364,0.046465
612,-0.008979,-0.040364,0.102556
613,0.008122,0.017434,0.065162
614,0.008122,-0.001832,0.009072
615,0.008122,-0.001832,-0.028322
616,0.008122,-0.05963,0.027769
617,0.008122,-0.078896,0.083859
618,0.008122,-0.05963,0.102556
619,0.008122,-0.05963,0.102556
620,-0.008979,-0.078896,-0.009625
621,-0.026081,-0.078896,-0.028322
622,-0.026081,-0.040364,-0.009625
623,-0.008979,-0.021098,-0.065715
624,-0.026081,0.0367,-0.159199
625,-0.008979,0.094498,-0.177896
626,0.042325,0.152296,-0.196593
627,0.042325,0.171562,-0.140502
628,0.025223,0.075232,-0.065715
629,0.008122,0.017434,-0.084412
630,0.025223,0.075232,-0.065715
631,0.025223,0.0367,0.027769
632,0.008122,0.0367,0.046465
633,-0.008979,-0.001832,0.065162
634,0.008122,-0.040364,0.233433
635,-0.043182,-0.040364,0.36431
636,-0.026081,-0.05963,0.30822
637,-0.026081,-0.098162,0.289523
638,-0.008979,-0.078896,0.30822
639,-0.026081,-0.040364,0.233433
640,-0.026081,-0.001832,0.139949
641,0.008122,0.017434,0.046465
642,0.008122,0.055966,-0.084412
643,0.025223,0.113764,-0.177896
644,-0.008979,0.0367,-0.140502
645,0.025223,-0.040364,-0.121806
646,0.008122,-0.136694,-0.196593
647,-0.008979,-0.040364,-0.196593
648,0.008122,0.075232,-0.159199
649,0.025223,0.017434,-0.159199
650,0.025223,0.0367,-0.065715
651,0.025223,-0.078896,0.027769
652,0.008122,-0.078896,0.027769
653,-0.043182,-0.175226,-0.047018
654,-0.026081,-0.05963,-0.047018
655,-0.026081,-0.078896,0.009072
656,-0.008979,-0.05963,0.027769
657,0.008122,-0.021098,-0.009625
658,0.025223,0.190828,0.046465
659,0.008122,0.171562,0.214736
660,-0.026081,0.094498,0.476491
661,-0.043182,0.0367,0.551278
662,-0.026081,-0.021098,0.607368
663,-0.026081,-0.001832,0.476491
664,-0.026081,0.017434,0.30822
665,-0.008979,0.017434,0.177343
666,-0.026081,0.094498,0.027769
667,0.008122,0.152296,-0.159199
668,0.008122,0.113764,-0.402257
669,0.008122,0.0367,-0.570528
670,0.008122,-0.001832,-0.570528
671,0.008122,-0.078896,-0.43965
672,0.008122,-0.117428,-0.32747
673,0.042325,-0.098162,-0.159199
674,0.025223,0.017434,-0.121806
675,-0.008979,0.075232,-0.103109
676,0.025223,0.152296,-0.084412
677,0.008122,0.13303,-0.065715
678,0.008122,0.22936,-0.047018
679,0.025223,0.22936,-0.065715
680,0.025223,0.094498,-0.028322
681,0.025223,0.017434,-0.028322
682,0.008122,0.017434,0.027769
683,-0.008979,0.017434,0.065162
684,0.008122,0.017434,0.083859
685,0.025223,-0.001832,0.065162
686,-0.008979,-0.001832,0.065162
687,-0.043182,-0.05963,0.046465
688,-0.043182,-0.040364,0.046465
689,-0.008979,-0.117428,0.102556
690,-0.026081,-0.15596,0.25213
691,-0.026081,-0.15596,0.345613
692,-0.026081,-0.117428,0.4204
693,-0.026081,-0.136694,0.513884
694,-0.008979,-0.078896,0.607368
695,0.042325,0.017434,0.569975
696,0.025223,0.094498,0.383007
697,0.025223,0.171562,-0.009625
698,0.008122,0.210094,-0.364863
699,0.025223,0.210094,-0.402257
700,0.025223,0.113764,-0.38356
701,-0.026081,0.0367,-0.514437
702,-0.043182,-0.05963,-0.589224
703,-0.026081,-0.175226,-0.551831
704,-0.026081,-0.271555,-0.495741
705,-0.043182,-0.233024,-0.420954
706,-0.060283,-0.233024,-0.27138
707,-0.043182,-0.175226,0.009072
708,-0.043182,0.017434,0.121252
709,0.008122,0.152296,0.177343
710,0.025223,0.190828,0.214736
711,0.042325,0.13303,0.177343
712,0.025223,0.075232,0.214736
713,0.008122,0.094498,0.158646
714,-0.008979,0.055966,0.121252
715,0.008122,0.075232,0.196039
716,0.008122,-0.021098,0.326917
717,-0.008979,-0.021098,0.457794
718,0.008122,-0.021098,0.495188
719,-0.008979,-0.05963,0.36431
720,-0.026081,-0.040364,0.233433
721,0.008122,0.017434,-0.047018
722,-0.008979,0.0367,-0.308773
723,0.008122,-0.001832,-0.477044
724,0.008122,-0.001832,-0.514437
725,-0.008979,-0.117428,-0.402257
726,-0.008979,-0.252289,-0.32747
727,-0.026081,-0.194492,-0.215289
728,0.008122,-0.117428,-0.121806
729,-0.008979,0.0367,-0.009625
730,0.025223,0.210094,0.009072
731,0.042325,0.22936,0.027769
732,0.008122,0.152296,0.065162
733,0.042325,0.171562,0.102556
734,0.059426,0.287158,0.083859
735,0.025223,0.22936,0.046465
736,-0.008979,0.113764,0.065162
737,0.008122,0.13303,0.046465
738,0.025223,0.171562,0.102556
739,-0.008979,0.0367,0.102556
740,0.008122,-0.001832,0.158646
741,-0.026081,-0.05963,0.214736
742,-0.026081,-0.040364,0.158646
743,-0.008979,-0.001832,0.027769
744,-0.008979,-0.021098,0.027769
745,-0.008979,-0.098162,0.065162
746,-0.008979,-0.098162,0.046465
747,-0.043182,-0.290821,-0.103109
748,-0.060283,-0.425683,-0.215289
749,-0.060283,-0.387151,-0.233986
750,-0.043182,-0.310087,-0.196593
751,-0.026081,-0.136694,-0.028322
752,0.025223,0.055966,-0.028322
753,0.025223,0.171562,-0.103109
754,0.008122,0.190828,-0.103109
755,-0.008979,0.171562,-0.028322
756,-0.043182,0.171562,-0.084412
757,-0.008979,0.094498,-0.084412
758,0.059426,0.094498,-0.009625
759,0.042325,0.171562,0.065162
760,0.008122,0.152296,0.065162
761,-0.008979,0.210094,-0.028322
762,0.008122,0.22936,-0.084412
763,0.008122,0.267892,-0.103109
764,-0.026081,0.22936,-0.009625
765,0.008122,0.094498,-0.028322
766,0.076527,0.0367,-0.028322
767,0.042325,0.017434,0.046465
768,0.025223,0.017434,0.046465
769,0.025223,-0.001832,0.009072
770,0.008122,-0.001832,0.027769
771,0.008122,-0.021098,0.065162
772,0.008122,-0.001832,0.065162
773,0.025223,-0.040364,-0.009625
774,-0.008979,-0.040364,0.009072
775,0.008122,-0.021098,0.027769
776,-0.008979,-0.021098,0.009072
777,0.008122,-0.001832,0.083859
778,0.025223,-0.021098,0.121252
779,-0.008979,-0.05963,0.065162
780,0.025223,-0.05963,0.027769
781,-0.026081,-0.136694,-0.084412
782,-0.043182,-0.117428,-0.121806
783,-0.043182,-0.040364,-0.103109
784,-0.026081,0.0367,-0.047018
785,-0.026081,0.017434,-0.028322
786,-0.008979,-0.040364,-0.028322
787,0.008122,0.0367,0.158646
788,0.008122,-0.001832,0.196039
789,-0.008979,-0.021098,0.214736
790,-0.008979,-0.001832,0.177343
791,-0.008979,-0.021098,0.121252
792,-0.008979,-0.040364,0.046465
793,-0.008979,-0.05963,0.009072
794,0.008122,-0.040364,-0.084412
795,0.008122,-0.040364,-0.047018
796,-0.008979,-0.021098,0.065162
797,-0.026081,-0.05963,-0.047018
798,-0.008979,0.0367,-0.140502
799,-0.008979,0.13303,-0.084412
800,0.025223,0.094498,0.009072
801,0.025223,0.0367,0.102556
802,0.008122,-0.001832,0.046465
803,-0.008979,-0.021098,0.009072
804,-0.008979,-0.040364,-0.159199
805,-0.008979,-0.05963,-0.252683
806,-0.008979,-0.040364,-0.233986
807,-0.008979,-0.040364,-0.196593
808,0.008122,-0.021098,-0.121806
809,-0.008979,-0.001832,-0.028322
810,-0.008979,-0.021098,0.027769
811,-0.008979,-0.040364,0.027769
812,0.008122,-0.040364,-0.009625
813,0.008122,0.017434,-0.009625
814,0.008122,0.017434,0.009072
815,0.008122,0.017434,-0.009625
816,-0.008979,0.075232,0.027769
817,-0.008979,0.094498,0.046465
818,0.008122,0.094498,-0.009625
819,0.025223,0.055966,0.046465
820,0.025223,0.017434,0.027769
821,-0.008979,-0.021098,0.009072
822,-0.026081,-0.117428,0.009072
823,-0.026081,-0.348619,0.009072
824,-0.043182,-0.464215,0.027769
825,-0.043182,-0.483481,0.046465
826,-0.060283,-0.425683,-0.009625
827,-0.060283,-0.387151,-0.103109
828,-0.008979,-0.175226,-0.084412
829,0.059426,0.171562,-0.009625
830,0.059426,0.344956,0.009072
831,0.025223,0.22936,0.027769
832,-0.008979,0.210094,0.009072
833,0.008122,0.441286,-0.009625
834,0.025223,0.556882,0.009072
835,0.042325,0.460552,0.027769
836,-0.026081,0.287158,0.046465
837,0.008122,0.171562,0.009072
838,0.025223,0.171562,0.009072
839,0.042325,0.171562,0.046465
840,0.042325,0.171562,0.009072
841,0.059426,0.152296,-0.028322
842,0.025223,0.0367,-0.009625
843,0.008122,-0.040364,-0.009625
844,0.008122,-0.001832,-0.009625
845,-0.008979,0.0367,0.009072
846,0.008122,0.055966,-0.028322
847,0.008122,0.017434,-0.028322
848,0.008122,-0.001832,0.009072
849,0.008122,0.075232,0.046465
850,0.008122,0.075232,0.065162
851,0.008122,0.0367,0.046465
852,-0.008979,-0.001832,0.046465
853,0.008122,-0.001832,0.009072
854,0.008122,-0.021098,-0.047018
855,-0.026081,-0.040364,-0.084412
856,-0.026081,-0.05963,-0.084412
857,-0.008979,-0.021098,-0.065715
858,-0.043182,-0.05963,-0.028322
859,-0.026081,-0.040364,-0.047018
860,-0.026081,-0.078896,-0.028322
861,-0.008979,-0.05963,0.009072
862,-0.008979,-0.040364,0.046465
863,0.008122,-0.021098,0.009072
864,-0.008979,-0.021098,0.046465
865,0.008122,-0.001832,0.083859
866,-0.008979,-0.001832,0.083859
867,-0.026081,-0.001832,0.065162
868,-0.008979,-0.001832,0.102556
869,-0.008979,0.017434,0.046465
870,-0.026081,-0.021098,0.009072
871,-0.008979,-0.021098,0.027769
872,-0.008979,-0.05963,-0.103109
873,0.008122,-0.021098,-0.159199
874,-0.008979,-0.040364,-0.084412
875,-0.008979,-0.021098,-0.009625
876,0.008122,-0.040364,0.009072
877,-0.008979,-0.040364,0.027769
878,-0.008979,-0.021098,0.009072
879,0.008122,-0.001832,-0.028322
880,0.008122,-0.001832,-0.047018
881,-0.008979,-0.021098,-0.009625
882,-0.008979,-0.001832,-0.028322
883,0.008122,-0.001832,0.027769
884,0.025223,-0.001832,0.027769
885,0.008122,-0.021098,-0.047018
886,-0.008979,-0.001832,-0.009625
887,0.008122,-0.001832,0.027769
888,0.025223,-0.021098,0.009072
889,0.008122,-0.001832,-0.028322
890,-0.008979,-0.040364,0.009072
891,-0.026081,-0.001832,0.046465
892,0.008122,-0.040364,0.009072
893,-0.008979,-0.021098,-0.009625
894,0.008122,-0.001832,0.046465
895,-0.008979,0.017434,0.065162
896,0.008122,0.0367,0.065162
897,0.008122,-0.021098,0.065162
898,-0.008979,-0.021098,0.027769
899,-0.008979,-0.040364,-0.047018
900,-0.026081,-0.021098,-0.065715
901,-0.026081,-0.117428,-0.084412
902,-0.043182,-0.117428,-0.103109
903,0.008122,-0.05963,-0.047018
904,0.042325,0.094498,0.009072
905,0.042325,0.075232,0.009072
906,0.025223,0.055966,-0.028322
907,-0.026081,0.0367,-0.009625
908,-0.008979,0.22936,-0.009625
909,0.025223,0.152296,-0.028322
910,0.025223,0.055966,-0.028322
911,0.008122,-0.040364,-0.009625
912,-0.008979,-0.098162,-0.009625
913,-0.008979,-0.175226,0.027769
914,-0.026081,-0.252289,0.027769
915,-0.008979,-0.194492,0.009072
916,-0.008979,-0.117428,0.027769
917,-0.043182,-0.040364,0.027769
918,-0.026081,-0.021098,-0.028322
919,0.008122,0.113764,-0.065715
920,0.025223,0.113764,0.009072
921,0.008122,0.094498,0.009072
922,0.008122,0.017434,-0.009625
923,0.008122,0.13303,-0.009625
924,0.025223,0.287158,0.027769
925,0.025223,0.344956,-0.009625
926,0.008122,0.344956,0.009072
927,0.025223,0.190828,0.027769
928,-0.008979,0.0367,0.009072
929,-0.008979,-0.001832,0.046465
930,-0.008979,-0.078896,0.009072
931,-0.026081,-0.233024,0.027769
932,-0.043182,-0.329353,0.027769
933,-0.043182,-0.367885,0.046465
934,-0.060283,-0.367885,0.027769
935,-0.043182,-0.233024,0.027769
936,-0.043182,-0.001832,0.009072
937,0.008122,0.22936,0.009072
938,0.076527,0.402754,0.009072
939,0.059426,0.460552,0.009072
940,0.025223,0.32569,0.009072
941,0.025223,0.22936,0.046465
942,0.025223,0.152296,0.102556
943,0.025223,0.0367,0.027769
944,0.008122,0.017434,0.009072
945,0.025223,0.017434,-0.047018
946,0.025223,0.017434,-0.009625
947,0.008122,-0.001832,0.027769
948,-0.008979,-0.040364,0.046465
949,-0.008979,-0.021098,0.027769
950,-0.008979,-0.001832,0.027769
951,-0.008979,-0.040364,-0.009625
952,-0.026081,-0.040364,-0.047018
953,-0.026081,-0.040364,-0.047018
954,-0.026081,-0.040364,-0.047018
955,-0.008979,-0.040364,-0.028322
956,0.008122,-0.040364,-0.009625
957,-0.008979,-0.040364,-0.009625
958,0.008122,-0.021098,-0.047018
959,0.008122,-0.040364,-0.028322
960,0.008122,-0.021098,-0.009625
961,0.025223,-0.021098,0.027769
962,-0.008979,-0.021098,0.046465
963,-0.008979,-0.001832,0.065162
964,0.025223,-0.040364,0.065162
965,0.008122,-0.021098,0.046465
966,0.008122,-0.001832,0.009072
967,-0.008979,-0.021098,-0.009625
968,-0.008979,-0.021098,0.009072
969,0.008122,-0.021098,0.009072
970,0.025223,0.017434,-0.028322
971,0.025223,-0.021098,-0.028322
972,-0.026081,-0.021098,-0.009625
973,0.008122,-0.021098,0.027769
974,-0.008979,-0.040364,0.046465
975,0.025223,0.017434,0.046465
976,0.008122,-0.001832,0.046465
977,-0.008979,-0.001832,0.046465
978,-0.008979,-0.001832,0.065162
979,-0.008979,-0.021098,0.009072
980,-0.008979,0.017434,0.009072
981,0.008122,-0.021098,-0.047018
982,-0.008979,-0.040364,-0.084412
983,-0.008979,-0.001832,-0.084412
984,-0.008979,-0.021098,0.009072
985,-0.008979,-0.001832,0.046465
986,-0.008979,-0.021098,0.027769
987,-0.008979,0.017434,0.009072
988,0.008122,0.017434,-0.009625
989,-0.008979,-0.001832,-0.009625
990,0.042325,-0.001832,0.009072
991,0.008122,-0.001832,0.065162
992,0.008122,-0.021098,0.027769
993,-0.008979,-0.001832,-0.028322
994,-0.008979,-0.021098,-0.028322
995,-0.008979,-0.001832,-0.028322
996,-0.026081,-0.040364,-0.084412
997,-0.008979,-0.021098,-0.103109
998,-0.008979,-0.001832,-0.028322
999,0.008122,0.0367,-0.028322
1000,0.008122,0.0367,-0.009625
1001,-0.008979,-0.001832,0.009072
1002,0.008122,-0.001832,0.009072
1003,0.025223,-0.021098,0.027769
1004,0.008122,-0.040364,0.027769
1005,-0.026081,-0.05963,-0.009625
1006,-0.008979,-0.078896,0.009072
1007,-0.008979,-0.05963,0.065162
1008,-0.008979,-0.021098,0.102556
1009,-0.026081,-0.05963,0.102556
1010,0.008122,-0.040364,0.102556
1011,0.008122,0.055966,0.009072
1012,0.042325,0.171562,-0.065715
1013,0.059426,0.152296,-0.084412
1014,-0.026081,0.075232,-0.009625
1015,-0.043182,0.0367,-0.028322
1016,0.008122,0.017434,0.009072
1017,0.008122,-0.021098,0.009072
1018,0.025223,-0.021098,-0.047018
1019,-0.008979,-0.05963,-0.103109
1020,-0.043182,-0.05963,-0.121806
1021,-0.026081,0.055966,-0.065715
1022,-0.008979,0.055966,-0.065715
1023,0.008122,0.055966,-0.028322
1024,0.008122,0.113764,-0.028322
1025,0.008122,0.0367,-0.009625
1026,-0.026081,-0.098162,-0.028322
1027,0.008122,-0.15596,0.046465
1028,0.008122,-0.194492,0.009072
1029,0.008122,-0.098162,0.046465
1030,0.008122,-0.040364,0.065162
1031,-0.008979,0.075232,0.065162
1032,0.008122,0.22936,0.046465
1033,-0.008979,0.210094,0.046465
1034,0.025223,0.113764,0.027769
1035,-0.008979,0.055966,-0.009625
1036,0.008122,0.055966,-0.009625
1037,-0.008979,0.055966,-0.084412
1038,-0.008979,-0.040364,-0.009625
1039,-0.008979,-0.05963,0.009072
1040,0.025223,-0.021098,0.027769
1041,0.008122,0.017434,0.027769
1042,-0.008979,-0.001832,0.046465
1043,-0.008979,-0.001832,0.027769
1044,-0.008979,0.0367,-0.009625
1045,-0.008979,0.075232,-0.028322
1046,-0.008979,0.075232,-0.028322
1047,-0.008979,0.075232,-0.028322
1048,0.008122,0.055966,-0.009625
1049,0.008122,0.075232,0.046465
1050,-0.008979,0.075232,-0.009625
1051,0.008122,0.017434,0.009072
1052,0.008122,-0.021098,0.027769
1053,0.008122,-0.021098,0.027769
1054,0.008122,-0.021098,0.009072
1055,0.008122,-0.021098,0.027769
1056,-0.026081,-0.021098,-0.009625
1057,0.008122,-0.040364,-0.009625
1058,0.008122,-0.001832,-0.009625
1059,0.008122,-0.001832,0.027769
1060,0.008122,-0.021098,0.009072
1061,0.008122,-0.021098,-0.009625
1062,-0.008979,-0.021098,-0.009625
1063,-0.008979,-0.05963,-0.047018
1064,-0.008979,-0.001832,0.027769
1065,-0.008979,0.017434,0.046465
1066,0.008122,-0.001832,0.083859
1067,0.008122,-0.001832,0.046465
1068,0.025223,-0.001832,0.046465
1069,0.008122,-0.001832,0.027769
1070,0.008122,0.017434,0.046465
1071,-0.008979,-0.001832,-0.028322
1072,0.025223,-0.021098,-0.047018
1073,0.008122,-0.040364,-0.065715
1074,-0.008979,-0.021098,-0.065715
1075,-0.008979,-0.001832,-0.065715
1076,0.025223,0.017434,-0.047018
1077,0.008122,-0.001832,0.009072
1078,0.008122,-0.021098,0.027769
1079,0.008122,0.017434,0.046465
1080,-0.008979,-0.021098,0.027769
1081,0.008122,-0.040364,0.027769
1082,-0.008979,-0.05963,0.046465
1083,-0.026081,-0.021098,0.065162
1084,-0.008979,-0.001832,0.027769
1085,-0.008979,-0.021098,0.046465
1086,-0.008979,-0.001832,0.009072
1087,-0.008979,0.017434,-0.009625
1088,-0.026081,0.0367,-0.047018
1089,-0.008979,-0.001832,-0.103109
1090,0.008122,0.0367,-0.047018
1091,-0.008979,0.113764,0.009072
1092,0.008122,0.075232,0.009072
1093,0.008122,-0.001832,0.009072
1094,-0.008979,-0.040364,0.027769
1095,-0.008979,-0.021098,-0.028322
1096,0.008122,-0.001832,-0.009625
1097,-0.008979,-0.001832,-0.028322
1098,-0.026081,-0.040364,-0.028322
1099,-0.008979,-0.021098,-0.028322
1100,-0.008979,-0.078896,0.083859
1101,-0.008979,-0.078896,0.083859
1102,0.008122,-0.098162,0.083859
1103,0.008122,-0.021098,0.065162
1104,0.008122,0.0367,0.009072
1105,-0.008979,0.055966,-0.028322
1106,0.008122,0.075232,-0.159199
1107,0.008122,0.075232,-0.103109
1108,0.042325,0.171562,-0.028322
1109,0.025223,0.152296,0.009072
1110,0.025223,0.055966,-0.009625
1111,0.025223,0.055966,-0.028322
1112,-0.008979,0.017434,-0.047018
1113,-0.008979,0.017434,0.027769
1114,-0.008979,0.017434,0.065162
1115,0.008122,-0.040364,0.009072
1116,0.008122,-0.021098,0.046465
1117,0.008122,0.017434,0.027769
1118,0.008122,0.0367,-0.028322
1119,0.008122,0.017434,-0.047018
1120,0.008122,-0.001832,-0.065715
1121,0.008122,0.0367,-0.028322
1122,0.008122,0.017434,-0.009625
1123,0.008122,-0.001832,-0.009625
1124,0.008122,-0.040364,-0.009625
1125,0.008122,-0.040364,-0.009625
1126,-0.008979,-0.021098,0.027769
1127,0.008122,0.017434,0.046465
1128,0.025223,0.017434,0.027769
1129,-0.008979,-0.001832,0.009072
1130,-0.008979,-0.001832,0.065162
1131,0.008122,-0.021098,0.046465
1132,-0.008979,-0.001832,0.027769
1133,0.008122,0.017434,0.046465
1134,-0.008979,-0.021098,0.027769
1135,-0.008979,-0.001832,-0.028322
1136,-0.008979,-0.040364,-0.047018
1137,0.008122,-0.040364,-0.103109
1138,-0.008979,-0.05963,-0.065715
1139,-0.008979,-0.040364,0.046465
1140,-0.008979,-0.040364,0.027769
1141,-0.026081,-0.001832,-0.028322
1142,-0.026081,0.017434,-0.028322
1143,-0.008979,0.0367,-0.009625
1144,0.025223,0.0367,-0.065715
1145,0.025223,0.0367,-0.028322
1146,0.008122,0.017434,0.009072
1147,0.008122,0.0367,0.009072
1148,0.008122,0.017434,-0.009625
1149,-0.008979,0.055966,-0.009625
1150,0.008122,-0.001832,0.009072
1151,0.025223,-0.001832,-0.009625
1152,0.008122,0.017434,0.009072
1153,0.008122,-0.001832,0.009072
1154,0.008122,-0.040364,0.027769
1155,0.008122,-0.078896,0.009072
1156,-0.008979,-0.098162,0.009072
1157,-0.008979,-0.194492,0.009072
1158,-0.008979,-0.213758,0.009072
1159,-0.008979,-0.117428,0.009072
1160,0.008122,-0.05963,0.027769
1161,-0.008979,-0.001832,0.009072
1162,-0.026081,0.0367,-0.009625
1163,-0.008979,0.152296,0.009072
1164,0.008122,0.267892,-0.009625
1165,0.025223,0.287158,0.009072
1166,0.008122,0.094498,0.009072
1167,0.008122,0.094498,0.027769
1168,0.025223,0.094498,0.009072
1169,0.042325,0.075232,0.027769
1170,0.025223,0.075232,0.009072
1171,0.008122,0.0367,0.009072
1172,0.008122,0.0367,0.027769
1173,0.008122,0.017434,0.027769
1174,0.008122,-0.021098,0.027769
1175,-0.008979,-0.021098,-0.009625
1176,-0.008979,-0.021098,0.027769
1177,0.008122,-0.040364,-0.065715
1178,0.008122,-0.05963,-0.047018
1179,-0.008979,-0.040364,0.009072
1180,-0.008979,-0.05963,0.046465
1181,-0.008979,-0.021098,-0.009625
1182,0.008122,-0.001832,-0.009625
1183,-0.008979,0.017434,0.009072
1184,0.008122,0.055966,-0.009625
1185,0.008122,-0.021098,-0.047018
1186,-0.026081,-0.021098,-0.028322
1187,0.008122,-0.001832,-0.028322
1188,0.008122,0.017434,-0.028322
1189,-0.008979,-0.040364,-0.028322
1190,-0.008979,-0.05963,-0.065715
1191,0.008122,-0.021098,0.046465
1192,-0.008979,-0.021098,0.046465
1193,0.008122,-0.001832,0.046465
1194,0.008122,0.017434,0.009072
1195,-0.008979,0.055966,0.009072
1196,-0.008979,0.017434,0.009072
1197,-0.026081,-0.001832,-0.009625
1198,0.008122,-0.001832,-0.047018
1199,0.008122,-0.001832,-0.028322
1200,0.008122,0.0367,0.009072
1201,-0.008979,-0.001832,-0.009625
1202,0.008122,-0.040364,-0.028322
1203,-0.008979,-0.001832,-0.047018
1204,0.008122,0.055966,-0.028322
1205,0.008122,0.0367,0.009072
1206,-0.008979,-0.021098,0.027769
1207,0.008122,-0.040364,0.027769
1208,-0.008979,-0.021098,0.065162
1209,0.025223,0.017434,0.046465
1210,0.008122,-0.001832,0.027769
1211,0.008122,0.017434,-0.009625
1212,0.008122,0.017434,-0.028322
1213,0.008122,0.0367,-0.009625
1214,0.025223,-0.001832,0.009072
1215,0.008122,-0.021098,0.009072
1216,-0.008979,-0.021098,0.046465
1217,-0.026081,-0.001832,0.027769
1218,-0.008979,-0.040364,0.027769
1219,-0.008979,-0.001832,0.009072
1220,0.008122,-0.001832,-0.028322
1221,0.008122,0.017434,0.009072
1222,0.008122,0.017434,-0.047018
1223,0.008122,-0.021098,-0.028322
1224,0.025223,-0.001832,0.009072
1225,0.008122,-0.001832,0.046465
1226,0.008122,-0.040364,0.065162
1227,-0.008979,-0.021098,0.046465
1228,0.025223,-0.021098,0.065162
1229,0.008122,-0.021098,0.046465
1230,0.008122,-0.001832,-0.009625
1231,-0.008979,0.0367,-0.084412
1232,-0.026081,-0.021098,-0.065715
1233,-0.043182,-0.05963,-0.047018
1234,0.008122,-0.040364,-0.009625
1235,-0.008979,-0.078896,-0.028322
1236,-0.008979,-0.05963,0.009072
1237,0.008122,0.0367,-0.009625
1238,0.025223,0.0367,0.009072
1239,0.008122,0.075232,-0.028322
1240,-0.008979,0.0367,-0.009625
1241,-0.008979,-0.001832,0.009072
1242,0.008122,0.017434,0.027769
1243,0.008122,0.017434,-0.028322
1244,0.008122,0.055966,0.009072
1245,0.008122,0.055966,0.046465
1246,0.025223,0.075232,0.009072
1247,0.008122,0.055966,0.046465
1248,0.008122,-0.021098,0.009072
1249,0.008122,-0.001832,-0.028322
1250,0.008122,-0.040364,-0.047018
1251,-0.008979,0.017434,-0.028322
1252,-0.008979,0.017434,-0.028322
1253,0.008122,0.075232,0.009072
1254,0.025223,0.075232,-0.028322
1255,0.025223,0.0367,0.009072
1256,0.008122,-0.001832,0.009072
1257,0.008122,-0.001832,0.046465
1258,-0.008979,-0.021098,0.065162
1259,-0.008979,0.017434,0.027769
1260,-0.008979,-0.001832,0.027769
1261,-0.008979,-0.021098,0.009072
1262,0.008122,-0.040364,0.009072
1263,-0.008979,-0.05963,-0.009625
1264,0.008122,-0.040364,-0.028322
1265,-0.008979,-0.040364,-0.047018
1266,-0.026081,-0.040364,-0.009625
1267,-0.008979,0.0367,0.027769
1268,0.008122,0.075232,0.009072
1269,0.025223,0.055966,0.009072
1270,0.042325,0.0367,0.027769
1271,0.008122,-0.021098,-0.009625
1272,0.008122,-0.05963,-0.047018
1273,0.008122,0.017434,-0.047018
1274,0.008122,0.0367,-0.009625
1275,0.008122,0.0367,-0.009625
1276,0.025223,0.094498,-0.009625
1277,0.025223,0.094498,0.009072
1278,0.025223,0.075232,0.009072
1279,0.008122,0.0367,-0.009625
1280,-0.008979,0.0367,0.009072
1281,-0.008979,-0.001832,0.027769
1282,-0.026081,-0.021098,-0.009625
1283,-0.026081,-0.001832,0.009072
1284,0.008122,-0.001832,0.046465
1285,0.025223,-0.001832,-0.009625
1286,0.008122,-0.040364,-0.009625
1287,0.008122,-0.001832,0.027769
1288,-0.008979,0.017434,0.046465
1289,0.008122,-0.001832,-0.009625
1290,-0.008979,-0.001832,-0.009625
1291,0.008122,-0.040364,-0.009625
1292,0.008122,-0.021098,-0.047018
1293,0.008122,-0.021098,-0.047018
1294,0.008122,-0.001832,-0.009625
1295,-0.008979,0.0367,0.009072
1296,0.008122,-0.001832,0.027769
1297,0.008122,0.017434,0.046465
1298,-0.008979,-0.040364,0.027769
1299,-0.008979,-0.021098,0.065162
1300,0.008122,-0.040364,0.065162
1301,-0.008979,-0.001832,0.009072
1302,0.008122,-0.001832,0.027769
1303,-0.008979,-0.001832,0.009072
1304,-0.008979,0.0367,-0.028322
1305,0.008122,0.0367,-0.047018
1306,-0.008979,-0.001832,-0.009625
1307,-0.008979,-0.021098,-0.009625
1308,0.008122,-0.078896,-0.047018
1309,0.025223,-0.040364,0.009072
1310,0.008122,-0.098162,0.027769
1311,-0.026081,-0.098162,0.009072
1312,-0.008979,-0.05963,0.027769
1313,-0.008979,-0.021098,0.027769
1314,-0.008979,0.055966,-0.009625
1315,-0.043182,0.017434,-0.047018
1316,-0.008979,0.113764,-0.028322
1317,0.042325,0.190828,0.009072
1318,-0.008979,0.13303,-0.009625
1319,0.025223,0.075232,-0.009625
1320,0.008122,0.017434,-0.009625
1321,0.025223,-0.001832,-0.028322
1322,0.008122,-0.021098,-0.009625
1323,0.025223,-0.001832,-0.028322
1324,0.025223,-0.001832,-0.028322
1325,0.025223,-0.001832,-0.028322
1326,0.008122,-0.021098,0.009072
1327,0.008122,-0.040364,-0.009625
1328,-0.008979,-0.001832,-0.009625
1329,0.008122,0.017434,0.009072
1330,-0.008979,0.055966,0.027769
1331,0.008122,0.055966,-0.028322
1332,0.025223,0.075232,0.009072
1333,0.008122,0.075232,0.046465
1334,-0.026081,-0.001832,0.009072
1335,-0.026081,-0.021098,0.027769
1336,0.008122,-0.001832,0.083859
1337,0.025223,-0.001832,0.065162
1338,-0.026081,-0.001832,0.009072
1339,0.008122,-0.021098,0.027769
1340,0.008122,-0.021098,0.009072
1341,0.008122,-0.001832,-0.065715
1342,0.025223,0.017434,-0.047018
1343,0.008122,0.017434,0.009072
1344,0.008122,-0.001832,0.009072
1345,-0.008979,0.017434,0.027769
1346,-0.026081,-0.001832,0.046465
1347,-0.008979,-0.021098,0.046465
1348,0.008122,-0.001832,0.009072
1349,-0.008979,-0.001832,-0.009625
1350,-0.008979,-0.021098,-0.065715
1351,-0.008979,-0.001832,-0.009625
1352,0.008122,-0.001832,0.009072
1353,0.008122,-0.001832,-0.028322
1354,-0.008979,-0.021098,-0.065715
1355,-0.008979,-0.001832,-0.065715
1356,-0.008979,-0.021098,-0.047018
1357,0.008122,-0.021098,-0.028322
1358,-0.008979,-0.001832,0.027769
1359,-0.008979,-0.021098,0.065162
1360,-0.008979,-0.021098,0.065162
1361,-0.008979,-0.001832,0.046465
1362,0.008122,0.017434,0.046465
1363,-0.008979,0.017434,0.009072
1364,0.008122,0.017434,-0.028322
1365,0.008122,-0.001832,-0.009625
1366,0.008122,-0.021098,-0.065715
1367,-0.008979,-0.001832,-0.047018
1368,-0.008979,-0.001832,-0.009625
1369,-0.008979,0.017434,0.009072
1370,0.008122,0.0367,-0.009625
1371,-0.008979,0.017434,0.009072
1372,0.008122,0.017434,0.009072
1373,0.008122,0.017434,0.009072
1374,0.025223,0.0367,0.027769
1375,0.008122,0.017434,0.009072
1376,0.008122,-0.040364,0.009072
1377,-0.026081,-0.078896,-0.009625
1378,-0.008979,-0.098162,0.046465
1379,-0.008979,-0.098162,0.009072
1380,-0.008979,-0.05963,-0.009625
1381,-0.008979,-0.040364,0.009072
1382,-0.026081,0.0367,0.009072
1383,0.008122,0.094498,-0.047018
1384,0.008122,0.094498,-0.009625
1385,-0.026081,0.0367,-0.009625
1386,-0.008979,-0.021098,0.009072
1387,-0.008979,-0.021098,0.009072
1388,-0.008979,0.017434,0.046465
1389,0.025223,-0.001832,0.009072
1390,0.042325,0.017434,0.009072
1391,0.025223,0.055966,0.009072
1392,0.008122,0.0367,-0.028322
1393,-0.008979,0.0367,-0.028322
1394,0.008122,0.0367,0.102556
1395,0.025223,0.094498,0.027769
1396,0.008122,0.055966,-0.009625
1397,0.008122,0.055966,0.009072
1398,0.025223,0.055966,0.027769
1399,0.008122,0.094498,0.027769
1400,-0.008979,0.094498,0.009072
1401,-0.008979,0.075232,0.027769
1402,-0.008979,0.0367,0.009072
1403,-0.008979,0.017434,-0.009625
1404,0.008122,0.017434,-0.047018
1405,-0.008979,-0.021098,-0.047018
1406,0.008122,-0.040364,-0.065715
1407,0.008122,-0.021098,-0.047018
1408,0.008122,-0.001832,0.009072
1409,-0.008979,-0.001832,-0.009625
1410,-0.026081,-0.001832,0.027769
1411,-0.008979,0.017434,0.009072
1412,0.008122,0.017434,0.009072
1413,0.008122,0.017434,0.027769
1414,0.008122,-0.001832,0.046465
1415,-0.008979,0.017434,0.009072
1416,-0.008979,-0.021098,-0.009625
1417,-0.008979,-0.001832,-0.009625
1418,-0.008979,-0.001832,0.027769
1419,-0.008979,-0.001832,0.009072
1420,0.025223,-0.001832,0.027769
1421,-0.008979,0.017434,0.065162
1422,-0.008979,-0.021098,-0.009625
1423,-0.008979,-0.040364,-0.009625
1424,0.025223,-0.021098,-0.140502
1425,0.025223,-0.040364,-0.103109
1426,-0.008979,-0.040364,-0.065715
1427,0.008122,-0.021098,-0.028322
1428,0.008122,-0.001832,-0.028322
1429,-0.008979,0.017434,0.009072
1430,0.008122,0.017434,0.009072
1431,-0.008979,-0.021098,0.046465
1432,-0.008979,0.0367,0.027769
1433,-0.008979,-0.001832,0.046465
1434,-0.008979,-0.001832,0.046465
1435,0.008122,-0.001832,0.065162
1436,0.008122,-0.001832,-0.028322
1437,-0.008979,-0.001832,-0.009625
1438,0.008122,-0.021098,-0.009625
1439,-0.008979,-0.021098,-0.028322
1440,0.008122,-0.040364,-0.028322
1441,-0.008979,-0.021098,-0.028322
1442,0.008122,-0.021098,-0.028322
1443,-0.008979,-0.021098,-0.028322
1444,-0.008979,0.017434,0.027769
1445,0.025223,0.094498,-0.009625
1446,0.025223,0.0367,0.009072
1447,-0.008979,0.017434,0.009072
1448,0.008122,-0.001832,0.009072
1449,-0.008979,-0.001832,0.009072
1450,-0.008979,0.017434,0.065162
1451,0.008122,-0.021098,0.027769
1452,-0.008979,-0.001832,0.009072
1453,0.025223,-0.040364,0.009072
1454,0.008122,-0.05963,-0.009625
1455,-0.008979,-0.040364,-0.028322
1456,-0.008979,-0.001832,-0.028322
1457,-0.008979,0.0367,0.027769
1458,-0.008979,0.055966,-0.009625
1459,-0.008979,0.0367,0.046465
1460,0.008122,0.017434,0.065162
1461,0.008122,0.017434,0.102556
1462,0.025223,0.017434,0.046465
1463,0.008122,-0.001832,0.027769
1464,-0.008979,-0.001832,-0.028322
1465,-0.008979,-0.001832,-0.065715
1466,-0.026081,-0.040364,-0.009625
1467,-0.008979,-0.117428,0.009072
1468,-0.026081,-0.136694,-0.009625
1469,0.008122,-0.15596,0.009072
1470,-0.008979,-0.194492,0.027769
1471,-0.008979,-0.136694,-0.065715
1472,0.008122,-0.05963,-0.065715
1473,0.008122,0.0367,-0.009625
1474,0.008122,0.13303,0.027769
1475,0.008122,0.248626,0.009072
1476,0.025223,0.32569,0.046465
1477,0.042325,0.22936,0.009072
1478,0.025223,0.13303,-0.009625
1479,0.025223,0.075232,-0.028322
1480,0.025223,0.075232,-0.028322
1481,-0.008979,-0.001832,-0.047018
1482,0.008122,-0.001832,-0.009625
1483,-0.026081,-0.001832,0.009072
1484,0.008122,-0.001832,0.009072
1485,-0.008979,0.017434,0.027769
1486,-0.008979,0.055966,0.065162
1487,-0.008979,0.017434,0.046465
1488,-0.008979,-0.001832,0.027769
1489,0.008122,0.017434,0.009072
1490,0.025223,0.0367,-0.009625
1491,0.008122,0.017434,-0.028322
1492,0.008122,-0.021098,-0.047018
1493,-0.008979,-0.040364,-0.047018
1494,-0.026081,-0.021098,-0.047018
1495,-0.008979,0.017434,0.027769
1496,0.008122,0.017434,0.027769
1497,0.008122,-0.021098,-0.028322
1498,0.008122,-0.021098,0.009072
1499,-0.008979,-0.021098,0.046465
1500,0.008122,-0.021098,0.009072
1501,0.008122,-0.021098,-0.009625
1502,0.008122,-0.021098,0.046465
1503,-0.008979,-0.001832,0.046465
1504,0.008122,-0.001832,0.009072
1505,-0.008979,-0.05963,-0.047018
1506,0.008122,-0.021098,-0.047018
1507,-0.008979,-0.040364,-0.065715
1508,-0.008979,-0.021098,-0.065715
1509,0.008122,-0.001832,-0.009625
1510,0.008122,0.0367,0.009072
1511,0.008122,0.0367,0.046465
1512,0.025223,0.0367,0.046465
1513,0.008122,-0.001832,0.027769
1514,-0.008979,-0.001832,-0.009625
1515,-0.026081,-0.001832,0.009072
1516,-0.008979,0.017434,-0.009625
1517,-0.008979,-0.040364,-0.009625
1518,-0.008979,-0.001832,-0.028322
1519,0.008122,-0.021098,-0.047018
1520,-0.008979,0.017434,-0.028322
1521,0.008122,0.017434,0.009072
1522,0.008122,-0.040364,0.009072
1523,0.008122,-0.021098,0.046465
1524,-0.008979,-0.040364,0.009072
1525,-0.008979,-0.021098,0.065162
1526,-0.026081,0.017434,0.065162
1527,-0.008979,0.0367,0.009072
1528,-0.008979,0.0367,0.027769
1529,0.008122,0.055966,0.027769
1530,0.025223,0.094498,0.009072
1531,0.008122,0.0367,-0.009625
1532,0.008122,0.017434,-0.047018
1533,-0.008979,-0.021098,-0.028322
1534,-0.008979,-0.001832,0.046465
1535,0.008122,-0.021098,0.065162
1536,-0.008979,-0.001832,0.027769
1537,-0.026081,-0.021098,-0.103109
1538,0.008122,-0.001832,-0.028322
1539,0.008122,-0.078896,-0.047018
1540,-0.008979,-0.078896,0.009072
1541,-0.026081,-0.136694,0.083859
1542,-0.026081,-0.194492,0.065162
1543,-0.008979,-0.194492,-0.009625
1544,-0.026081,-0.117428,0.009072
1545,-0.008979,-0.021098,0.009072
1546,-0.008979,0.113764,-0.084412
1547,0.008122,0.152296,-0.084412
1548,0.025223,0.210094,-0.047018
1549,0.025223,0.210094,-0.028322
1550,0.008122,0.113764,-0.009625
1551,0.025223,0.094498,0.046465
1552,0.008122,0.055966,0.009072
1553,0.008122,0.0367,0.009072
1554,0.008122,0.017434,0.046465
1555,0.008122,0.017434,0.009072
1556,0.025223,-0.021098,0.009072
1557,-0.008979,-0.021098,-0.009625
1558,0.008122,-0.021098,0.009072
1559,-0.008979,0.017434,-0.084412
1560,-0.008979,0.017434,-0.047018
1561,-0.008979,0.017434,0.027769
1562,-0.008979,-0.021098,0.046465
1563,0.008122,0.055966,0.009072
1564,-0.008979,0.0367,0.009072
1565,0.008122,0.017434,0.009072
1566,0.008122,0.017434,-0.009625
1567,0.008122,-0.001832,0.009072
1568,-0.008979,-0.040364,-0.009625
1569,0.008122,-0.040364,-0.028322
1570,0.008122,-0.021098,0.009072
1571,-0.008979,-0.001832,0.009072
1572,-0.008979,-0.001832,-0.047018
1573,0.008122,0.017434,0.009072
1574,0.008122,0.0367,0.027769
1575,-0.008979,-0.021098,0.027769
1576,-0.008979,-0.040364,0.027769
1577,0.008122,-0.001832,0.046465
1578,-0.008979,-0.021098,0.027769
1579,-0.008979,-0.078896,-0.009625
1580,-0.008979,-0.040364,0.009072
1581,0.008122,-0.021098,-0.028322
1582,0.008122,0.055966,-0.028322
1583,0.008122,0.0367,-0.009625
1584,-0.026081,0.017434,-0.009625
1585,-0.008979,-0.001832,-0.028322
1586,-0.008979,0.017434,0.027769
1587,0.025223,0.017434,0.065162
1588,0.008122,-0.021098,0.027769
1589,0.008122,-0.040364,0.009072
1590,-0.008979,-0.001832,0.009072
1591,-0.008979,-0.001832,-0.028322
1592,0.025223,-0.001832,-0.047018
1593,0.008122,-0.021098,-0.009625
1594,-0.026081,-0.021098,-0.009625
1595,-0.008979,-0.021098,0.009072
1596,0.008122,-0.040364,0.046465
1597,0.008122,-0.001832,0.046465
1598,0.008122,0.017434,0.027769
1599,0.008122,0.055966,0.009072
1600,0.025223,0.055966,0.009072
1601,0.008122,0.0367,-0.028322
1602,0.008122,0.017434,0.009072
1603,-0.008979,-0.001832,0.009072
1604,-0.008979,-0.021098,-0.028322
1605,0.008122,-0.021098,-0.028322
1606,0.008122,-0.001832,0.009072
1607,0.008122,0.017434,-0.009625
1608,-0.008979,-0.021098,-0.047018
1609,-0.008979,-0.021098,-0.028322
1610,0.008122,0.0367,0.009072
1611,-0.008979,-0.021098,0.009072
1612,0.008122,-0.001832,0.027769
1613,0.008122,-0.001832,0.065162
1614,-0.008979,0.0367,0.083859
1615,-0.026081,0.0367,0.102556
1616,0.008122,-0.001832,0.027769
1617,-0.008979,0.017434,-0.009625
1618,0.008122,-0.040364,-0.084412
1619,0.008122,-0.05963,-0.065715
1620,0.008122,-0.098162,-0.065715
1621,0.008122,-0.078896,-0.047018
1622,-0.008979,-0.136694,-0.047018
1623,0.008122,-0.136694,-0.047018
1624,-0.008979,-0.078896,-0.028322
1625,-0.008979,-0.021098,0.027769
1626,-0.008979,0.017434,0.027769
1627,-0.008979,0.113764,-0.009625
1628,0.025223,0.171562,0.027769
1629,0.008122,0.152296,0.009072
1630,-0.008979,0.094498,0.009072
1631,0.008122,0.0367,0.009072
1632,-0.008979,0.0367,0.046465
1633,0.008122,0.075232,0.009072
1634,0.008122,0.075232,0.027769
1635,-0.008979,0.017434,0.027769
1636,0.008122,0.017434,0.009072
1637,-0.008979,-0.001832,-0.103109
1638,-0.008979,-0.001832,-0.009625
1639,-0.026081,-0.040364,0.027769
1640,-0.008979,-0.098162,-0.009625
1641,0.008122,-0.098162,0.027769
1642,0.025223,-0.040364,0.009072
1643,-0.008979,-0.021098,-0.009625
1644,-0.008979,-0.021098,-0.009625
1645,-0.043182,0.0367,0.027769
1646,-0.008979,0.113764,0.027769
1647,-0.026081,0.094498,0.009072
1648,0.025223,0.13303,0.046465
1649,0.059426,0.094498,0.065162
1650,0.042325,0.075232,0.046465
1651,0.008122,0.0367,0.065162
1652,-0.008979,0.0367,-0.028322
1653,-0.008979,0.0367,-0.103109
1654,0.025223,0.017434,-0.009625
1655,0.025223,0.017434,-0.009625
1656,0.008122,0.017434,0.046465
1657,-0.008979,-0.001832,0.009072
1658,0.025223,-0.001832,0.046465
1659,0.025223,-0.001832,0.009072
1660,0.025223,0.017434,-0.009625
1661,-0.008979,0.017434,0.009072
1662,-0.008979,-0.001832,0.009072
1663,-0.008979,-0.040364,0.009072
1664,0.008122,-0.040364,-0.009625
1665,0.008122,-0.040364,-0.028322
1666,-0.008979,-0.001832,-0.028322
1667,0.008122,-0.021098,0.065162
1668,-0.008979,0.017434,0.009072
1669,0.008122,0.0367,-0.047018
1670,-0.008979,0.0367,-0.047018
1671,-0.026081,-0.001832,-0.028322
1672,-0.026081,0.017434,-0.028322
1673,-0.008979,0.017434,-0.028322
1674,-0.008979,-0.001832,0.027769
1675,0.008122,-0.021098,0.009072
1676,0.008122,-0.001832,0.009072
1677,0.008122,-0.001832,0.065162
1678,-0.026081,0.017434,0.027769
1679,0.025223,0.017434,0.009072
1680,0.025223,-0.001832,0.027769
1681,-0.008979,-0.001832,-0.047018
1682,-0.008979,0.017434,-0.047018
1683,0.008122,0.017434,-0.065715
1684,-0.008979,-0.021098,-0.028322
1685,0.025223,-0.001832,-0.028322
1686,-0.008979,-0.021098,-0.009625
1687,0.025223,-0.021098,0.027769
1688,0.008122,-0.021098,0.046465
1689,0.008122,-0.05963,0.009072
1690,-0.008979,-0.001832,0.009072
1691,0.008122,-0.021098,0.027769
1692,0.008122,-0.001832,-0.009625
1693,-0.008979,-0.001832,0.065162
1694,-0.008979,-0.001832,0.009072
1695,0.008122,0.055966,-0.009625
1696,-0.008979,0.017434,-0.009625
1697,-0.008979,0.017434,-0.009625
1698,-0.008979,0.017434,-0.047018
1699,-0.008979,0.017434,-0.009625
1700,-0.008979,-0.078896,-0.028322
1701,-0.008979,-0.05963,-0.009625
1702,-0.008979,-0.040364,-0.028322
1703,0.025223,-0.040364,0.027769
1704,0.008122,-0.078896,-0.009625
1705,-0.008979,-0.040364,-0.028322
1706,0.008122,0.0367,0.009072
1707,0.025223,0.0367,-0.009625
1708,-0.008979,0.017434,-0.009625
1709,0.025223,0.0367,0.027769
1710,0.025223,0.094498,0.009072
1711,0.008122,0.094498,-0.009625
1712,0.008122,0.0367,-0.009625
1713,0.008122,-0.001832,0.027769
1714,0.008122,-0.040364,0.046465
1715,-0.008979,0.017434,0.027769
1716,0.025223,0.0367,0.046465
1717,0.008122,0.055966,0.009072
1718,0.025223,0.017434,-0.028322
1719,0.008122,0.017434,-0.028322
1720,-0.026081,-0.001832,-0.047018
1721,-0.008979,-0.001832,-0.047018
1722,0.008122,-0.021098,-0.009625
1723,0.025223,-0.05963,-0.009625
1724,-0.008979,-0.040364,-0.009625
1725,0.008122,-0.05963,0.027769
1726,0.008122,-0.040364,0.065162
1727,0.008122,-0.05963,0.027769
1728,0.008122,-0.040364,0.027769
1729,0.008122,-0.117428,0.009072
1730,0.008122,-0.117428,0.027769
1731,0.008122,-0.078896,-0.009625
1732,-0.026081,-0.05963,-0.028322
1733,-0.026081,0.017434,-0.028322
1734,-0.008979,0.152296,-0.065715
1735,0.025223,0.190828,0.027769
1736,0.025223,0.210094,0.009072
1737,0.025223,0.13303,0.009072
1738,0.025223,0.094498,0.027769
1739,0.025223,0.0367,0.046465
1740,0.025223,0.0367,0.009072
1741,-0.008979,0.017434,0.027769
1742,0.008122,-0.001832,-0.028322
1743,0.025223,-0.001832,-0.047018
1744,0.025223,-0.001832,-0.047018
1745,0.025223,0.017434,0.009072
1746,-0.008979,-0.001832,-0.047018
1747,-0.008979,-0.001832,-0.047018
1748,0.008122,-0.021098,-0.009625
1749,0.008122,-0.021098,-0.028322
1750,0.008122,-0.001832,0.009072
1751,0.008122,-0.001832,0.009072
1752,-0.008979,-0.001832,0.027769
1753,-0.008979,-0.021098,0.009072
1754,-0.008979,-0.001832,0.046465
1755,-0.008979,-0.040364,0.027769
1756,-0.008979,-0.001832,-0.009625
1757,0.008122,-0.001832,-0.028322
1758,0.008122,-0.021098,-0.009625
1759,-0.008979,-0.040364,-0.009625
1760,-0.008979,-0.078896,-0.009625
1761,-0.008979,-0.05963,0.027769
1762,-0.008979,-0.05963,-0.028322
1763,-0.008979,-0.040364,0.009072
1764,-0.008979,-0.001832,0.046465
1765,0.008122,0.017434,0.046465
1766,-0.008979,0.055966,-0.009625
1767,0.008122,0.113764,0.009072
1768,0.008122,0.055966,-0.009625
1769,-0.008979,0.0367,0.009072
1770,0.008122,0.0367,-0.009625
1771,-0.008979,0.017434,-0.028322
1772,-0.008979,-0.001832,-0.047018
1773,0.008122,0.017434,-0.028322
1774,0.008122,0.017434,-0.028322
1775,0.008122,0.0367,-0.047018
1776,-0.008979,-0.001832,0.027769
1777,-0.008979,-0.021098,0.083859
1778,-0.008979,-0.040364,0.046465
1779,0.008122,-0.021098,0.046465
1780,0.025223,-0.05963,0.046465
1781,-0.008979,-0.078896,-0.028322
1782,-0.026081,-0.05963,-0.084412
1783,-0.008979,-0.040364,-0.065715
1784,0.008122,0.0367,-0.047018
1785,0.008122,0.055966,-0.028322
1786,-0.008979,0.0367,0.009072
1787,-0.008979,-0.021098,0.009072
1788,0.025223,-0.05963,0.027769
1789,0.025223,-0.05963,0.046465
1790,0.008122,-0.040364,0.102556
1791,0.008122,-0.021098,0.009072
1792,0.008122,0.055966,0.009072
1793,0.025223,0.094498,0.009072
1794,0.025223,0.094498,-0.009625
1795,0.008122,0.113764,0.009072
1796,-0.008979,0.055966,0.027769
1797,-0.008979,0.0367,0.009072
1798,-0.008979,-0.001832,0.027769
1799,0.008122,-0.040364,0.027769
1800,0.008122,-0.040364,0.027769
1801,0.025223,-0.040364,-0.028322
1802,0.008122,-0.021098,-0.065715
1803,-0.008979,-0.001832,-0.028322
1804,-0.008979,0.0367,-0.028322
1805,0.025223,0.075232,-0.028322
1806,0.025223,0.075232,-0.009625
1807,-0.008979,0.055966,-0.028322
1808,0.008122,-0.001832,0.009072
1809,0.025223,-0.001832,0.009072
1810,-0.008979,-0.001832,0.009072
1811,0.008122,-0.021098,0.009072
1812,0.008122,-0.001832,0.009072
1813,-0.008979,-0.021098,0.046465
1814,-0.008979,-0.040364,0.027769
1815,-0.008979,-0.040364,0.009072
1816,0.008122,-0.05963,0.009072
1817,-0.026081,-0.021098,0.027769
1818,-0.008979,0.0367,0.009072
1819,0.008122,0.055966,0.009072
1820,0.025223,0.0367,0.009072
1821,0.008122,0.017434,-0.028322
1822,0.008122,0.017434,0.009072
1823,0.008122,-0.021098,-0.028322
1824,-0.008979,0.0367,-0.009625
1825,0.025223,0.017434,-0.009625
1826,0.008122,0.055966,0.009072
1827,-0.008979,0.0367,0.009072
1828,0.025223,0.017434,0.065162
1829,0.025223,0.017434,0.065162
1830,0.008122,-0.001832,0.046465
1831,-0.008979,-0.021098,-0.047018
1832,-0.008979,-0.001832,-0.065715
1833,-0.008979,-0.040364,-0.084412
1834,-0.026081,-0.001832,-0.084412
1835,0.008122,-0.021098,-0.028322
1836,0.025223,-0.001832,-0.047018
1837,0.008122,0.017434,-0.009625
1838,0.008122,-0.001832,-0.009625
1839,0.008122,-0.001832,0.027769
1840,-0.008979,-0.001832,0.027769
1841,-0.008979,-0.040364,0.065162
1842,0.008122,-0.05963,0.102556
1843,0.008122,-0.040364,-0.009625
1844,0.008122,-0.040364,0.009072
1845,0.008122,-0.001832,0.046465
1846,-0.008979,0.017434,-0.009625
1847,-0.026081,0.017434,-0.009625
1848,-0.008979,0.055966,0.009072
1849,0.008122,0.017434,-0.028322
1850,-0.008979,-0.001832,-0.028322
1851,0.008122,0.017434,0.009072
1852,0.025223,0.017434,0.027769
1853,0.008122,0.0367,-0.009625
1854,0.008122,-0.021098,0.009072
1855,0.008122,-0.021098,-0.009625
1856,0.025223,-0.021098,-0.009625
1857,0.008122,-0.021098,-0.009625
1858,-0.008979,-0.021098,-0.009625
1859,0.008122,-0.040364,-0.009625
1860,0.008122,0.0367,0.009072
1861,-0.008979,0.075232,0.027769
1862,-0.008979,0.0367,0.009072
1863,-0.008979,-0.001832,0.027769
1864,-0.008979,-0.001832,0.009072
1865,-0.008979,-0.021098,0.009072
1866,0.008122,-0.001832,0.009072
1867,0.008122,-0.021098,0.027769
1868,-0.043182,-0.078896,-0.028322
1869,-0.008979,-0.040364,-0.028322
1870,-0.008979,-0.078896,-0.028322
1871,0.008122,-0.078896,0.009072
1872,0.025223,-0.001832,-0.047018
1873,0.025223,0.017434,-0.047018
1874,0.042325,0.094498,-0.009625
1875,0.008122,0.075232,-0.028322
1876,-0.008979,0.055966,-0.028322
1877,0.025223,0.075232,-0.009625
1878,0.025223,0.13303,0.065162
1879,0.025223,0.055966,0.046465
1880,-0.008979,0.0367,0.046465
1881,0.008122,-0.001832,0.009072
1882,-0.008979,-0.001832,0.046465
1883,-0.008979,0.0367,-0.009625
1884,-0.008979,0.017434,-0.009625
1885,-0.008979,0.0367,-0.009625
1886,0.025223,-0.001832,0.027769
1887,0.008122,0.017434,0.027769
1888,-0.008979,-0.021098,0.009072
1889,0.008122,0.017434,0.027769
1890,0.008122,-0.021098,0.027769
1891,0.008122,0.017434,-0.009625
1892,0.008122,-0.001832,-0.047018
1893,0.008122,-0.001832,0.009072
1894,0.025223,-0.001832,-0.009625
1895,-0.026081,0.017434,-0.009625
1896,0.008122,0.017434,0.027769
1897,0.008122,0.055966,0.046465
1898,0.025223,0.055966,0.046465
1899,-0.008979,-0.001832,0.046465
1900,0.008122,-0.021098,-0.009625
1901,-0.008979,-0.021098,-0.103109
1902,-0.008979,-0.001832,-0.103109
1903,-0.008979,0.017434,-0.028322
1904,0.008122,0.017434,0.009072
1905,0.008122,-0.001832,0.009072
1906,-0.008979,-0.040364,-0.009625
1907,-0.008979,-0.021098,-0.028322
1908,-0.026081,-0.001832,0.009072
1909,0.008122,-0.001832,-0.009625
1910,-0.008979,-0.021098,-0.009625
1911,-0.008979,-0.021098,-0.028322
1912,0.008122,-0.021098,0.027769
1913,0.008122,-0.040364,0.027769
1914,-0.008979,-0.05963,0.009072
1915,-0.008979,-0.021098,0.009072
1916,-0.008979,-0.001832,0.027769
1917,0.008122,0.017434,-0.009625
1918,0.008122,0.017434,0.027769
1919,0.008122,-0.001832,0.027769
1920,-0.008979,-0.001832,0.009072
1921,-0.008979,-0.021098,-0.028322
1922,0.008122,0.017434,-0.028322
1923,0.008122,0.055966,-0.009625
1924,0.025223,0.055966,-0.009625
1925,0.008122,0.055966,0.027769
1926,0.025223,0.0367,0.046465
1927,0.042325,0.017434,0.009072
1928,0.008122,0.017434,0.046465
1929,0.008122,0.017434,0.065162
1930,-0.008979,-0.001832,0.027769
1931,-0.008979,-0.040364,0.046465
1932,0.008122,-0.040364,0.046465
1933,-0.008979,-0.05963,0.046465
1934,-0.026081,-0.098162,0.027769
1935,-0.026081,-0.136694,0.009072
1936,0.025223,-0.098162,-0.047018
1937,0.008122,-0.05963,-0.047018
1938,0.008122,0.0367,-0.065715
1939,0.025223,0.094498,-0.084412
1940,-0.008979,0.094498,-0.065715
1941,0.008122,0.13303,-0.028322
1942,0.008122,0.113764,-0.009625
1943,0.025223,0.0367,0.027769
1944,0.008122,0.0367,-0.009625
1945,-0.008979,0.055966,-0.028322
1946,0.008122,0.017434,0.009072
1947,-0.008979,0.0367,-0.009625
1948,0.025223,0.017434,0.027769
1949,-0.008979,0.017434,0.009072
1950,0.025223,-0.021098,-0.009625
1951,-0.008979,-0.040364,0.046465
1952,-0.008979,-0.05963,0.065162
1953,0.008122,-0.078896,0.027769
1954,0.008122,-0.05963,0.046465
1955,-0.026081,-0.05963,0.027769
1956,-0.008979,-0.001832,-0.009625
1957,0.008122,0.017434,-0.047018
1958,0.042325,-0.001832,0.009072
1959,0.025223,-0.001832,-0.009625
1960,0.025223,0.017434,-0.028322
1961,-0.008979,0.0367,-0.009625
1962,-0.008979,0.0367,-0.047018
1963,0.025223,0.017434,-0.047018
1964,-0.008979,0.017434,0.027769
1965,0.008122,0.055966,0.046465
1966,0.008122,0.055966,0.009072
1967,-0.008979,0.0367,0.027769
1968,-0.008979,0.055966,0.027769
1969,-0.008979,0.017434,0.102556
1970,0.025223,-0.001832,-0.009625
1971,0.008122,-0.040364,0.009072
1972,-0.008979,-0.021098,0.009072
1973,0.008122,0.017434,-0.009625
1974,0.008122,0.0367,-0.028322
1975,0.008122,0.017434,-0.084412
1976,0.008122,-0.001832,-0.028322
1977,0.008122,-0.001832,0.009072
1978,0.008122,-0.001832,0.009072
1979,-0.008979,-0.001832,-0.009625
1980,0.008122,-0.001832,-0.009625
1981,-0.008979,-0.001832,0.009072
1982,-0.008979,-0.040364,0.009072
1983,0.008122,-0.040364,-0.009625
1984,0.025223,-0.021098,0.009072
1985,-0.008979,-0.021098,-0.028322
1986,-0.008979,-0.021098,-0.047018
1987,0.008122,-0.040364,-0.009625
1988,-0.008979,-0.001832,0.027769
1989,0.008122,0.0367,0.009072
1990,0.008122,0.055966,0.027769
1991,0.008122,0.0367,0.009072
1992,0.008122,-0.001832,0.009072
1993,-0.008979,-0.021098,0.027769
1994,0.008122,-0.001832,0.009072
1995,-0.008979,-0.021098,0.009072
1996,-0.008979,-0.001832,-0.009625
1997,0.008122,-0.001832,0.009072
1998,-0.008979,-0.021098,0.009072
1999,-0.008979,-0.001832,-0.009625
2000,0.008122,-0.021098,0.009072
2001,-0.008979,-0.021098,0.027769
2002,-0.026081,-0.001832,-0.009625
2003,0.008122,-0.001832,0.027769
2004,0.008122,-0.021098,0.027769
2005,0.008122,0.017434,-0.028322
2006,0.025223,0.017434,0.046465
2007,0.008122,0.0367,0.027769
2008,0.008122,0.017434,0.009072
2009,0.008122,-0.001832,-0.047018
2010,0.008122,-0.001832,-0.028322
2011,-0.008979,-0.001832,0.009072
2012,-0.008979,-0.001832,-0.028322
2013,0.008122,0.017434,0.027769
2014,0.008122,0.0367,0.065162
2015,-0.008979,-0.001832,0.065162
2016,-0.008979,-0.001832,0.102556
2017,-0.008979,-0.021098,0.121252
2018,-0.008979,-0.021098,0.046465
2019,0.008122,-0.05963,0.046465
2020,-0.008979,-0.078896,-0.065715
2021,0.008122,-0.098162,-0.103109
2022,-0.008979,-0.175226,-0.065715
2023,-0.026081,-0.117428,-0.047018
2024,-0.008979,-0.040364,-0.103109
2025,0.008122,0.017434,-0.121806
2026,-0.008979,0.13303,-0.047018
2027,0.008122,0.13303,-0.028322
2028,0.025223,0.210094,-0.028322
2029,0.025223,0.171562,0.009072
2030,0.025223,0.094498,0.046465
2031,0.025223,-0.001832,0.027769
2032,-0.008979,-0.040364,0.065162
2033,0.008122,-0.040364,0.065162
2034,-0.008979,-0.05963,0.027769
2035,0.008122,-0.001832,-0.009625
2036,-0.008979,0.017434,-0.009625
2037,-0.008979,0.094498,-0.028322
2038,0.008122,0.075232,-0.065715
2039,0.008122,0.017434,-0.028322
2040,0.008122,-0.001832,0.009072
2041,0.008122,-0.05963,0.009072
2042,0.025223,-0.05963,0.027769
2043,-0.026081,-0.040364,0.009072
2044,0.008122,-0.021098,0.027769
2045,-0.008979,-0.001832,0.046465
2046,0.008122,0.075232,-0.009625
2047,0.025223,0.113764,0.009072
2048,0.025223,0.075232,-0.009625
2049,-0.008979,0.055966,0.009072
2050,-0.008979,0.017434,-0.009625
2051,0.008122,-0.021098,-0.009625
2052,0.008122,-0.021098,-0.028322
2053,0.025223,-0.001832,0.027769
2054,0.008122,0.017434,-0.009625
2055,-0.008979,-0.040364,0.027769
2056,-0.008979,-0.040364,0.027769
2057,0.008122,-0.040364,0.027769
2058,0.008122,-0.001832,0.065162
2059,0.008122,0.0367,0.046465
2060,-0.008979,0.017434,0.009072
2061,-0.008979,-0.021098,-0.009625
2062,-0.008979,0.0367,-0.009625
2063,-0.008979,-0.001832,-0.065715
2064,-0.008979,-0.021098,-0.047018
2065,-0.026081,-0.021098,0.009072
2066,0.008122,-0.040364,0.027769
2067,-0.008979,-0.021098,-0.028322
2068,-0.008979,-0.040364,0.027769
2069,0.008122,-0.001832,0.009072
2070,0.008122,0.017434,-0.009625
2071,-0.008979,-0.05963,0.009072
2072,0.008122,-0.021098,0.009072
2073,0.025223,-0.040364,0.009072
2074,-0.008979,-0.001832,0.027769
2075,-0.008979,-0.021098,0.046465
2076,-0.008979,-0.001832,0.009072
2077,0.008122,0.017434,0.046465
2078,0.025223,0.055966,-0.009625
2079,0.008122,0.075232,-0.065715
2080,-0.026081,0.0367,0.009072
2081,0.008122,0.0367,0.046465
2082,0.008122,0.0367,0.027769
2083,-0.008979,-0.040364,0.009072
2084,-0.008979,-0.040364,-0.009625
2085,-0.008979,-0.05963,-0.009625
2086,0.008122,-0.021098,-0.009625
2087,-0.008979,0.0367,0.027769
2088,-0.008979,0.017434,0.027769
2089,-0.008979,0.017434,-0.028322
2090,-0.008979,0.0367,-0.009625
2091,0.008122,-0.001832,-0.009625
2092,0.008122,-0.001832,0.009072
2093,0.008122,0.017434,-0.028322
2094,0.008122,0.055966,-0.009625
2095,-0.008979,0.055966,-0.047018
2096,0.008122,0.055966,-0.028322
2097,-0.008979,0.017434,0.009072
2098,0.008122,0.017434,-0.009625
2099,-0.008979,-0.001832,-0.009625
2100,0.008122,-0.001832,0.009072
2101,-0.008979,-0.021098,0.027769
2102,0.008122,-0.001832,0.009072
2103,0.008122,-0.021098,0.009072
2104,-0.008979,0.017434,0.027769
2105,0.008122,-0.001832,0.009072
2106,0.008122,-0.001832,0.009072
2107,-0.008979,-0.021098,0.009072
2108,0.008122,-0.040364,-0.028322
2109,-0.008979,-0.001832,-0.009625
2110,-0.008979,-0.001832,0.009072
2111,0.008122,-0.001832,0.009072
2112,-0.008979,0.017434,0.009072
2113,0.008122,0.017434,0.046465
2114,-0.008979,-0.001832,0.046465
2115,-0.008979,-0.040364,0.046465
2116,-0.008979,-0.040364,0.027769
2117,0.008122,-0.021098,0.027769
2118,-0.008979,-0.001832,0.009072
2119,0.008122,0.055966,0.046465
2120,0.008122,0.0367,0.046465
2121,0.008122,0.055966,-0.009625
2122,0.025223,0.017434,-0.084412
2123,0.008122,0.017434,-0.028322
2124,0.008122,0.017434,-0.047018
2125,0.008122,-0.001832,-0.065715
2126,0.008122,-0.001832,-0.047018
2127,-0.026081,-0.001832,0.009072
2128,-0.008979,-0.001832,0.009072
2129,-0.026081,-0.001832,0.027769
2130,0.008122,-0.040364,0.046465
2131,0.025223,0.017434,0.046465
2132,0.008122,0.017434,0.083859
2133,0.008122,0.055966,0.065162
2134,0.025223,0.017434,0.009072
2135,-0.008979,-0.021098,0.009072
2136,-0.008979,-0.021098,-0.028322
2137,-0.008979,-0.05963,-0.103109
2138,0.025223,0.017434,-0.084412
2139,0.042325,0.0367,0.009072
2140,0.025223,-0.001832,0.009072
2141,0.008122,-0.021098,0.027769
2142,0.025223,-0.040364,0.046465
2143,0.008122,-0.098162,0.027769
2144,-0.008979,-0.117428,-0.009625
2145,-0.008979,-0.117428,0.027769
2146,-0.026081,-0.15596,-0.009625
2147,-0.026081,-0.117428,0.027769
2148,-0.008979,-0.001832,-0.009625
2149,0.008122,0.075232,0.027769
2150,-0.008979,0.152296,0.009072
2151,-0.008979,0.075232,0.046465
2152,-0.008979,0.13303,0.065162
2153,0.008122,0.190828,0.065162
2154,0.008122,0.13303,-0.047018
2155,0.008122,0.094498,-0.028322
2156,0.008122,0.055966,-0.065715
2157,0.025223,0.055966,-0.084412
2158,0.008122,0.113764,0.009072
2159,0.008122,0.075232,0.009072
2160,0.008122,-0.001832,-0.009625
2161,-0.008979,-0.021098,-0.028322
2162,0.008122,-0.001832,-0.028322
2163,0.008122,-0.021098,-0.028322
2164,0.008122,-0.021098,0.027769
2165,-0.026081,-0.001832,0.009072
2166,-0.008979,0.055966,0.027769
2167,-0.008979,0.055966,0.009072
2168,0.025223,0.055966,0.065162
2169,0.008122,0.0367,0.009072
2170,0.008122,-0.001832,-0.009625
2171,0.008122,-0.001832,0.009072
2172,-0.008979,-0.040364,-0.028322
2173,0.008122,-0.05963,-0.028322
2174,0.008122,-0.040364,0.009072
2175,-0.008979,-0.021098,0.009072
2176,-0.008979,-0.040364,-0.009625
2177,0.008122,0.0367,-0.009625
2178,0.025223,0.055966,0.046465
2179,0.008122,0.0367,0.046465
2180,-0.008979,-0.001832,0.027769
2181,-0.008979,-0.021098,0.046465
2182,0.008122,0.017434,0.009072
2183,-0.008979,-0.001832,-0.009625
2184,0.008122,-0.021098,0.027769
2185,0.008122,-0.001832,-0.009625
2186,0.008122,-0.001832,-0.009625
2187,0.008122,-0.040364,-0.009625
2188,0.008122,-0.040364,0.009072
2189,-0.008979,-0.001832,-0.009625
2190,-0.008979,-0.001832,0.009072
2191,0.008122,-0.001832,0.009072
2192,-0.008979,0.0367,0.009072
2193,0.008122,-0.001832,0.027769
2194,-0.026081,-0.001832,0.046465
2195,-0.008979,-0.021098,-0.009625
2196,-0.008979,-0.021098,-0.009625
2197,0.008122,-0.001832,0.027769
2198,-0.008979,-0.001832,0.009072
2199,-0.008979,-0.001832,-0.028322
2200,-0.008979,0.017434,-0.028322
2201,-0.008979,0.017434,0.009072
2202,0.008122,0.0367,-0.009625
2203,0.008122,-0.021098,0.046465
2204,0.008122,-0.021098,0.065162
2205,-0.008979,-0.040364,0.046465
2206,0.008122,-0.021098,0.046465
2207,0.008122,0.017434,0.046465
2208,-0.008979,0.017434,0.009072
2209,-0.008979,0.0367,-0.028322
2210,-0.008979,0.055966,-0.084412
2211,0.008122,0.017434,-0.047018
2212,-0.008979,-0.001832,-0.028322
2213,-0.008979,-0.040364,0.009072
2214,0.008122,-0.021098,0.046465
2215,0.008122,-0.040364,-0.009625
2216,-0.008979,-0.001832,-0.009625
2217,0.008122,-0.021098,-0.047018
2218,-0.008979,-0.040364,-0.028322
2219,0.008122,0.017434,-0.047018
2220,0.008122,0.0367,-0.028322
2221,0.008122,0.055966,-0.009625
2222,-0.008979,0.017434,0.009072
2223,-0.008979,-0.001832,0.027769
2224,0.008122,-0.001832,0.027769
2225,-0.008979,-0.021098,0.009072
2226,0.008122,-0.040364,0.009072
2227,0.008122,-0.040364,0.027769
2228,0.025223,-0.040364,-0.047018
2229,0.008122,-0.05963,-0.028322
2230,-0.008979,-0.040364,0.009072
2231,-0.008979,-0.021098,0.027769
2232,0.025223,0.017434,0.027769
2233,-0.008979,0.094498,0.027769
2234,-0.008979,0.0367,-0.009625
2235,-0.008979,0.113764,-0.009625
2236,0.008122,0.113764,-0.009625
2237,0.025223,0.0367,-0.009625
2238,0.025223,0.017434,-0.009625
2239,0.025223,-0.001832,-0.009625
2240,-0.008979,-0.040364,0.009072
2241,-0.008979,-0.117428,-0.028322
2242,-0.008979,-0.117428,0.009072
2243,-0.008979,-0.05963,0.027769
2244,-0.026081,-0.040364,0.046465
2245,-0.008979,-0.021098,0.009072
2246,0.025223,0.0367,0.046465
2247,0.008122,0.094498,0.027769
2248,-0.008979,0.075232,-0.009625
2249,-0.026081,0.017434,-0.009625
2250,0.008122,0.055966,0.009072
2251,0.008122,0.0367,-0.028322
2252,0.008122,0.055966,-0.084412
2253,0.025223,0.0367,-0.028322
2254,0.008122,0.055966,0.009072
2255,0.008122,0.055966,0.009072
2256,-0.008979,0.0367,0.027769
2257,0.008122,0.0367,0.027769
2258,0.008122,0.017434,-0.009625
2259,-0.008979,0.017434,0.027769
2260,0.008122,-0.001832,0.027769
2261,0.008122,0.017434,0.027769
2262,0.008122,-0.001832,0.027769
2263,-0.008979,-0.021098,0.046465
2264,-0.008979,-0.021098,0.009072
2265,-0.008979,-0.001832,-0.009625
2266,0.025223,-0.001832,0.009072
2267,0.008122,0.017434,-0.028322
2268,-0.043182,0.017434,-0.009625
2269,-0.008979,0.017434,0.027769
2270,0.008122,0.017434,0.065162
2271,0.008122,-0.001832,0.009072
2272,0.008122,-0.021098,0.027769
2273,0.008122,0.017434,0.027769
2274,0.025223,-0.001832,-0.009625
2275,0.025223,-0.001832,-0.009625
2276,-0.008979,-0.001832,-0.047018
2277,-0.008979,-0.001832,-0.009625
2278,-0.026081,-0.021098,-0.009625
2279,-0.008979,-0.021098,0.009072
2280,-0.008979,-0.040364,0.009072
2281,-0.026081,-0.098162,-0.028322
2282,-0.008979,-0.117428,0.009072
2283,-0.008979,-0.078896,0.027769
2284,-0.008979,-0.05963,0.009072
2285,-0.008979,-0.021098,0.027769
2286,0.008122,0.075232,-0.009625
2287,0.025223,0.13303,-0.084412
2288,0.025223,0.13303,-0.065715
2289,0.025223,0.094498,-0.047018
2290,0.025223,0.055966,-0.028322
2291,0.008122,-0.001832,-0.028322
2292,0.008122,0.017434,0.046465
2293,-0.008979,0.0367,0.046465
2294,-0.008979,0.0367,-0.028322
2295,-0.026081,0.0367,-0.009625
2296,-0.008979,-0.001832,0.027769
2297,-0.008979,0.017434,0.027769
2298,0.008122,-0.001832,0.027769
2299,-0.008979,-0.001832,0.046465
2300,-0.008979,-0.05963,0.009072
2301,-0.008979,-0.040364,-0.009625
2302,0.008122,0.055966,0.027769
2303,-0.008979,0.017434,-0.009625
2304,-0.008979,-0.021098,-0.047018
2305,-0.008979,-0.001832,-0.009625
2306,-0.026081,-0.040364,0.009072
2307,0.008122,-0.001832,-0.028322
2308,-0.008979,0.0367,-0.009625
2309,0.008122,0.094498,0.027769
2310,-0.008979,0.055966,0.027769
2311,-0.008979,0.017434,0.027769
2312,-0.008979,0.017434,0.046465
2313,-0.043182,-0.001832,-0.009625
2314,-0.008979,-0.001832,-0.009625
2315,0.008122,-0.021098,-0.009625
2316,0.008122,-0.021098,0.009072
2317,-0.008979,0.017434,-0.009625
2318,0.008122,0.0367,0.027769
2319,0.025223,0.017434,0.027769
2320,0.008122,-0.001832,0.027769
2321,-0.008979,0.094498,0.027769
2322,-0.008979,-0.001832,-0.028322
2323,-0.008979,-0.021098,-0.009625
2324,0.025223,-0.021098,-0.065715
2325,0.008122,-0.021098,0.009072
2326,0.008122,-0.040364,-0.009625
2327,0.008122,-0.001832,0.027769
2328,0.008122,-0.001832,-0.009625
2329,-0.008979,0.017434,-0.009625
2330,-0.008979,-0.001832,-0.009625
2331,-0.008979,-0.001832,0.009072
2332,0.008122,0.017434,-0.028322
2333,0.008122,0.017434,-0.028322
2334,0.008122,-0.040364,-0.009625
2335,0.008122,-0.05963,0.027769
2336,0.008122,-0.040364,0.027769
2337,0.008122,0.017434,0.009072
2338,0.008122,0.0367,0.027769
2339,-0.008979,0.075232,0.009072
2340,0.008122,0.0367,-0.009625
2341,0.008122,0.055966,-0.009625
2342,0.025223,0.017434,0.027769
2343,0.025223,0.017434,-0.028322
2344,0.008122,0.017434,-0.009625
2345,-0.008979,0.017434,0.102556
2346,0.008122,0.017434,0.027769
2347,-0.008979,0.017434,-0.009625
2348,-0.008979,-0.021098,-0.009625
2349,0.008122,-0.001832,0.027769
2350,-0.026081,-0.021098,0.009072
2351,0.008122,-0.040364,0.009072
2352,-0.026081,-0.05963,-0.009625
2353,-0.008979,-0.040364,-0.009625
2354,-0.008979,-0.021098,-0.009625
2355,-0.008979,-0.021098,0.027769
2356,-0.008979,-0.040364,-0.009625
2357,-0.008979,-0.05963,-0.028322
2358,-0.008979,-0.001832,-0.009625
2359,0.008122,0.0367,-0.009625
2360,0.008122,0.055966,-0.047018
2361,0.008122,0.0367,0.009072
2362,0.008122,0.017434,0.027769
2363,0.008122,-0.001832,-0.009625
2364,-0.008979,0.017434,-0.028322
2365,0.008122,-0.001832,0.046465
2366,-0.008979,-0.021098,0.009072
2367,-0.008979,-0.021098,-0.028322
2368,0.008122,0.017434,0.009072
2369,-0.008979,0.0367,-0.009625
2370,-0.008979,0.0367,-0.009625
2371,0.008122,0.017434,0.009072
2372,0.008122,0.017434,0.027769
2373,0.008122,-0.040364,-0.009625
2374,0.008122,-0.001832,0.027769
2375,0.008122,-0.021098,0.027769
2376,0.008122,-0.021098,-0.009625
2377,-0.008979,-0.001832,-0.009625
2378,0.008122,0.055966,0.027769
2379,0.008122,0.075232,0.046465
2380,-0.008979,0.075232,0.027769
2381,0.008122,0.017434,0.027769
2382,0.008122,-0.021098,-0.009625
2383,-0.008979,-0.040364,-0.028322
2384,-0.008979,-0.098162,-0.009625
2385,-0.026081,-0.05963,-0.009625
2386,0.008122,-0.040364,0.027769
2387,0.008122,0.017434,0.046465
2388,0.008122,0.017434,0.046465
2389,0.008122,0.0367,0.009072
2390,0.008122,0.094498,-0.047018
2391,-0.008979,0.075232,-0.028322
2392,0.025223,0.055966,-0.028322
2393,0.008122,0.0367,-0.084412
2394,0.008122,0.017434,-0.028322
2395,0.008122,-0.001832,-0.009625
2396,-0.008979,-0.001832,-0.028322
2397,-0.008979,0.017434,0.009072
2398,0.008122,-0.021098,0.027769
2399,-0.008979,-0.001832,0.009072
2400,0.008122,-0.001832,0.009072
2401,-0.008979,-0.001832,0.046465
2402,0.008122,-0.001832,0.046465
2403,0.008122,-0.001832,0.009072
2404,0.025223,0.017434,0.027769
2405,-0.008979,0.017434,0.009072
2406,-0.008979,0.017434,-0.065715
2407,-0.008979,-0.021098,-0.121806
2408,0.008122,-0.001832,-0.009625
2409,0.025223,0.0367,-0.028322
2410,0.008122,-0.001832,0.009072
2411,-0.008979,0.0367,0.027769
2412,-0.026081,-0.021098,0.046465
2413,-0.026081,-0.001832,0.027769
2414,-0.008979,0.017434,0.046465
2415,0.008122,-0.001832,0.009072
2416,-0.008979,-0.001832,0.009072
2417,-0.008979,-0.040364,0.009072
2418,-0.008979,-0.040364,0.009072
2419,0.008122,-0.001832,-0.047018
2420,0.008122,-0.078896,-0.028322
2421,-0.008979,-0.040364,-0.009625
2422,-0.008979,-0.001832,-0.047018
2423,0.025223,0.017434,-0.028322
2424,0.008122,0.0367,-0.009625
2425,0.008122,0.055966,0.009072
2426,0.008122,0.055966,0.009072
2427,-0.008979,0.017434,0.083859
2428,0.008122,0.017434,-0.009625
2429,-0.008979,0.017434,0.009072
2430,-0.043182,-0.001832,0.009072
2431,0.008122,0.017434,-0.009625
2432,0.008122,0.017434,-0.028322
2433,-0.008979,-0.001832,0.009072
2434,-0.008979,-0.001832,0.009072
2435,-0.008979,-0.001832,-0.047018
2436,-0.008979,-0.040364,-0.009625
2437,-0.008979,-0.05963,-0.009625
2438,-0.008979,-0.040364,-0.009625
2439,0.025223,-0.001832,0.009072
2440,0.008122,0.017434,0.027769
2441,-0.008979,0.0367,0.046465
2442,-0.043182,0.0367,0.009072
2443,-0.008979,-0.001832,-0.028322
2444,0.008122,-0.040364,-0.009625
2445,0.008122,-0.05963,-0.028322
2446,-0.008979,-0.05963,-0.009625
2447,0.008122,-0.021098,0.009072
2448,0.008122,0.017434,-0.009625
2449,0.008122,0.055966,0.009072
2450,0.008122,0.075232,0.027769
2451,0.025223,0.094498,0.046465
2452,0.025223,0.017434,-0.047018
2453,0.008122,-0.001832,-0.009625
2454,0.008122,-0.001832,0.009072
2455,-0.008979,-0.040364,0.009072
2456,0.025223,-0.001832,0.009072
2457,0.008122,-0.040364,0.027769
2458,0.008122,-0.021098,-0.009625
2459,0.008122,-0.05963,-0.028322
2460,-0.008979,-0.040364,-0.047018
2461,0.008122,-0.001832,-0.047018
2462,-0.008979,0.0367,0.009072
2463,0.008122,0.113764,0.027769
2464,0.008122,0.075232,0.027769
2465,-0.008979,0.055966,0.027769
2466,0.008122,0.075232,0.046465
2467,-0.008979,0.0367,0.009072
2468,-0.008979,0.0367,-0.009625
2469,0.025223,-0.040364,-0.009625
2470,0.008122,-0.078896,-0.009625
2471,0.008122,-0.098162,-0.009625
2472,-0.008979,-0.05963,0.009072
2473,0.008122,-0.001832,0.065162
2474,-0.026081,0.0367,0.046465
2475,-0.008979,0.094498,0.009072
2476,0.008122,0.171562,-0.009625
2477,-0.008979,0.094498,0.009072
2478,-0.008979,-0.001832,-0.047018
2479,0.008122,0.017434,-0.028322
2480,0.025223,0.055966,-0.009625
2481,0.008122,0.0367,0.009072
2482,-0.008979,-0.001832,0.009072
2483,0.008122,-0.040364,-0.009625
2484,-0.008979,0.0367,-0.028322
2485,0.008122,0.017434,0.009072
2486,0.008122,0.017434,-0.009625
2487,0.008122,-0.001832,-0.009625
2488,0.008122,-0.001832,-0.028322
2489,0.008122,-0.001832,0.009072
2490,0.008122,0.017434,0.027769
2491,0.025223,0.017434,0.009072
2492,-0.008979,-0.021098,0.046465
2493,0.008122,-0.001832,0.027769
2494,0.008122,-0.040364,-0.009625
2495,-0.008979,-0.098162,-0.009625
2496,-0.008979,-0.05963,0.027769
2497,-0.008979,-0.021098,-0.009625
2498,0.008122,-0.001832,-0.009625
2499,0.008122,0.017434,-0.009625
2500,0.008122,0.0367,0.009072
2501,-0.008979,0.075232,0.009072
2502,0.008122,0.055966,0.027769
2503,0.008122,0.017434,0.027769
2504,-0.008979,0.017434,0.046465
2505,0.008122,-0.001832,0.083859
2506,-0.008979,0.0367,0.027769
2507,0.008122,-0.001832,0.009072
2508,0.008122,-0.021098,-0.028322
2509,-0.008979,-0.001832,-0.047018
2510,-0.008979,-0.001832,-0.047018
2511,-0.008979,-0.040364,-0.065715
2512,-0.008979,-0.040364,-0.028322
2513,0.008122,-0.001832,0.027769
2514,-0.008979,-0.001832,0.009072
2515,0.008122,0.017434,0.009072
2516,-0.008979,0.017434,0.046465
2517,0.008122,-0.001832,-0.009625
2518,0.008122,-0.001832,0.009072
2519,0.008122,-0.001832,0.009072
2520,0.008122,-0.001832,0.027769
2521,-0.008979,-0.001832,-0.028322
2522,-0.008979,-0.001832,-0.028322
2523,0.008122,0.017434,-0.028322
2524,-0.008979,0.017434,-0.028322
2525,-0.008979,-0.001832,0.009072
2526,-0.008979,-0.021098,0.065162
2527,-0.008979,-0.001832,0.065162
2528,-0.008979,-0.001832,0.046465
2529,-0.008979,-0.021098,0.027769
2530,0.008122,0.017434,0.027769
2531,0.025223,0.0367,-0.028322
2532,-0.008979,0.017434,0.009072
2533,0.025223,-0.001832,0.009072
2534,0.025223,-0.040364,-0.009625
2535,0.008122,-0.021098,-0.065715
2536,0.008122,-0.021098,-0.084412
2537,-0.008979,-0.040364,-0.065715
2538,-0.008979,-0.021098,-0.009625
2539,0.008122,0.017434,-0.028322
2540,-0.008979,-0.001832,-0.009625
2541,-0.026081,0.0367,-0.028322
2542,0.008122,0.017434,0.009072
2543,0.008122,0.017434,0.009072
2544,-0.008979,-0.021098,-0.009625
2545,-0.008979,-0.040364,0.027769
2546,-0.008979,-0.040364,0.027769
2547,-0.008979,-0.040364,-0.009625
2548,-0.008979,-0.040364,-0.009625
2549,-0.008979,-0.021098,-0.009625
2550,-0.008979,-0.021098,0.009072
2551,0.008122,-0.001832,0.009072
2552,0.008122,0.0367,0.027769
2553,-0.026081,-0.001832,0.009072
2554,0.008122,-0.021098,-0.009625
2555,0.008122,0.0367,0.009072
2556,0.008122,0.017434,0.009072
2557,0.025223,0.055966,-0.009625
2558,0.008122,0.055966,0.009072
2559,0.008122,0.017434,0.009072
2560,0.025223,-0.001832,0.009072
2561,0.008122,0.017434,0.009072
2562,-0.008979,0.0367,0.009072
2563,-0.008979,0.0367,0.009072
2564,0.008122,0.0367,0.027769
2565,0.025223,0.055966,0.027769
2566,0.025223,0.055966,0.027769
2567,0.025223,0.075232,-0.009625
2568,0.025223,0.0367,0.009072
2569,0.025223,0.017434,0.009072
2570,0.025223,0.017434,-0.009625
2571,0.008122,0.017434,-0.009625
2572,-0.008979,-0.078896,-0.047018
2573,0.008122,-0.040364,-0.028322
2574,-0.008979,-0.021098,0.009072
2575,-0.008979,-0.001832,0.027769
2576,0.008122,0.017434,-0.009625
2577,-0.008979,0.017434,0.009072
2578,-0.008979,-0.001832,0.027769
2579,0.025223,0.0367,0.027769
2580,-0.008979,0.0367,0.009072
2581,-0.008979,0.0367,0.027769
2582,-0.008979,-0.001832,-0.009625
2583,-0.008979,-0.021098,-0.009625
2584,-0.008979,-0.001832,-0.009625
2585,0.008122,-0.040364,-0.009625
2586,0.025223,-0.021098,-0.009625
2587,0.008122,-0.001832,-0.009625
2588,0.008122,-0.021098,0.009072
2589,-0.008979,-0.040364,-0.028322
2590,0.008122,-0.001832,0.027769
2591,0.008122,-0.040364,0.046465
2592,0.008122,-0.001832,0.065162
2593,0.008122,-0.001832,0.046465
2594,0.008122,-0.001832,0.027769
2595,-0.026081,-0.001832,-0.009625
2596,-0.026081,0.055966,-0.047018
2597,0.008122,0.0367,-0.047018
2598,0.008122,0.017434,-0.009625
2599,0.008122,-0.001832,-0.009625
2600,0.008122,-0.001832,-0.028322
2601,0.008122,0.017434,-0.009625
2602,-0.008979,-0.021098,-0.047018
2603,0.008122,-0.001832,-0.028322
2604,-0.008979,0.017434,-0.009625
2605,0.008122,0.0367,0.046465
2606,0.008122,-0.001832,0.009072
2607,-0.008979,-0.001832,0.046465
2608,0.025223,0.017434,0.009072
2609,-0.026081,0.017434,-0.028322
2610,0.008122,0.0367,0.009072
2611,0.008122,-0.001832,-0.047018
2612,-0.008979,-0.001832,-0.065715
2613,-0.026081,-0.001832,-0.009625
2614,-0.008979,0.017434,0.009072
2615,0.008122,-0.021098,-0.047018
2616,-0.008979,-0.05963,0.009072
2617,-0.008979,-0.078896,0.009072
2618,0.008122,-0.05963,0.046465
2619,-0.008979,-0.040364,-0.009625
2620,-0.008979,-0.001832,0.027769
2621,0.008122,-0.001832,-0.009625
2622,-0.008979,0.017434,0.009072
2623,0.008122,0.055966,-0.009625
2624,0.025223,0.094498,0.009072
2625,-0.008979,0.017434,-0.009625
2626,0.008122,-0.001832,0.027769
2627,0.008122,0.017434,0.009072
2628,0.008122,0.055966,0.009072
2629,0.008122,0.075232,-0.065715
2630,-0.008979,0.0367,-0.047018
2631,-0.026081,0.017434,0.009072
2632,-0.008979,0.0367,-0.009625
2633,0.008122,-0.001832,0.009072
2634,0.008122,-0.021098,0.027769
2635,0.008122,-0.001832,0.027769
2636,0.008122,-0.021098,-0.028322
2637,-0.008979,-0.001832,-0.009625
2638,0.008122,-0.001832,-0.009625
2639,0.025223,-0.021098,-0.009625
2640,0.008122,0.017434,0.009072
2641,0.025223,0.0367,0.027769
2642,0.008122,-0.040364,-0.028322
2643,-0.008979,-0.021098,-0.009625
2644,0.008122,-0.001832,-0.009625
2645,-0.008979,-0.001832,-0.009625
2646,0.008122,-0.001832,0.009072
2647,0.008122,-0.001832,0.009072
2648,0.008122,-0.021098,-0.009625
2649,-0.008979,0.017434,-0.028322
2650,-0.026081,0.0367,0.009072
2651,0.008122,0.017434,0.027769
2652,-0.008979,-0.001832,0.009072
2653,0.008122,-0.001832,0.027769
2654,0.008122,0.017434,-0.009625
2655,0.008122,-0.001832,-0.028322
2656,0.008122,-0.001832,0.027769
2657,0.008122,0.0367,-0.009625
2658,0.008122,-0.021098,-0.009625
2659,-0.008979,-0.001832,0.027769
2660,0.008122,-0.040364,0.009072
2661,0.008122,-0.05963,-0.009625
2662,0.008122,-0.078896,-0.028322
2663,-0.008979,-0.05963,0.027769
2664,-0.008979,0.017434,-0.047018
2665,-0.008979,0.017434,-0.009625
2666,-0.008979,0.055966,0.009072
2667,-0.008979,0.075232,0.046465
2668,0.025223,0.075232,-0.009625
2669,0.025223,0.055966,0.027769
2670,0.008122,0.017434,0.027769
2671,0.008122,0.017434,-0.028322
2672,-0.008979,-0.021098,-0.047018
2673,-0.008979,-0.05963,0.009072
2674,-0.008979,-0.021098,0.009072
2675,0.008122,-0.001832,-0.009625
2676,0.008122,0.0367,0.027769
2677,0.008122,-0.001832,0.009072
2678,-0.008979,-0.021098,0.009072
2679,-0.008979,-0.078896,0.009072
2680,-0.008979,-0.05963,0.046465
2681,0.008122,-0.021098,0.009072
2682,0.008122,0.055966,0.009072
2683,0.008122,0.075232,0.065162
2684,0.025223,0.094498,0.046465
2685,0.008122,0.075232,-0.009625
2686,0.008122,0.075232,-0.009625
2687,0.008122,-0.001832,-0.009625
2688,0.008122,-0.021098,-0.047018
2689,0.008122,-0.001832,-0.047018
2690,0.008122,-0.001832,-0.047018
2691,-0.008979,-0.078896,-0.009625
2692,0.008122,-0.078896,-0.028322
2693,0.025223,-0.040364,0.027769
2694,0.025223,-0.040364,0.027769
2695,-0.026081,-0.021098,0.027769
2696,-0.008979,0.017434,0.027769
2697,-0.026081,0.094498,-0.009625
2698,0.008122,0.152296,-0.047018
2699,0.008122,0.13303,0.009072
2700,0.008122,0.055966,-0.009625
2701,0.008122,0.017434,-0.028322
2702,-0.008979,-0.001832,0.009072
2703,0.008122,0.017434,-0.028322
2704,0.008122,-0.001832,-0.028322
2705,-0.008979,0.017434,-0.009625
2706,-0.008979,-0.021098,0.027769
2707,0.008122,-0.001832,0.009072
2708,0.008122,-0.021098,0.009072
2709,0.008122,0.017434,0.009072
2710,0.008122,0.017434,-0.009625
2711,0.008122,0.017434,0.009072
2712,0.008122,0.017434,0.027769
2713,0.008122,-0.001832,-0.009625
2714,0.008122,-0.001832,-0.009625
2715,0.008122,-0.021098,0.009072
2716,-0.008979,-0.001832,0.009072
2717,-0.008979,-0.001832,0.009072
2718,-0.008979,-0.021098,0.027769
2719,-0.008979,-0.001832,0.046465
2720,-0.008979,-0.021098,0.009072
2721,0.008122,-0.001832,0.009072
2722,0.008122,0.055966,0.027769
2723,0.008122,0.017434,0.009072
2724,0.008122,0.017434,-0.028322
2725,-0.026081,-0.05963,-0.047018
2726,-0.008979,-0.021098,-0.047018
2727,-0.008979,0.017434,-0.009625
2728,0.008122,-0.001832,0.009072
2729,0.008122,-0.001832,0.009072
2730,-0.026081,-0.040364,-0.009625
2731,-0.008979,-0.001832,0.027769
2732,-0.008979,0.017434,0.027769
2733,0.008122,-0.001832,0.009072
2734,0.008122,-0.001832,0.046465
2735,-0.008979,-0.001832,0.009072
2736,0.025223,-0.001832,-0.009625
2737,0.008122,0.017434,-0.028322
2738,0.008122,-0.001832,-0.009625
2739,0.008122,-0.001832,-0.028322
2740,0.008122,0.017434,-0.028322
2741,0.008122,-0.001832,-0.009625
2742,-0.008979,0.017434,0.027769
2743,0.008122,0.017434,0.027769
2744,-0.008979,0.017434,0.065162
2745,-0.008979,-0.001832,0.065162
2746,0.008122,0.017434,0.027769
2747,0.008122,-0.001832,0.046465
2748,-0.008979,-0.001832,-0.047018
2749,-0.026081,-0.021098,-0.047018
2750,-0.008979,-0.021098,-0.084412
2751,0.008122,-0.021098,-0.009625
2752,0.008122,-0.001832,-0.028322
2753,0.008122,0.0367,0.009072
2754,0.025223,0.0367,0.027769
2755,0.008122,0.0367,0.065162
2756,0.008122,0.017434,0.046465
2757,0.008122,-0.001832,0.046465
2758,0.008122,0.0367,0.065162
2759,0.008122,0.017434,-0.009625
2760,0.008122,-0.001832,-0.028322
2761,0.008122,0.017434,0.009072
2762,-0.008979,0.017434,-0.047018
2763,-0.008979,0.017434,-0.065715
2764,-0.008979,0.017434,-0.028322
2765,0.008122,0.017434,-0.009625
2766,0.008122,-0.001832,0.009072
2767,0.008122,-0.021098,0.009072
2768,0.008122,0.017434,0.046465
2769,0.008122,-0.001832,0.083859
2770,-0.008979,0.017434,0.046465
2771,-0.008979,-0.001832,0.027769
2772,-0.008979,-0.040364,-0.028322
2773,-0.008979,-0.040364,-0.047018
2774,-0.008979,0.017434,-0.028322
2775,0.008122,-0.001832,-0.047018
2776,0.008122,-0.001832,-0.009625
2777,-0.008979,-0.05963,0.009072
2778,-0.008979,-0.05963,-0.009625
2779,-0.008979,-0.021098,-0.047018
2780,-0.008979,0.017434,-0.028322
2781,-0.008979,0.017434,0.009072
2782,-0.008979,0.0367,-0.028322
2783,-0.008979,0.055966,0.027769
2784,0.008122,0.094498,0.027769
2785,0.025223,0.055966,0.009072
2786,-0.008979,0.017434,-0.028322
2787,0.025223,-0.040364,-0.009625
2788,0.008122,-0.040364,-0.009625
2789,-0.026081,-0.05963,-0.028322
2790,0.025223,-0.021098,0.027769
2791,0.008122,0.017434,-0.028322
2792,-0.008979,0.094498,0.009072
2793,-0.008979,0.075232,0.009072
2794,0.008122,0.094498,-0.009625
2795,-0.008979,0.094498,0.009072
2796,0.008122,0.0367,0.009072
2797,0.008122,0.055966,0.027769
2798,0.008122,-0.001832,0.027769
2799,-0.008979,-0.001832,-0.009625
2800,-0.008979,-0.021098,0.009072
2801,0.008122,-0.021098,-0.009625
2802,-0.008979,-0.021098,-0.028322
2803,0.008122,-0.040364,0.009072
2804,0.008122,-0.040364,0.027769
2805,0.008122,-0.05963,0.027769
2806,-0.008979,-0.040364,0.027769
2807,0.008122,-0.040364,0.046465
2808,0.008122,-0.05963,-0.009625
2809,-0.008979,-0.021098,0.027769
2810,-0.008979,0.0367,0.046465
2811,0.008122,0.0367,0.009072
2812,0.008122,0.094498,-0.028322
2813,0.008122,0.055966,-0.009625
2814,0.008122,0.0367,-0.009625
2815,-0.008979,-0.021098,-0.028322
2816,-0.008979,-0.021098,-0.009625
2817,-0.008979,-0.05963,0.027769
2818,0.025223,-0.078896,-0.009625
2819,-0.008979,-0.040364,0.027769
2820,0.025223,-0.021098,0.027769
2821,-0.026081,-0.001832,0.009072
2822,0.008122,0.017434,-0.009625
2823,-0.008979,0.017434,-0.028322
2824,0.008122,0.075232,-0.028322
2825,-0.008979,0.055966,-0.028322
2826,0.008122,0.0367,0.009072
2827,0.008122,0.017434,-0.009625
2828,0.008122,0.0367,-0.009625
2829,-0.008979,0.0367,-0.009625
2830,-0.008979,-0.001832,-0.009625
2831,0.008122,-0.001832,-0.028322
2832,0.025223,-0.021098,-0.009625
2833,0.008122,-0.001832,0.009072
2834,0.008122,-0.001832,-0.009625
2835,-0.008979,-0.001832,0.027769
2836,0.008122,0.017434,0.009072
2837,0.008122,-0.040364,0.009072
2838,0.008122,-0.001832,-0.009625
2839,0.008122,-0.021098,0.027769
2840,0.008122,-0.001832,0.027769
2841,0.008122,-0.001832,-0.009625
2842,0.008122,-0.001832,0.027769
2843,-0.008979,-0.001832,0.027769
2844,0.008122,-0.001832,-0.028322
2845,0.008122,0.017434,0.046465
2846,-0.008979,-0.001832,0.046465
2847,0.008122,-0.001832,0.027769
2848,0.008122,-0.001832,0.027769
2849,-0.008979,-0.001832,0.027769
2850,-0.008979,-0.040364,-0.028322
2851,-0.008979,-0.021098,-0.084412
2852,0.008122,-0.021098,-0.065715
2853,-0.008979,-0.001832,-0.028322
2854,0.025223,-0.001832,-0.009625
2855,0.008122,0.0367,0.009072
2856,-0.008979,0.017434,0.046465
2857,-0.008979,0.017434,0.009072
2858,0.008122,0.017434,0.046465
2859,-0.008979,0.017434,0.065162
2860,0.008122,0.017434,-0.009625
2861,-0.008979,-0.021098,-0.047018
2862,0.008122,0.017434,-0.009625
2863,0.025223,0.017434,-0.009625
2864,-0.008979,0.017434,-0.047018
2865,0.008122,0.017434,-0.028322
2866,-0.008979,-0.021098,-0.047018
2867,0.008122,-0.001832,-0.065715
2868,0.008122,-0.05963,-0.028322
2869,-0.008979,-0.040364,-0.009625
2870,0.008122,-0.021098,0.009072
2871,-0.008979,-0.001832,0.009072
2872,0.008122,0.017434,0.046465
2873,0.008122,0.017434,0.027769
2874,0.008122,0.017434,0.083859
2875,-0.008979,0.0367,0.046465
2876,0.008122,-0.001832,0.046465
2877,-0.008979,0.055966,-0.009625
2878,-0.008979,0.017434,0.009072
2879,-0.008979,0.017434,-0.028322
2880,0.025223,-0.021098,-0.047018
2881,0.008122,-0.001832,-0.009625
2882,0.008122,-0.001832,0.027769
2883,0.008122,-0.021098,-0.028322
2884,-0.008979,-0.001832,0.027769
2885,0.008122,-0.001832,0.046465
2886,0.025223,0.017434,-0.009625
2887,-0.008979,-0.040364,-0.028322
2888,-0.008979,-0.001832,0.009072
2889,0.008122,-0.021098,0.009072
2890,-0.008979,-0.040364,0.009072
2891,0.008122,-0.078896,-0.009625
2892,0.008122,-0.05963,-0.009625
2893,-0.026081,-0.040364,-0.028322
2894,-0.008979,0.017434,-0.047018
2895,0.025223,0.055966,-0.009625
2896,0.025223,0.055966,-0.009625
2897,-0.008979,0.055966,0.027769
2898,-0.008979,0.017434,0.027769
2899,0.008122,-0.021098,0.009072
2900,0.008122,-0.001832,0.046465
2901,-0.008979,-0.001832,0.009072
2902,0.008122,-0.021098,-0.009625
2903,0.008122,0.055966,-0.009625
2904,0.025223,0.055966,-0.028322
2905,0.008122,0.055966,-0.028322
2906,-0.008979,0.0367,0.009072
2907,0.008122,-0.001832,0.027769
2908,0.025223,0.017434,0.027769
2909,-0.008979,-0.021098,0.046465
2910,-0.026081,0.017434,0.046465
2911,-0.008979,0.017434,0.027769
2912,-0.008979,-0.021098,0.027769
2913,-0.008979,0.017434,0.046465
2914,-0.026081,-0.021098,-0.028322
2915,0.008122,-0.078896,-0.028322
2916,0.008122,-0.098162,-0.047018
2917,0.008122,-0.098162,-0.028322
2918,-0.008979,-0.078896,-0.028322
2919,0.008122,-0.001832,-0.009625
2920,-0.026081,0.0367,0.009072
2921,0.008122,0.075232,0.046465
2922,0.008122,0.171562,0.027769
2923,0.008122,0.13303,0.046465
2924,0.025223,0.055966,0.009072
2925,-0.008979,0.017434,-0.009625
2926,-0.008979,0.017434,0.027769
2927,0.008122,-0.001832,-0.028322
2928,0.008122,-0.021098,-0.028322
2929,-0.008979,-0.001832,-0.028322
2930,-0.008979,-0.001832,0.009072
2931,-0.008979,-0.001832,-0.009625
2932,-0.008979,-0.05963,-0.028322
2933,0.008122,-0.040364,-0.028322
2934,0.008122,-0.021098,0.027769
2935,-0.008979,-0.021098,0.009072
2936,-0.008979,-0.001832,0.009072
2937,-0.008979,-0.001832,0.027769
2938,0.008122,0.055966,-0.009625
2939,0.025223,0.075232,0.065162
2940,0.025223,0.055966,0.027769
2941,0.025223,-0.021098,-0.009625
2942,0.008122,-0.040364,-0.028322
2943,-0.008979,-0.021098,-0.047018
2944,-0.008979,-0.001832,-0.047018
2945,-0.008979,-0.021098,-0.009625
2946,-0.008979,-0.001832,0.027769
2947,-0.008979,0.0367,0.046465
2948,0.025223,0.017434,0.009072
2949,0.008122,-0.001832,0.046465
2950,-0.008979,0.017434,0.009072
2951,-0.008979,-0.001832,-0.047018
2952,0.008122,-0.001832,-0.009625
2953,-0.008979,-0.021098,-0.028322
2954,-0.008979,-0.021098,-0.028322
2955,-0.008979,-0.001832,-0.028322
2956,-0.008979,-0.001832,0.009072
2957,0.025223,-0.001832,0.027769
2958,0.008122,-0.001832,0.027769
2959,0.008122,-0.021098,0.009072
2960,0.008122,-0.001832,0.027769
2961,0.008122,-0.001832,0.009072
2962,-0.008979,-0.021098,0.009072
2963,-0.026081,-0.040364,0.009072
2964,0.008122,-0.001832,0.027769
2965,-0.008979,-0.040364,0.027769
2966,-0.008979,-0.040364,0.009072
2967,-0.008979,-0.040364,-0.009625
2968,0.008122,-0.021098,-0.028322
2969,0.025223,-0.021098,-0.028322
2970,0.008122,0.017434,-0.009625
2971,0.008122,0.075232,0.102556
2972,0.008122,0.075232,0.027769
2973,0.008122,0.055966,0.046465
2974,0.008122,0.0367,0.046465
2975,0.008122,-0.001832,0.046465
2976,-0.008979,-0.001832,-0.009625
2977,0.008122,-0.021098,-0.009625
2978,-0.008979,-0.040364,-0.009625
2979,-0.008979,-0.021098,-0.028322
2980,0.008122,-0.001832,-0.009625
2981,0.008122,-0.001832,-0.047018
2982,-0.026081,-0.021098,-0.009625
2983,-0.026081,0.0367,-0.028322
2984,-0.008979,0.0367,0.009072
2985,0.008122,0.017434,0.027769
2986,0.025223,0.017434,0.065162
2987,0.008122,-0.001832,0.009072
2988,0.008122,-0.001832,0.027769
2989,-0.008979,-0.001832,-0.028322
2990,0.008122,-0.040364,-0.028322
2991,0.008122,-0.021098,-0.009625
2992,-0.026081,-0.021098,-0.028322
2993,0.008122,-0.021098,-0.009625
2994,0.008122,0.017434,-0.009625
2995,-0.008979,0.017434,0.027769
2996,0.008122,0.0367,-0.009625
2997,-0.008979,0.0367,0.009072
2998,-0.026081,0.0367,0.046465
2999,-0.008979,0.017434,0.046465
3000,0.008122,0.0367,0.027769
3001,0.008122,-0.021098,0.065162
3002,0.008122,-0.021098,0.046465
3003,0.008122,-0.021098,0.046465
3004,0.025223,-0.001832,0.065162
3005,0.008122,-0.001832,-0.009625
3006,0.008122,-0.001832,-0.047018
3007,0.008122,0.0367,-0.121806
3008,-0.008979,0.0367,-0.047018
3009,-0.008979,-0.021098,-0.065715
3010,-0.008979,-0.078896,-0.065715
3011,-0.008979,-0.098162,-0.009625
3012,-0.008979,-0.05963,0.009072
3013,-0.008979,-0.021098,0.027769
3014,-0.008979,-0.001832,0.065162
3015,-0.008979,-0.021098,0.065162
3016,-0.026081,0.0367,0.009072
3017,0.025223,0.094498,0.009072
3018,0.025223,0.113764,0.009072
3019,-0.008979,0.0367,-0.084412
3020,-0.008979,0.017434,-0.084412
3021,0.025223,0.017434,-0.028322
3022,0.008122,0.017434,-0.009625
3023,0.008122,-0.001832,0.009072
3024,0.008122,0.0367,0.027769
3025,0.025223,0.0367,0.046465
3026,0.008122,0.017434,0.027769
3027,0.008122,-0.021098,0.046465
3028,0.008122,-0.021098,0.046465
3029,-0.008979,-0.021098,0.027769
3030,-0.008979,0.017434,0.009072
3031,-0.008979,-0.001832,0.009072
3032,-0.008979,-0.001832,-0.028322
3033,-0.008979,0.0367,-0.009625
3034,-0.008979,0.075232,-0.028322
3035,-0.008979,0.017434,-0.009625
3036,-0.008979,0.0367,-0.028322
3037,0.008122,0.0367,0.009072
3038,0.008122,-0.021098,0.009072
3039,-0.008979,-0.021098,0.009072
3040,-0.008979,-0.040364,-0.009625
3041,0.025223,-0.021098,-0.009625
3042,0.008122,-0.021098,-0.028322
3043,-0.008979,-0.05963,-0.009625
3044,-0.008979,-0.021098,0.027769
3045,-0.008979,-0.001832,0.009072
3046,-0.008979,-0.001832,-0.009625
3047,0.008122,0.017434,-0.009625
3048,-0.008979,0.017434,0.009072
3049,-0.008979,-0.021098,0.009072
3050,0.008122,-0.001832,0.027769
3051,-0.008979,0.017434,0.027769
3052,-0.008979,0.0367,0.027769
3053,-0.008979,0.017434,-0.009625
3054,-0.008979,0.0367,0.009072
3055,-0.008979,0.017434,-0.009625
3056,0.008122,-0.001832,-0.009625
3057,0.008122,0.017434,0.046465
3058,0.008122,-0.001832,0.009072
3059,0.008122,-0.001832,-0.009625
3060,0.025223,-0.001832,-0.009625
3061,-0.008979,-0.021098,0.009072
3062,0.008122,-0.001832,-0.028322
3063,0.008122,-0.040364,-0.009625
3064,-0.008979,-0.040364,-0.028322
3065,-0.026081,-0.021098,-0.009625
3066,0.025223,-0.001832,-0.009625
3067,-0.008979,0.0367,0.027769
3068,0.008122,0.0367,0.027769
3069,0.008122,-0.001832,-0.009625
3070,0.008122,-0.001832,0.009072
3071,0.008122,-0.021098,-0.009625
3072,0.008122,-0.021098,-0.028322
3073,0.008122,-0.001832,0.027769
3074,-0.008979,0.0367,0.027769
3075,-0.026081,0.017434,-0.009625
3076,0.008122,-0.001832,0.046465
3077,-0.008979,0.017434,0.027769
3078,0.008122,-0.001832,0.046465
3079,0.008122,-0.001832,0.027769
3080,-0.008979,0.017434,0.046465
3081,-0.008979,0.0367,-0.009625
3082,-0.008979,-0.001832,-0.047018
3083,-0.008979,0.055966,-0.028322
3084,-0.026081,0.017434,-0.009625
3085,0.008122,-0.021098,-0.084412
3086,0.008122,-0.021098,-0.028322
3087,0.008122,-0.021098,0.009072
3088,-0.008979,0.0367,-0.028322
3089,-0.008979,0.017434,0.009072
3090,0.025223,0.017434,-0.009625
3091,0.008122,0.017434,0.065162
3092,0.008122,-0.001832,0.046465
3093,0.008122,-0.040364,0.046465
3094,-0.008979,-0.021098,0.046465
3095,-0.026081,-0.001832,0.027769
3096,-0.008979,0.017434,-0.009625
3097,0.025223,0.017434,-0.009625
3098,-0.008979,-0.001832,-0.009625
3099,-0.008979,-0.040364,-0.028322
3100,-0.026081,-0.021098,-0.028322
3101,0.008122,-0.021098,-0.047018
3102,0.008122,-0.001832,-0.065715
3103,0.008122,-0.021098,-0.028322
3104,0.008122,0.017434,0.009072
3105,0.008122,-0.001832,-0.028322
3106,0.008122,-0.001832,0.009072
3107,-0.008979,-0.021098,0.009072
3108,0.008122,0.0367,-0.009625
3109,0.008122,0.017434,-0.009625
3110,-0.008979,-0.021098,0.027769
3111,-0.008979,-0.021098,-0.009625
3112,-0.008979,0.017434,0.009072
3113,0.008122,-0.001832,0.009072
3114,-0.008979,-0.001832,-0.028322
3115,-0.008979,0.017434,-0.009625
3116,0.008122,0.0367,0.009072
3117,0.008122,0.017434,0.027769
3118,-0.008979,-0.021098,0.027769
3119,0.008122,-0.05963,0.065162
3120,0.008122,-0.040364,0.027769
3121,-0.008979,-0.021098,-0.009625
3122,-0.026081,-0.001832,-0.028322
3123,-0.008979,0.0367,-0.028322
3124,-0.008979,0.075232,-0.028322
3125,0.008122,0.055966,-0.009625
3126,0.025223,0.017434,0.009072
3127,-0.008979,-0.040364,0.046465
3128,-0.008979,-0.040364,-0.009625
3129,-0.008979,-0.05963,0.009072
3130,0.008122,-0.021098,0.027769
3131,0.008122,-0.001832,0.046465
3132,-0.008979,-0.001832,0.009072
3133,0.008122,0.0367,0.009072
3134,-0.008979,0.075232,-0.009625
3135,-0.008979,0.075232,-0.009625
3136,0.008122,0.0367,0.009072
3137,0.008122,0.017434,0.009072
3138,0.008122,0.017434,0.009072
3139,0.008122,-0.001832,0.027769
3140,0.025223,0.017434,0.027769
3141,0.008122,0.017434,-0.009625
3142,0.008122,-0.001832,0.009072
3143,0.025223,0.017434,0.027769
3144,-0.008979,-0.001832,0.009072
3145,0.008122,-0.021098,-0.065715
3146,-0.008979,-0.001832,0.027769
3147,0.008122,-0.040364,0.027769
3148,-0.008979,-0.040364,0.027769
3149,-0.008979,0.017434,-0.028322
3150,-0.008979,-0.001832,-0.047018
3151,0.008122,-0.021098,-0.084412
3152,-0.008979,0.017434,-0.047018
3153,0.025223,0.017434,-0.009625
3154,-0.008979,0.017434,-0.009625
3155,-0.008979,0.017434,0.027769
3156,0.008122,0.017434,0.065162
3157,0.008122,-0.001832,0.065162
3158,-0.008979,0.017434,-0.009625
3159,0.008122,-0.001832,0.009072
3160,0.008122,-0.001832,0.009072
3161,0.008122,-0.001832,-0.047018
3162,-0.008979,-0.05963,-0.065715
3163,-0.008979,-0.040364,-0.047018
3164,0.008122,-0.05963,-0.009625
3165,-0.008979,-0.040364,-0.028322
3166,0.025223,-0.040364,-0.009625
3167,-0.008979,-0.001832,-0.028322
3168,0.008122,0.0367,-0.009625
3169,0.008122,0.055966,0.009072
3170,0.008122,0.094498,0.046465
3171,0.025223,0.055966,0.009072
3172,0.025223,0.075232,0.027769
3173,0.008122,0.0367,0.046465
3174,0.008122,-0.040364,0.009072
3175,-0.008979,-0.040364,-0.047018
3176,0.008122,-0.040364,-0.028322
3177,0.008122,-0.021098,-0.009625
3178,0.008122,-0.021098,-0.028322
3179,0.008122,-0.001832,-0.009625
3180,-0.008979,0.017434,-0.009625
3181,-0.026081,0.075232,-0.009625
3182,0.008122,0.055966,0.009072
3183,0.008122,0.0367,0.027769
3184,0.008122,0.017434,0.009072
3185,0.008122,0.017434,0.046465
3186,0.008122,-0.021098,0.046465
3187,0.008122,-0.001832,0.027769
3188,0.008122,0.017434,0.027769
3189,-0.008979,0.0367,0.027769
3190,0.008122,0.017434,0.009072
3191,-0.008979,-0.05963,-0.028322
3192,-0.008979,-0.040364,0.009072
3193,0.008122,-0.05963,-0.028322
3194,0.008122,-0.098162,-0.009625
3195,-0.026081,-0.021098,0.009072
3196,-0.008979,-0.001832,0.027769
3197,0.008122,-0.001832,-0.009625
3198,-0.008979,-0.021098,0.009072
3199,0.008122,0.0367,0.027769
3200,0.008122,-0.001832,0.009072
3201,0.008122,0.017434,-0.028322
3202,0.008122,0.055966,0.009072
3203,0.008122,0.055966,-0.009625
3204,-0.008979,0.075232,-0.065715
3205,0.008122,0.0367,-0.009625
3206,-0.008979,0.017434,0.009072
3207,-0.008979,-0.001832,-0.009625
3208,0.025223,0.017434,0.009072
3209,0.008122,0.0367,0.027769
3210,0.008122,0.017434,0.009072
3211,-0.008979,0.017434,0.009072
3212,-0.008979,0.017434,0.027769
3213,0.008122,-0.021098,-0.009625
3214,0.008122,-0.001832,-0.009625
3215,0.008122,-0.001832,-0.009625
3216,0.008122,-0.021098,-0.009625
3217,-0.008979,-0.05963,-0.047018
3218,-0.008979,-0.040364,0.027769
3219,-0.008979,-0.040364,0.046465
3220,0.008122,-0.021098,0.083859
3221,0.008122,-0.001832,0.065162
3222,0.008122,0.017434,0.065162
3223,-0.008979,0.017434,0.027769
3224,0.008122,0.0367,0.009072
3225,0.025223,0.055966,-0.047018
3226,-0.008979,-0.001832,-0.065715
3227,0.008122,0.0367,-0.047018
3228,0.008122,0.017434,-0.047018
3229,-0.026081,0.017434,-0.103109
3230,-0.008979,0.017434,-0.103109
3231,-0.008979,-0.001832,-0.028322
3232,-0.026081,-0.001832,-0.009625
3233,-0.026081,-0.001832,-0.028322
3234,0.008122,-0.040364,0.009072
3235,0.008122,-0.05963,0.027769
3236,0.008122,-0.021098,0.027769
3237,0.008122,-0.001832,0.027769
3238,0.008122,0.017434,0.027769
3239,-0.008979,-0.001832,0.009072
3240,-0.008979,-0.021098,0.009072
3241,0.008122,0.017434,0.009072
3242,0.008122,0.017434,0.009072
3243,0.008122,-0.001832,-0.028322
3244,-0.008979,-0.001832,0.009072
3245,0.008122,0.0367,0.027769
3246,0.025223,0.075232,0.009072
3247,0.008122,0.017434,-0.009625
3248,-0.008979,0.017434,0.009072
3249,0.008122,0.017434,0.009072
3250,-0.008979,-0.021098,0.009072
3251,0.008122,-0.05963,0.046465
3252,0.008122,-0.021098,-0.009625
3253,0.008122,-0.021098,-0.047018
3254,0.008122,0.017434,-0.047018
3255,-0.026081,-0.021098,-0.047018
3256,-0.008979,-0.001832,-0.047018
3257,-0.008979,0.055966,0.009072
3258,0.008122,0.017434,0.046465
3259,0.008122,-0.001832,0.027769
3260,-0.008979,-0.001832,0.046465
3261,-0.008979,-0.040364,0.046465
3262,-0.008979,0.017434,0.065162
3263,0.008122,0.0367,-0.009625
3264,0.008122,0.017434,-0.009625
3265,0.008122,0.0367,-0.065715
3266,0.008122,0.017434,-0.047018
3267,-0.008979,-0.001832,-0.047018
3268,-0.008979,-0.001832,-0.047018
3269,-0.008979,-0.040364,0.009072
3270,-0.008979,-0.001832,0.009072
3271,-0.008979,-0.021098,0.046465
3272,0.008122,0.017434,0.083859
3273,0.008122,-0.021098,0.065162
3274,0.008122,0.0367,0.046465
3275,0.008122,-0.001832,0.027769
3276,-0.008979,-0.021098,0.009072
3277,0.008122,-0.021098,0.027769
3278,-0.008979,-0.021098,-0.065715
3279,-0.008979,0.017434,-0.065715
3280,0.025223,0.017434,-0.047018
3281,0.008122,0.017434,-0.009625
3282,0.025223,0.017434,-0.028322
3283,-0.008979,0.055966,-0.009625
3284,0.008122,0.017434,-0.009625
3285,0.008122,0.017434,-0.009625
3286,-0.008979,-0.021098,-0.009625
3287,-0.008979,-0.001832,-0.009625
3288,0.008122,-0.001832,0.009072
3289,0.008122,-0.001832,-0.028322
3290,-0.008979,-0.001832,0.009072
3291,-0.008979,-0.001832,-0.009625
3292,-0.008979,0.017434,0.009072
3293,0.008122,-0.021098,-0.009625
3294,0.008122,-0.021098,0.009072
3295,0.008122,-0.001832,0.009072
3296,-0.008979,-0.021098,0.009072
3297,-0.008979,-0.021098,0.046465
3298,-0.008979,-0.040364,0.046465
3299,-0.026081,-0.021098,0.046465
3300,-0.026081,-0.021098,0.009072
3301,-0.008979,0.055966,0.009072
3302,0.025223,0.0367,-0.047018
3303,-0.008979,0.017434,-0.028322
3304,0.008122,0.017434,0.009072
3305,0.025223,0.017434,0.009072
3306,0.025223,-0.001832,-0.009625
3307,-0.008979,-0.001832,-0.009625
3308,0.008122,-0.021098,-0.009625
3309,0.008122,0.0367,-0.028322
3310,0.008122,-0.001832,0.009072
3311,-0.026081,-0.040364,0.046465
3312,0.008122,-0.040364,0.027769
3313,0.008122,-0.078896,0.009072
3314,0.008122,-0.040364,0.046465
3315,-0.008979,-0.021098,0.009072
3316,-0.008979,0.017434,0.027769
3317,0.008122,0.0367,0.009072
3318,0.008122,0.0367,-0.028322
3319,-0.026081,-0.021098,-0.047018
3320,-0.008979,-0.05963,-0.009625
3321,0.008122,-0.040364,0.009072
3322,0.008122,-0.021098,-0.028322
3323,-0.008979,0.0367,0.009072
3324,-0.008979,0.017434,0.009072
3325,0.008122,0.075232,-0.009625
3326,0.008122,0.075232,-0.009625
3327,-0.008979,0.0367,0.009072
3328,-0.026081,0.017434,-0.009625
3329,0.008122,0.017434,-0.028322
3330,0.025223,0.0367,0.027769
3331,0.025223,0.094498,0.009072
3332,0.008122,0.113764,-0.028322
3333,0.025223,0.0367,-0.028322
3334,-0.008979,-0.001832,-0.028322
3335,0.008122,-0.040364,-0.028322
3336,0.008122,0.017434,0.009072
3337,0.008122,0.017434,0.009072
3338,-0.026081,-0.040364,0.027769
3339,0.008122,-0.040364,0.046465
3340,0.025223,-0.021098,0.083859
3341,-0.008979,-0.040364,0.102556
3342,-0.026081,-0.040364,0.027769
3343,-0.008979,-0.001832,0.027769
3344,-0.008979,0.055966,-0.009625
3345,-0.008979,0.055966,-0.028322
3346,-0.008979,0.055966,-0.009625
3347,0.025223,0.0367,-0.009625
3348,0.008122,0.017434,-0.028322
3349,-0.008979,-0.001832,-0.009625
3350,-0.008979,-0.001832,0.027769
3351,-0.008979,0.017434,0.027769
3352,0.008122,-0.021098,-0.028322
3353,-0.008979,-0.021098,-0.047018
3354,0.025223,-0.05963,-0.028322
3355,0.008122,-0.001832,-0.028322
3356,0.008122,-0.001832,0.009072
3357,0.008122,0.017434,0.027769
3358,0.008122,-0.001832,0.027769
3359,-0.008979,-0.001832,-0.009625
3360,-0.008979,0.017434,0.046465
3361,0.008122,-0.001832,0.009072
3362,0.025223,0.017434,0.027769
3363,0.008122,-0.021098,0.027769
3364,0.008122,0.017434,0.027769
3365,0.008122,-0.001832,-0.009625
3366,-0.008979,-0.001832,-0.028322
3367,0.008122,-0.001832,-0.028322
3368,0.008122,-0.001832,-0.009625
3369,-0.008979,-0.001832,0.027769
3370,-0.008979,-0.021098,0.009072
3371,0.008122,-0.021098,-0.028322
3372,-0.008979,-0.001832,-0.065715
3373,0.008122,-0.001832,-0.047018
3374,-0.008979,-0.001832,-0.084412
3375,-0.008979,-0.021098,0.009072
3376,-0.008979,0.017434,0.046465
3377,-0.008979,-0.001832,0.065162
3378,-0.008979,0.017434,0.046465
3379,0.008122,-0.001832,0.083859
3380,0.008122,0.0367,0.009072
3381,-0.008979,-0.001832,-0.009625
3382,-0.026081,-0.021098,-0.047018
3383,0.008122,-0.021098,-0.028322
3384,0.008122,-0.021098,-0.009625
3385,0.008122,-0.040364,-0.009625
3386,-0.026081,0.017434,0.009072
3387,0.008122,-0.001832,-0.028322
3388,0.008122,0.017434,-0.009625
3389,0.008122,0.0367,-0.047018
3390,0.008122,-0.001832,0.009072
3391,-0.008979,0.017434,0.009072
3392,0.008122,0.0367,0.027769
3393,-0.008979,0.017434,0.009072
3394,-0.008979,-0.001832,-0.009625
3395,-0.008979,-0.001832,-0.009625
3396,0.008122,-0.001832,0.027769
3397,0.008122,0.017434,0.009072
3398,0.008122,0.017434,-0.009625
3399,0.008122,0.055966,0.046465
3400,-0.008979,0.0367,0.027769
3401,0.025223,0.0367,0.027769
3402,0.008122,-0.021098,0.009072
3403,0.008122,0.017434,0.009072
3404,0.008122,-0.021098,-0.065715
3405,0.008122,-0.021098,-0.065715
3406,0.008122,-0.001832,-0.009625
3407,-0.008979,-0.021098,-0.009625
3408,-0.008979,0.0367,-0.028322
3409,-0.026081,-0.021098,0.009072
3410,0.008122,-0.001832,-0.009625
3411,-0.008979,-0.001832,-0.028322
3412,-0.008979,-0.078896,0.009072
3413,-0.026081,-0.098162,-0.009625
3414,-0.008979,-0.078896,-0.009625
3415,0.008122,-0.001832,0.009072
3416,0.008122,0.017434,0.027769
3417,-0.008979,0.0367,0.009072
3418,0.008122,0.055966,0.027769
3419,0.025223,0.13303,0.027769
3420,0.025223,0.171562,0.009072
3421,-0.008979,0.055966,-0.028322
3422,0.008122,0.017434,-0.028322
3423,0.008122,0.0367,-0.009625
3424,0.008122,0.017434,-0.028322
3425,0.008122,0.0367,0.027769
3426,-0.026081,0.017434,0.046465
3427,0.008122,0.017434,0.009072
3428,0.008122,-0.021098,0.027769
3429,-0.008979,-0.05963,0.027769
3430,0.025223,-0.001832,-0.009625
3431,-0.008979,-0.040364,-0.009625
3432,0.008122,-0.021098,0.009072
3433,-0.008979,-0.040364,-0.009625
3434,-0.008979,-0.078896,-0.028322
3435,-0.008979,-0.05963,-0.009625
3436,-0.026081,-0.021098,-0.028322
3437,0.025223,0.017434,-0.009625
3438,0.008122,0.017434,0.009072
3439,0.008122,0.055966,0.046465
3440,0.025223,0.055966,0.027769
3441,-0.008979,0.0367,0.065162
3442,0.008122,0.0367,0.027769
3443,-0.008979,0.0367,-0.028322
3444,-0.008979,-0.001832,-0.028322
3445,-0.008979,-0.040364,0.009072
3446,-0.008979,-0.021098,-0.028322
3447,0.008122,-0.001832,-0.065715
3448,-0.008979,-0.001832,-0.065715
3449,-0.008979,-0.001832,-0.047018
3450,-0.008979,0.017434,-0.028322
3451,0.008122,0.0367,-0.028322
3452,-0.008979,-0.001832,0.027769
3453,-0.008979,-0.001832,-0.028322
3454,0.008122,-0.001832,0.009072
3455,0.008122,-0.001832,0.009072
3456,0.008122,0.017434,0.027769
3457,-0.008979,-0.021098,-0.009625
3458,-0.008979,-0.021098,0.027769
3459,0.008122,0.017434,0.027769
3460,-0.008979,-0.001832,0.009072
3461,0.008122,-0.001832,0.009072
3462,0.025223,-0.001832,0.027769
3463,0.008122,-0.040364,0.009072
3464,0.008122,-0.001832,0.009072
3465,0.008122,-0.021098,0.027769
3466,-0.008979,0.017434,-0.009625
3467,-0.008979,-0.001832,0.009072
3468,0.008122,-0.040364,0.027769
3469,0.008122,-0.001832,0.027769
3470,0.008122,-0.021098,-0.028322
3471,0.025223,0.017434,0.009072
3472,0.008122,-0.001832,0.009072
3473,-0.008979,0.017434,0.009072
3474,0.008122,0.0367,0.009072
3475,0.025223,-0.001832,0.009072
3476,-0.008979,-0.001832,-0.028322
3477,-0.008979,-0.001832,-0.047018
3478,0.008122,-0.001832,-0.009625
3479,-0.008979,0.017434,-0.028322
3480,0.008122,-0.021098,0.009072
3481,0.008122,0.017434,0.027769
3482,0.008122,0.017434,0.027769
3483,-0.026081,-0.001832,-0.028322
3484,0.008122,-0.021098,0.009072
3485,-0.008979,-0.001832,-0.009625
3486,-0.008979,-0.021098,-0.009625
3487,0.008122,-0.021098,-0.009625
3488,0.025223,-0.001832,0.027769
3489,0.008122,-0.001832,0.009072
3490,-0.008979,-0.021098,-0.009625
3491,-0.008979,-0.001832,0.009072
3492,-0.008979,0.055966,0.027769
3493,0.008122,0.055966,-0.009625
3494,-0.008979,0.0367,0.009072
3495,-0.008979,-0.040364,0.027769
3496,-0.043182,-0.021098,-0.009625
3497,0.008122,-0.001832,0.009072
3498,-0.008979,0.017434,-0.009625
3499,0.025223,0.017434,-0.028322
3500,0.025223,0.055966,-0.009625
3501,0.025223,0.055966,-0.009625
3502,-0.008979,0.0367,-0.028322
3503,0.025223,-0.001832,-0.028322
3504,0.008122,-0.040364,-0.009625
3505,0.008122,-0.001832,0.027769
3506,-0.008979,-0.021098,-0.009625
3507,0.008122,-0.001832,-0.009625
3508,0.008122,-0.001832,0.027769
3509,0.008122,0.017434,0.009072
3510,-0.008979,-0.001832,0.046465
3511,-0.008979,-0.001832,0.027769
3512,0.008122,0.0367,0.027769
3513,0.008122,0.017434,-0.009625
3514,0.008122,-0.001832,-0.009625
3515,0.008122,0.017434,-0.009625
3516,-0.008979,0.017434,-0.028322
3517,-0.008979,-0.001832,0.009072
3518,0.008122,-0.001832,0.046465
3519,-0.026081,-0.001832,0.046465
3520,0.008122,-0.001832,0.046465
3521,0.008122,-0.001832,0.046465
3522,0.008122,0.017434,0.027769
3523,0.008122,-0.040364,0.046465
3524,0.008122,-0.021098,0.009072
3525,-0.008979,-0.021098,-0.009625
3526,0.008122,-0.021098,-0.009625
3527,-0.008979,-0.021098,-0.047018
3528,0.008122,-0.040364,-0.065715
3529,0.008122,-0.021098,-0.084412
3530,-0.008979,0.017434,-0.065715
3531,-0.008979,-0.001832,-0.047018
3532,0.008122,0.017434,-0.047018
3533,0.008122,-0.001832,-0.009625
3534,0.008122,-0.001832,-0.009625
3535,-0.008979,-0.001832,-0.028322
3536,0.008122,-0.001832,-0.009625
3537,0.008122,-0.001832,0.009072
3538,-0.008979,-0.021098,-0.009625
3539,0.008122,0.017434,0.009072
3540,0.008122,0.0367,0.027769
3541,0.008122,0.075232,0.027769
3542,0.008122,0.055966,-0.009625
3543,-0.008979,0.0367,-0.009625
3544,0.008122,0.075232,-0.009625
3545,-0.008979,0.017434,-0.009625
3546,-0.026081,0.017434,0.009072
3547,0.008122,-0.001832,0.009072
3548,0.025223,0.017434,0.027769
3549,0.008122,0.017434,-0.009625
3550,-0.008979,-0.05963,0.027769
3551,-0.026081,-0.078896,0.009072
3552,-0.008979,-0.098162,-0.009625
3553,-0.026081,-0.098162,-0.028322
3554,-0.026081,-0.05963,0.009072
3555,-0.026081,-0.021098,-0.028322
3556,-0.008979,0.017434,-0.009625
3557,0.008122,0.0367,0.027769
3558,0.025223,0.113764,0.065162
3559,-0.008979,0.094498,0.009072
3560,0.008122,0.055966,0.027769
3561,-0.008979,0.0367,0.046465
3562,-0.008979,0.055966,0.009072
3563,-0.008979,0.113764,0.046465
3564,0.008122,0.094498,0.027769
3565,0.008122,0.017434,-0.009625
3566,0.008122,-0.001832,-0.047018
3567,-0.008979,0.017434,-0.028322
3568,-0.008979,-0.001832,-0.047018
3569,-0.008979,-0.001832,-0.009625
3570,-0.008979,-0.001832,0.009072
3571,-0.008979,-0.001832,0.009072
3572,0.008122,-0.021098,-0.028322
3573,-0.008979,0.017434,0.027769
3574,0.008122,0.017434,0.009072
3575,0.008122,0.017434,0.027769
3576,-0.008979,0.017434,0.046465
3577,0.008122,-0.021098,0.009072
3578,0.008122,-0.001832,-0.009625
3579,-0.008979,-0.021098,0.009072
3580,0.008122,-0.001832,0.027769
3581,-0.008979,-0.021098,-0.028322
3582,0.008122,-0.001832,-0.028322
3583,0.008122,0.017434,-0.028322
3584,0.008122,0.0367,0.009072
3585,-0.026081,-0.001832,-0.009625
3586,0.008122,-0.001832,0.009072
3587,-0.008979,0.017434,0.027769
3588,0.008122,-0.001832,0.027769
3589,-0.008979,-0.001832,0.065162
3590,-0.008979,0.017434,0.083859
3591,-0.026081,-0.001832,0.083859
3592,0.008122,-0.001832,0.046465
3593,0.008122,-0.001832,0.083859
3594,0.008122,0.0367,-0.028322
3595,-0.008979,0.055966,-0.103109
3596,0.008122,-0.001832,-0.103109
3597,-0.008979,-0.021098,-0.028322
3598,-0.008979,-0.040364,-0.047018
3599,0.008122,-0.001832,-0.009625
3600,0.025223,-0.001832,0.027769
3601,-0.008979,-0.021098,0.009072
3602,0.008122,0.017434,-0.009625
3603,0.025223,-0.001832,0.046465
3604,0.008122,0.0367,0.009072
3605,-0.026081,0.0367,-0.009625
3606,-0.008979,-0.021098,-0.028322
3607,-0.008979,-0.040364,-0.047018
3608,0.008122,-0.05963,-0.047018
3609,-0.008979,-0.001832,-0.009625
3610,-0.008979,-0.021098,0.009072
3611,-0.008979,-0.05963,-0.028322
3612,0.025223,-0.001832,0.009072
3613,0.008122,0.017434,0.009072
3614,0.008122,0.055966,0.009072
3615,0.025223,0.017434,-0.009625
3616,0.008122,0.017434,0.009072
3617,-0.008979,-0.001832,-0.009625
3618,-0.008979,0.017434,-0.047018
3619,-0.008979,0.055966,-0.009625
3620,0.025223,0.055966,-0.028322
3621,0.008122,0.017434,-0.009625
3622,-0.008979,-0.021098,-0.009625
3623,-0.008979,-0.021098,0.009072
3624,0.008122,0.017434,-0.009625
3625,0.008122,0.017434,0.027769
3626,0.008122,0.017434,0.046465
3627,-0.008979,-0.001832,0.027769
3628,-0.008979,-0.040364,0.009072
3629,0.008122,-0.001832,0.009072
3630,-0.008979,-0.001832,-0.009625
