# Requested Sampling Rate (Hz):,1000
# Actual Sampling Rate (Hz):,998.568
# Requested Duration (s):,5.0
# Actual Duration (s):,5.049
# REST Calibration:,831.5250689655151,832.0950689655182,831.5147931034478
# MAX Calibration:,890.0000,884.0000,885.0000
# Normalization: MVC-based  (x_norm = (x - REST) / (MAX - REST))
sample_idx,EMG1,EMG2,EMG3
0,0.008122,0.0367,-0.009625
1,-0.008979,0.017434,0.027769
2,-0.026081,-0.040364,0.046465
3,0.025223,-0.001832,0.046465
4,0.008122,-0.021098,0.046465
5,0.025223,-0.001832,0.065162
6,0.008122,-0.040364,0.009072
7,-0.026081,-0.098162,-0.047018
8,-0.008979,-0.098162,-0.065715
9,-0.008979,-0.05963,-0.028322
10,0.008122,-0.021098,-0.047018
11,0.025223,0.017434,-0.028322
12,0.008122,-0.001832,0.046465
13,0.008122,0.075232,0.009072
14,0.008122,0.055966,0.027769
15,0.025223,0.0367,0.027769
16,-0.008979,-0.021098,0.009072
17,0.008122,-0.021098,0.009072
18,-0.008979,-0.021098,-0.028322
19,-0.008979,-0.021098,0.009072
20,-0.026081,-0.05963,0.009072
21,0.008122,-0.098162,-0.028322
22,0.008122,-0.021098,0.027769
23,0.008122,-0.001832,0.009072
24,0.042325,-0.001832,0.046465
25,0.008122,0.055966,0.027769
26,0.008122,0.0367,0.009072
27,0.008122,0.094498,0.027769
28,0.025223,0.113764,-0.009625
29,0.008122,0.094498,-0.009625
30,0.025223,0.017434,-0.047018
31,0.008122,-0.040364,-0.047018
32,-0.008979,0.017434,-0.028322
33,-0.008979,-0.001832,-0.028322
34,-0.026081,0.017434,0.027769
35,0.025223,-0.040364,-0.009625
36,0.025223,-0.001832,0.027769
37,-0.026081,-0.001832,-0.009625
38,-0.008979,-0.001832,-0.047018
39,-0.008979,-0.021098,-0.028322
40,0.008122,-0.001832,-0.009625
41,-0.008979,-0.001832,-0.047018
42,0.042325,0.055966,0.027769
43,-0.008979,0.017434,0.027769
44,0.025223,-0.021098,0.046465
45,0.008122,-0.001832,0.009072
46,0.008122,-0.021098,0.027769
47,0.025223,0.017434,0.027769
48,0.008122,0.017434,-0.009625
49,0.008122,-0.001832,0.009072
50,0.025223,0.017434,-0.028322
51,-0.008979,-0.05963,-0.009625
52,0.008122,-0.021098,0.027769
53,0.008122,-0.001832,0.046465
54,0.025223,-0.001832,0.046465
55,0.008122,-0.001832,0.046465
56,0.008122,-0.021098,0.009072
57,-0.008979,-0.021098,0.027769
58,-0.008979,-0.021098,0.009072
59,0.042325,-0.05963,-0.047018
60,-0.008979,-0.001832,-0.065715
61,-0.026081,-0.021098,-0.009625
62,-0.008979,-0.05963,-0.028322
63,-0.008979,-0.040364,-0.009625
64,0.008122,-0.040364,0.027769
65,-0.008979,-0.021098,0.009072
66,-0.008979,0.017434,0.027769
67,-0.008979,0.017434,0.065162
68,0.008122,0.055966,0.046465
69,0.008122,0.055966,0.009072
70,-0.008979,0.017434,0.046465
71,0.008122,0.017434,0.009072
72,-0.026081,-0.040364,-0.028322
73,0.008122,-0.021098,-0.028322
74,0.025223,-0.001832,-0.009625
75,-0.008979,0.055966,-0.009625
76,0.008122,0.055966,0.027769
77,0.008122,0.0367,0.027769
78,0.008122,-0.001832,0.009072
79,0.008122,-0.001832,-0.028322
80,-0.008979,-0.001832,-0.028322
81,-0.008979,0.0367,-0.028322
82,0.008122,0.017434,0.009072
83,-0.008979,-0.021098,0.009072
84,0.008122,-0.021098,-0.047018
85,0.008122,-0.040364,-0.009625
86,0.008122,-0.021098,0.027769
87,0.008122,-0.021098,0.009072
88,0.008122,-0.021098,-0.047018
89,0.008122,-0.001832,0.009072
90,-0.026081,-0.021098,-0.009625
91,-0.008979,-0.05963,-0.028322
92,-0.008979,-0.05963,-0.047018
93,-0.008979,-0.078896,-0.028322
94,-0.008979,-0.040364,0.027769
95,-0.043182,-0.021098,0.027769
96,-0.043182,-0.05963,0.027769
97,-0.026081,-0.021098,-0.009625
98,-0.026081,0.017434,0.009072
99,0.042325,0.017434,-0.009625
100,0.042325,-0.001832,-0.009625
101,0.008122,0.017434,-0.028322
102,0.008122,0.0367,-0.028322
103,-0.026081,0.0367,-0.047018
104,0.008122,0.113764,0.027769
105,0.008122,0.094498,0.046465
106,0.025223,0.055966,0.046465
107,0.025223,0.075232,0.046465
108,0.008122,0.0367,0.083859
109,0.025223,-0.001832,0.027769
110,0.008122,0.017434,0.027769
111,0.008122,0.017434,0.027769
112,-0.008979,-0.001832,-0.009625
113,-0.008979,0.017434,-0.028322
114,-0.008979,-0.040364,-0.028322
115,-0.008979,-0.021098,0.046465
116,0.008122,-0.021098,0.009072
117,0.008122,-0.021098,-0.065715
118,-0.008979,-0.001832,-0.009625
119,-0.008979,-0.040364,-0.028322
120,-0.008979,-0.021098,-0.028322
121,0.008122,-0.021098,-0.028322
122,-0.026081,-0.001832,-0.084412
123,0.008122,-0.021098,-0.028322
124,-0.008979,-0.040364,0.009072
125,-0.008979,-0.021098,0.009072
126,0.008122,-0.021098,0.027769
127,-0.008979,-0.001832,0.027769
128,0.008122,-0.001832,0.009072
129,0.025223,-0.021098,0.009072
130,-0.008979,-0.021098,-0.009625
131,0.025223,-0.001832,0.027769
132,0.025223,-0.021098,-0.009625
133,-0.026081,-0.001832,0.009072
134,-0.008979,-0.021098,-0.028322
135,-0.008979,-0.021098,0.009072
136,-0.026081,-0.001832,0.009072
137,0.008122,-0.001832,0.083859
138,0.025223,0.017434,0.065162
139,0.008122,-0.040364,0.065162
140,0.008122,-0.021098,0.009072
141,-0.008979,-0.021098,-0.028322
142,-0.008979,-0.040364,-0.065715
143,0.025223,-0.001832,-0.084412
144,0.008122,0.017434,-0.065715
145,0.008122,-0.001832,-0.009625
146,0.008122,-0.021098,0.027769
147,-0.008979,-0.040364,0.027769
148,0.008122,-0.021098,0.027769
149,-0.008979,-0.001832,0.046465
150,0.008122,-0.040364,-0.028322
151,0.008122,-0.040364,-0.047018
152,-0.008979,-0.05963,0.009072
153,-0.008979,-0.021098,-0.065715
154,0.008122,-0.05963,-0.065715
155,-0.008979,-0.040364,-0.028322
156,-0.008979,0.017434,-0.009625
157,0.008122,0.017434,0.027769
158,-0.026081,-0.040364,0.046465
159,0.008122,-0.05963,0.027769
160,-0.008979,-0.021098,0.027769
161,0.008122,0.0367,0.121252
162,-0.026081,0.017434,0.065162
163,-0.026081,-0.001832,0.065162
164,0.008122,0.055966,0.009072
165,0.042325,0.13303,0.009072
166,0.025223,0.152296,-0.047018
167,0.008122,0.0367,-0.121806
168,0.008122,-0.021098,-0.028322
169,0.025223,0.017434,0.027769
170,0.008122,0.0367,0.046465
171,-0.008979,0.017434,0.027769
172,-0.008979,-0.021098,0.009072
173,-0.008979,0.017434,0.027769
174,-0.008979,0.017434,-0.047018
175,0.025223,0.017434,-0.065715
176,-0.026081,-0.021098,-0.009625
177,0.008122,-0.021098,0.009072
178,-0.008979,-0.040364,0.009072
179,-0.026081,-0.05963,-0.009625
180,0.008122,-0.117428,-0.009625
181,0.008122,-0.117428,0.009072
182,0.008122,-0.117428,0.009072
183,-0.008979,-0.078896,-0.009625
184,-0.008979,-0.021098,-0.028322
185,-0.008979,-0.001832,-0.121806
186,-0.008979,0.055966,-0.047018
187,-0.008979,0.113764,0.009072
188,0.008122,0.13303,0.027769
189,0.025223,0.075232,0.027769
190,0.008122,0.075232,0.027769
191,0.008122,0.0367,0.009072
192,0.008122,0.055966,0.009072
193,0.008122,0.017434,0.009072
194,0.025223,0.017434,0.009072
195,0.008122,-0.040364,0.009072
196,0.025223,-0.021098,0.046465
197,0.008122,-0.021098,0.027769
198,0.025223,0.017434,0.065162
199,0.008122,-0.021098,0.139949
200,0.025223,-0.001832,0.083859
201,0.008122,-0.021098,0.065162
202,0.025223,-0.001832,0.065162
203,-0.026081,-0.021098,0.027769
204,-0.008979,-0.001832,-0.065715
205,-0.008979,-0.001832,-0.065715
206,-0.008979,-0.040364,-0.121806
207,-0.008979,-0.05963,-0.047018
208,-0.008979,-0.078896,-0.047018
209,0.008122,-0.05963,-0.084412
210,-0.008979,-0.040364,-0.047018
211,-0.008979,-0.05963,-0.047018
212,-0.026081,-0.098162,-0.028322
213,-0.026081,-0.05963,-0.009625
214,-0.008979,-0.040364,-0.065715
215,-0.008979,-0.001832,-0.009625
216,0.008122,-0.021098,0.046465
217,0.025223,0.017434,0.027769
218,-0.008979,0.075232,0.009072
219,0.008122,0.152296,0.027769
220,0.008122,0.152296,0.083859
221,-0.008979,0.0367,0.121252
222,0.008122,0.017434,0.009072
223,-0.026081,-0.021098,-0.009625
224,0.008122,0.017434,0.009072
225,-0.008979,-0.001832,0.027769
226,0.008122,-0.040364,0.083859
227,0.025223,0.0367,0.102556
228,0.025223,0.017434,0.102556
229,-0.008979,-0.001832,0.083859
230,-0.008979,-0.040364,0.102556
231,-0.008979,-0.001832,0.065162
232,0.008122,-0.001832,0.046465
233,-0.008979,-0.05963,0.065162
234,-0.008979,-0.078896,-0.047018
235,-0.026081,-0.05963,-0.065715
236,-0.026081,-0.078896,-0.065715
237,-0.008979,-0.078896,-0.233986
238,-0.008979,-0.021098,-0.159199
239,0.008122,0.075232,-0.084412
240,0.042325,0.055966,-0.028322
241,0.042325,0.0367,-0.047018
242,0.025223,0.0367,-0.028322
243,0.008122,0.017434,-0.028322
244,0.025223,0.017434,0.009072
245,0.008122,0.0367,0.046465
246,0.025223,0.055966,0.065162
247,0.042325,0.0367,0.065162
248,0.025223,0.017434,0.065162
249,0.008122,-0.021098,0.027769
250,-0.008979,-0.021098,0.009072
251,0.008122,-0.021098,-0.084412
252,0.008122,-0.040364,-0.028322
253,-0.008979,-0.001832,-0.047018
254,-0.008979,-0.021098,-0.084412
255,0.008122,0.017434,-0.028322
256,0.008122,0.017434,-0.009625
257,-0.008979,-0.021098,-0.084412
258,-0.008979,-0.001832,-0.028322
259,0.008122,-0.001832,0.046465
260,-0.008979,-0.021098,0.027769
261,-0.008979,-0.05963,0.009072
262,0.025223,-0.040364,0.027769
263,-0.008979,-0.021098,0.027769
264,-0.008979,-0.040364,0.065162
265,0.025223,-0.001832,0.083859
266,-0.008979,-0.021098,0.065162
267,0.008122,-0.021098,0.046465
268,0.008122,-0.001832,0.027769
269,-0.008979,-0.001832,-0.009625
270,-0.008979,0.0367,-0.028322
271,-0.008979,-0.021098,0.027769
272,-0.026081,-0.15596,-0.028322
273,-0.008979,-0.15596,-0.140502
274,-0.008979,-0.136694,-0.047018
275,0.008122,-0.05963,0.027769
276,0.008122,-0.001832,-0.009625
277,-0.043182,-0.001832,-0.028322
278,-0.026081,0.075232,-0.009625
279,0.025223,0.171562,0.027769
280,0.025223,0.171562,0.065162
281,0.008122,0.017434,0.065162
282,0.025223,-0.021098,0.083859
283,0.025223,-0.001832,0.046465
284,0.025223,0.055966,-0.009625
285,0.008122,0.0367,-0.065715
286,0.008122,0.113764,-0.084412
287,0.008122,0.055966,-0.065715
288,0.008122,0.017434,-0.084412
289,0.008122,0.0367,0.009072
290,0.008122,0.0367,0.065162
291,-0.026081,-0.040364,0.009072
292,-0.026081,-0.040364,0.046465
293,0.008122,-0.040364,0.027769
294,-0.026081,-0.001832,-0.028322
295,0.008122,-0.021098,0.009072
296,-0.008979,-0.001832,0.027769
297,0.008122,-0.021098,0.027769
298,0.008122,0.0367,0.065162
299,0.025223,-0.001832,0.083859
300,0.025223,-0.001832,-0.084412
301,0.008122,-0.001832,-0.084412
302,-0.043182,-0.021098,-0.028322
303,-0.043182,-0.05963,-0.047018
304,-0.008979,-0.021098,-0.028322
305,-0.008979,-0.040364,0.046465
306,0.008122,-0.021098,0.009072
307,0.008122,-0.021098,0.009072
308,0.008122,-0.001832,-0.047018
309,0.008122,-0.001832,-0.103109
310,-0.008979,-0.040364,-0.084412
311,-0.026081,-0.05963,-0.028322
312,0.093629,-0.040364,0.121252
313,0.008122,-0.021098,0.177343
314,0.008122,-0.001832,0.214736
315,0.042325,-0.040364,0.158646
316,0.008122,-0.001832,0.177343
317,0.042325,0.055966,0.083859
318,0.008122,0.017434,-0.065715
319,-0.008979,-0.001832,-0.084412
320,-0.008979,0.017434,-0.103109
321,-0.008979,-0.021098,-0.084412
322,-0.026081,-0.021098,-0.084412
323,0.008122,-0.05963,-0.103109
324,-0.008979,-0.001832,0.009072
325,0.008122,-0.021098,0.009072
326,-0.026081,-0.021098,-0.047018
327,0.008122,0.0367,0.009072
328,0.025223,-0.001832,0.027769
329,-0.008979,-0.021098,0.046465
330,0.008122,-0.040364,0.102556
331,0.008122,-0.001832,0.102556
332,0.008122,-0.001832,0.027769
333,0.008122,-0.001832,0.027769
334,-0.008979,-0.001832,0.009072
335,0.008122,-0.001832,-0.047018
336,-0.008979,-0.05963,0.009072
337,0.008122,-0.098162,-0.009625
338,-0.008979,-0.078896,-0.028322
339,-0.008979,-0.05963,-0.028322
340,0.008122,-0.001832,-0.028322
341,-0.008979,0.055966,0.009072
342,0.008122,0.055966,-0.028322
343,0.042325,0.075232,0.065162
344,0.008122,0.055966,0.065162
345,-0.008979,0.075232,0.083859
346,0.008122,0.017434,0.009072
347,0.008122,0.017434,-0.047018
348,0.008122,0.017434,-0.065715
349,0.025223,-0.021098,-0.047018
350,0.008122,-0.05963,-0.103109
351,0.008122,-0.040364,-0.047018
352,0.008122,-0.078896,-0.028322
353,-0.026081,-0.040364,-0.009625
354,0.008122,-0.001832,-0.028322
355,-0.008979,0.0367,0.027769
356,0.008122,0.0367,-0.009625
357,0.008122,0.017434,-0.009625
358,0.008122,0.017434,-0.047018
359,-0.008979,-0.05963,-0.028322
360,0.008122,-0.098162,-0.047018
361,0.008122,-0.05963,-0.028322
362,-0.026081,-0.040364,0.027769
363,-0.008979,-0.040364,0.083859
364,-0.008979,0.0367,0.102556
365,0.008122,0.0367,0.009072
366,0.008122,0.055966,-0.065715
367,-0.008979,0.075232,-0.103109
368,-0.026081,-0.021098,-0.065715
369,0.008122,-0.05963,0.009072
370,-0.008979,-0.098162,0.027769
371,0.008122,-0.021098,0.065162
372,0.008122,-0.021098,0.065162
373,0.008122,-0.001832,-0.009625
374,0.008122,0.0367,0.009072
375,-0.008979,0.0367,0.009072
376,-0.026081,0.0367,0.009072
377,0.008122,0.055966,0.065162
378,0.008122,0.055966,-0.009625
379,-0.008979,0.017434,-0.009625
380,0.008122,-0.001832,0.046465
381,0.025223,-0.021098,-0.047018
382,0.008122,-0.021098,-0.047018
383,0.008122,-0.021098,-0.009625
384,-0.008979,-0.040364,0.009072
385,-0.026081,-0.05963,-0.047018
386,0.025223,-0.040364,0.009072
387,0.008122,0.017434,0.046465
388,-0.008979,-0.021098,0.046465
389,0.008122,0.0367,0.065162
390,0.025223,0.017434,0.121252
391,0.008122,0.0367,0.121252
392,0.025223,0.017434,0.177343
393,0.008122,0.017434,0.083859
394,0.025223,-0.040364,-0.009625
395,-0.008979,-0.021098,-0.028322
396,-0.008979,-0.001832,-0.121806
397,0.025223,-0.001832,-0.121806
398,0.025223,0.017434,-0.065715
399,-0.008979,-0.021098,-0.028322
400,-0.008979,-0.05963,-0.121806
401,-0.026081,-0.040364,-0.028322
402,-0.026081,0.0367,0.102556
403,-0.008979,0.075232,0.065162
404,0.008122,0.055966,-0.047018
405,0.008122,-0.001832,-0.028322
406,0.008122,-0.001832,0.027769
407,0.008122,0.075232,-0.028322
408,0.008122,-0.001832,0.009072
409,-0.008979,0.017434,0.027769
410,0.025223,-0.021098,0.027769
411,0.008122,-0.040364,0.083859
412,0.008122,-0.040364,0.046465
413,-0.008979,-0.001832,0.121252
414,0.008122,-0.040364,0.121252
415,0.042325,0.017434,0.158646
416,0.042325,0.017434,0.065162
417,0.042325,-0.001832,0.009072
418,0.025223,-0.001832,-0.084412
419,0.008122,-0.040364,-0.121806
420,0.008122,-0.040364,-0.159199
421,-0.026081,-0.021098,-0.121806
422,0.008122,-0.001832,-0.121806
423,0.008122,-0.040364,-0.140502
424,0.008122,0.017434,-0.065715
425,0.008122,0.0367,-0.047018
426,0.008122,0.055966,0.009072
427,0.008122,-0.021098,0.046465
428,0.008122,-0.05963,0.102556
429,-0.026081,-0.117428,0.065162
430,-0.026081,-0.05963,0.065162
431,-0.026081,-0.021098,0.046465
432,0.025223,-0.040364,0.102556
433,0.008122,0.0367,0.027769
434,0.008122,0.017434,0.065162
435,0.008122,0.017434,0.065162
436,0.008122,-0.021098,-0.009625
437,0.008122,-0.040364,-0.121806
438,-0.008979,-0.040364,-0.103109
439,-0.008979,-0.001832,-0.047018
440,0.008122,-0.001832,-0.065715
441,0.025223,-0.001832,-0.047018
442,-0.008979,-0.001832,-0.009625
443,0.008122,0.075232,-0.009625
444,0.025223,0.055966,0.046465
445,-0.008979,0.075232,0.027769
446,0.025223,0.113764,0.027769
447,0.025223,0.094498,0.027769
448,-0.008979,0.017434,-0.009625
449,-0.008979,0.017434,-0.028322
450,0.025223,-0.001832,-0.084412
451,0.025223,0.017434,-0.009625
452,0.025223,0.0367,-0.009625
453,0.008122,0.017434,0.065162
454,0.008122,0.0367,0.046465
455,0.042325,0.017434,0.102556
456,0.008122,-0.021098,0.046465
457,-0.008979,-0.040364,0.009072
458,-0.008979,-0.021098,-0.103109
459,0.008122,-0.040364,-0.028322
460,-0.026081,-0.001832,0.027769
461,0.025223,0.0367,-0.009625
462,0.008122,0.0367,-0.084412
463,0.008122,-0.021098,0.027769
464,0.008122,-0.040364,0.083859
465,0.008122,-0.05963,0.121252
466,0.042325,-0.040364,0.196039
467,-0.008979,-0.078896,0.102556
468,-0.026081,-0.040364,-0.103109
469,-0.008979,-0.040364,-0.084412
470,-0.008979,0.094498,-0.121806
471,-0.026081,-0.001832,-0.084412
472,0.008122,0.017434,-0.028322
473,0.008122,-0.001832,0.139949
474,0.042325,0.055966,0.158646
475,0.008122,0.0367,0.065162
476,0.025223,-0.001832,0.027769
477,0.025223,0.055966,0.009072
478,0.008122,-0.001832,0.009072
479,-0.008979,-0.001832,0.065162
480,-0.026081,-0.021098,-0.065715
481,-0.008979,0.0367,-0.028322
482,-0.008979,-0.001832,-0.009625
483,-0.026081,0.0367,-0.047018
484,-0.008979,0.017434,-0.047018
485,0.042325,0.017434,0.046465
486,0.008122,0.017434,-0.009625
487,-0.008979,-0.001832,-0.103109
488,0.008122,-0.001832,-0.196593
489,-0.008979,-0.021098,-0.177896
490,0.025223,-0.05963,-0.159199
491,-0.008979,-0.040364,-0.047018
492,0.008122,-0.040364,0.027769
493,0.025223,0.017434,0.065162
494,0.008122,-0.001832,0.065162
495,0.025223,-0.040364,0.083859
496,0.025223,-0.021098,-0.047018
497,0.008122,-0.001832,-0.028322
498,0.008122,-0.001832,-0.065715
499,0.025223,-0.001832,-0.065715
500,-0.008979,-0.021098,-0.009625
501,0.025223,-0.001832,0.027769
502,-0.008979,-0.001832,0.046465
503,-0.026081,-0.021098,0.009072
504,0.008122,-0.040364,0.065162
505,-0.008979,0.017434,0.158646
506,-0.008979,0.017434,0.121252
507,0.008122,0.017434,0.083859
508,0.008122,-0.001832,0.102556
509,0.008122,-0.001832,0.065162
510,-0.008979,-0.001832,0.046465
511,-0.008979,0.055966,-0.009625
512,0.025223,0.017434,-0.009625
513,0.008122,0.017434,-0.065715
514,0.008122,-0.040364,-0.084412
515,0.008122,-0.021098,0.027769
516,-0.008979,0.017434,0.158646
517,0.025223,-0.021098,0.196039
518,-0.026081,0.017434,0.158646
519,0.008122,-0.001832,0.046465
520,0.008122,0.017434,0.009072
521,-0.008979,-0.021098,-0.159199
522,0.008122,0.017434,-0.159199
523,0.025223,-0.001832,0.009072
524,0.008122,-0.040364,0.121252
525,0.025223,-0.021098,0.121252
526,0.008122,0.017434,0.196039
527,0.042325,0.055966,0.177343
528,0.042325,0.075232,0.065162
529,0.025223,0.0367,-0.215289
530,-0.008979,-0.001832,-0.215289
531,-0.008979,-0.001832,-0.140502
532,0.008122,-0.021098,-0.065715
533,0.025223,-0.05963,-0.009625
534,0.025223,-0.021098,-0.028322
535,-0.008979,-0.05963,-0.084412
536,-0.008979,-0.001832,-0.028322
537,0.025223,-0.001832,-0.103109
538,-0.008979,-0.001832,-0.065715
539,0.008122,0.055966,-0.028322
540,0.025223,0.017434,0.027769
541,0.008122,-0.021098,0.121252
542,0.008122,0.017434,0.121252
543,-0.008979,-0.021098,0.046465
544,0.008122,0.017434,-0.009625
545,-0.008979,-0.001832,0.009072
546,-0.008979,-0.021098,-0.084412
547,0.008122,-0.001832,-0.065715
548,0.008122,0.017434,-0.047018
549,0.025223,-0.001832,-0.047018
550,0.008122,-0.05963,-0.103109
551,-0.008979,-0.040364,-0.103109
552,0.025223,-0.040364,0.009072
553,0.008122,-0.001832,0.027769
554,0.025223,-0.001832,0.046465
555,-0.008979,0.075232,0.046465
556,0.008122,0.055966,0.102556
557,0.025223,0.094498,0.158646
558,0.042325,0.055966,0.233433
559,0.025223,0.017434,0.009072
560,0.008122,-0.001832,-0.047018
561,0.008122,-0.001832,-0.177896
562,0.008122,-0.05963,-0.346167
563,-0.008979,-0.05963,-0.121806
564,0.008122,0.017434,-0.028322
565,0.059426,0.0367,0.065162
566,0.042325,-0.001832,0.139949
567,0.025223,-0.021098,0.196039
568,0.042325,0.0367,0.233433
569,0.042325,0.0367,0.326917
570,-0.026081,-0.001832,0.083859
571,-0.043182,0.055966,-0.028322
572,-0.026081,-0.040364,-0.084412
573,-0.008979,-0.021098,-0.233986
574,0.025223,-0.001832,-0.177896
575,0.042325,-0.001832,-0.065715
576,0.025223,-0.021098,-0.009625
577,0.025223,-0.001832,-0.009625
578,0.008122,0.017434,0.046465
579,-0.008979,-0.021098,-0.084412
580,-0.026081,-0.040364,-0.065715
581,0.008122,-0.001832,-0.084412
582,-0.008979,-0.05963,-0.028322
583,-0.008979,-0.040364,0.027769
584,0.008122,-0.021098,0.046465
585,0.008122,-0.001832,0.121252
586,0.008122,0.075232,0.027769
587,0.008122,0.0367,-0.159199
588,0.008122,0.017434,0.083859
589,0.042325,0.017434,0.121252
590,-0.008979,-0.001832,0.009072
591,-0.008979,-0.001832,0.102556
592,0.025223,0.075232,0.046465
593,0.008122,0.0367,-0.140502
594,0.008122,-0.040364,-0.084412
595,0.025223,-0.040364,-0.009625
596,0.008122,-0.001832,-0.196593
597,0.025223,0.017434,-0.009625
598,0.025223,0.017434,0.196039
599,0.025223,0.0367,0.233433
600,0.008122,0.055966,0.25213
601,-0.008979,-0.001832,0.046465
602,0.008122,0.055966,-0.084412
603,0.025223,0.055966,-0.121806
604,-0.008979,0.055966,-0.103109
605,0.008122,0.017434,-0.103109
606,0.008122,0.0367,-0.028322
607,0.008122,0.0367,0.027769
608,0.025223,0.0367,0.121252
609,0.008122,0.017434,0.065162
610,-0.026081,-0.001832,0.027769
611,-0.008979,-0.05963,-0.103109
612,-0.008979,-0.078896,-0.159199
613,0.008122,-0.040364,0.009072
614,0.008122,-0.021098,0.102556
615,0.025223,0.0367,0.065162
616,0.025223,0.0367,-0.028322
617,0.025223,0.017434,-0.047018
618,0.025223,-0.040364,-0.065715
619,0.025223,-0.040364,-0.028322
620,0.025223,-0.021098,0.027769
621,0.008122,0.017434,-0.084412
622,-0.008979,0.055966,0.027769
623,0.008122,0.017434,-0.009625
624,-0.008979,0.017434,0.027769
625,0.025223,0.055966,0.102556
626,0.025223,0.075232,0.177343
627,0.025223,0.017434,0.046465
628,0.008122,0.017434,0.009072
629,0.008122,0.017434,0.009072
630,-0.008979,-0.021098,-0.028322
631,-0.008979,-0.021098,0.027769
632,0.008122,-0.021098,0.102556
633,-0.008979,-0.001832,0.046465
634,0.008122,-0.001832,-0.028322
635,0.025223,0.055966,0.046465
636,0.008122,0.075232,0.065162
637,0.025223,0.017434,-0.140502
638,0.008122,-0.040364,-0.121806
639,-0.008979,-0.040364,0.009072
640,0.008122,-0.05963,0.046465
641,-0.008979,-0.040364,0.027769
642,0.008122,-0.021098,-0.047018
643,0.008122,-0.001832,-0.140502
644,0.008122,-0.001832,-0.103109
645,0.008122,0.055966,-0.121806
646,0.025223,0.017434,0.102556
647,0.008122,-0.001832,0.196039
648,0.042325,-0.001832,0.046465
649,0.025223,0.017434,-0.121806
650,-0.008979,0.017434,-0.196593
651,-0.026081,-0.001832,-0.065715
652,-0.026081,0.017434,-0.028322
653,-0.008979,0.0367,0.233433
654,-0.008979,0.0367,0.158646
655,0.025223,0.017434,-0.009625
656,0.008122,-0.001832,-0.196593
657,0.025223,-0.021098,-0.159199
658,0.008122,-0.040364,-0.028322
659,-0.008979,-0.021098,0.027769
660,0.025223,0.0367,0.027769
661,0.059426,0.055966,0.139949
662,0.059426,0.113764,0.4204
663,0.042325,0.152296,0.326917
664,0.042325,0.094498,0.083859
665,0.025223,0.075232,0.046465
666,0.008122,0.017434,-0.32747
667,-0.008979,-0.05963,-0.346167
668,-0.008979,-0.05963,-0.159199
669,-0.026081,-0.021098,-0.028322
670,-0.008979,-0.040364,-0.009625
671,-0.008979,-0.040364,0.065162
672,-0.008979,0.017434,0.083859
673,0.008122,-0.05963,-0.009625
674,0.042325,-0.021098,0.102556
675,0.025223,0.094498,0.36431
676,0.042325,0.113764,0.270826
677,-0.008979,0.017434,-0.047018
678,0.008122,-0.001832,-0.103109
679,-0.008979,0.017434,-0.27138
680,0.008122,0.0367,-0.346167
681,-0.008979,-0.021098,-0.32747
682,0.025223,-0.05963,-0.290076
683,0.025223,-0.05963,-0.103109
684,0.008122,-0.021098,0.065162
685,0.042325,-0.040364,-0.140502
686,0.008122,-0.117428,0.009072
687,-0.008979,-0.05963,0.177343
688,0.025223,-0.021098,0.233433
689,0.025223,0.094498,0.495188
690,0.042325,0.267892,0.551278
691,0.059426,0.210094,0.214736
692,-0.008979,-0.001832,-0.196593
693,-0.008979,-0.021098,-0.103109
694,0.025223,0.017434,-0.065715
695,0.025223,-0.040364,0.009072
696,0.008122,-0.021098,0.083859
697,-0.008979,-0.021098,-0.177896
698,0.025223,-0.040364,-0.121806
699,-0.008979,-0.078896,-0.103109
700,-0.008979,-0.098162,-0.233986
701,0.042325,0.0367,0.065162
702,0.008122,0.055966,0.270826
703,0.025223,0.13303,0.027769
704,0.008122,0.113764,-0.047018
705,-0.008979,0.094498,0.027769
706,0.008122,0.0367,-0.009625
707,0.025223,0.075232,0.083859
708,0.042325,0.0367,0.196039
709,0.008122,0.017434,0.046465
710,-0.008979,-0.078896,-0.121806
711,-0.026081,-0.098162,-0.028322
712,-0.026081,-0.078896,-0.009625
713,0.008122,-0.021098,-0.084412
714,-0.008979,-0.021098,-0.084412
715,-0.026081,-0.001832,-0.290076
716,-0.026081,-0.021098,-0.177896
717,0.008122,-0.05963,-0.215289
718,-0.026081,-0.098162,-0.252683
719,-0.008979,-0.078896,-0.159199
720,0.008122,-0.040364,0.027769
721,0.008122,-0.021098,0.177343
722,0.059426,0.210094,0.36431
723,0.042325,0.210094,0.046465
724,0.008122,0.13303,0.121252
725,0.008122,0.075232,-0.028322
726,0.025223,0.055966,0.009072
727,-0.008979,-0.05963,-0.103109
728,-0.008979,0.017434,0.065162
729,0.008122,0.0367,0.027769
730,0.025223,0.017434,0.102556
731,0.042325,0.075232,0.102556
732,0.042325,0.094498,-0.065715
733,0.025223,-0.05963,-0.028322
734,0.025223,-0.021098,0.065162
735,0.008122,-0.040364,-0.028322
736,0.025223,0.017434,-0.009625
737,0.008122,-0.001832,-0.028322
738,0.025223,-0.001832,-0.028322
739,0.025223,0.0367,0.083859
740,0.008122,0.017434,0.196039
741,0.008122,-0.021098,0.139949
742,0.025223,0.017434,0.083859
743,0.025223,0.017434,-0.009625
744,0.025223,0.0367,-0.196593
745,0.042325,0.055966,-0.009625
746,0.008122,-0.021098,-0.047018
747,-0.008979,-0.098162,-0.159199
748,0.008122,-0.040364,-0.084412
749,-0.026081,-0.078896,-0.196593
750,-0.008979,-0.078896,-0.402257
751,-0.008979,-0.021098,-0.32747
752,0.008122,-0.05963,-0.140502
753,0.008122,-0.021098,0.083859
754,0.008122,-0.021098,0.30822
755,-0.008979,-0.001832,0.196039
756,0.025223,0.113764,0.214736
757,0.042325,0.171562,0.139949
758,0.042325,0.152296,0.158646
759,0.025223,0.094498,-0.047018
760,0.008122,0.017434,-0.065715
761,0.042325,0.075232,-0.047018
762,0.008122,-0.05963,-0.215289
763,0.008122,-0.05963,-0.103109
764,0.025223,-0.040364,0.027769
765,-0.008979,-0.098162,-0.196593
766,0.025223,0.0367,-0.177896
767,0.025223,0.094498,0.083859
768,0.059426,0.190828,0.383007
769,0.059426,0.094498,0.626065
770,0.025223,0.075232,0.513884
771,0.042325,0.075232,0.177343
772,-0.026081,-0.001832,-0.177896
773,-0.026081,-0.021098,-0.402257
774,0.025223,-0.040364,-0.551831
775,0.025223,-0.040364,-0.402257
776,0.025223,-0.040364,-0.140502
777,-0.026081,-0.078896,0.177343
778,-0.026081,-0.15596,-0.084412
779,0.008122,-0.136694,-0.009625
780,0.025223,-0.136694,-0.121806
781,-0.008979,-0.098162,-0.177896
782,0.025223,-0.001832,0.345613
783,0.042325,0.210094,0.775639
784,0.042325,0.190828,0.326917
785,-0.008979,0.113764,-0.028322
786,0.025223,0.094498,0.158646
787,-0.008979,0.075232,-0.065715
788,0.025223,0.13303,0.065162
789,0.059426,0.171562,0.121252
790,0.025223,0.152296,0.214736
791,0.059426,0.017434,0.139949
792,0.008122,-0.001832,-0.159199
793,-0.026081,-0.05963,-0.290076
794,-0.008979,-0.05963,-0.159199
795,-0.008979,-0.078896,-0.252683
796,0.008122,-0.098162,-0.290076
797,0.025223,-0.040364,0.046465
798,0.042325,-0.040364,0.121252
799,0.042325,0.017434,0.270826
800,0.042325,0.0367,-0.346167
801,-0.008979,0.0367,-0.215289
802,0.025223,0.113764,0.289523
803,-0.008979,0.055966,0.30822
804,-0.008979,0.0367,0.083859
805,-0.026081,-0.05963,-0.084412
806,-0.026081,-0.175226,-0.140502
807,0.008122,-0.021098,0.233433
808,0.042325,0.113764,0.214736
809,0.008122,0.094498,-0.140502
810,0.025223,0.13303,-0.009625
811,-0.008979,0.017434,-0.196593
812,-0.026081,0.0367,-0.252683
813,-0.008979,-0.001832,-0.065715
814,0.008122,-0.001832,-0.047018
815,0.008122,-0.098162,-0.32747
816,0.042325,-0.098162,-0.196593
817,0.042325,-0.05963,0.065162
818,0.076527,0.0367,0.476491
819,0.059426,0.171562,1.186968
820,0.059426,0.22936,0.457794
821,0.025223,0.113764,0.046465
822,-0.008979,-0.05963,-0.047018
823,-0.060283,-0.040364,-0.196593
824,-0.043182,-0.021098,-0.290076
825,0.008122,0.055966,-0.177896
826,-0.026081,-0.021098,-0.233986
827,-0.008979,-0.040364,-0.308773
828,-0.043182,-0.05963,-0.196593
829,0.008122,0.055966,-0.159199
830,0.025223,0.017434,-0.028322
831,0.025223,0.0367,0.177343
832,0.008122,-0.05963,0.046465
833,0.008122,-0.117428,-0.177896
834,0.008122,-0.117428,-0.177896
835,-0.008979,-0.098162,-0.140502
836,0.008122,0.0367,0.233433
837,0.025223,0.0367,0.233433
838,0.008122,0.017434,-0.27138
839,-0.008979,-0.040364,-0.121806
840,-0.060283,-0.040364,0.027769
841,0.025223,0.152296,0.326917
842,0.076527,0.113764,-0.009625
843,0.042325,0.0367,-0.233986
844,0.025223,-0.117428,-0.346167
845,-0.008979,-0.001832,0.009072
846,0.008122,-0.001832,-0.047018
847,0.025223,0.017434,-0.009625
848,0.025223,0.055966,0.046465
849,-0.008979,-0.021098,0.083859
850,-0.008979,-0.001832,0.30822
851,0.008122,0.0367,0.102556
852,-0.008979,0.0367,0.102556
853,0.042325,0.094498,0.139949
854,0.042325,0.094498,0.158646
855,0.025223,0.0367,0.139949
856,0.008122,0.055966,-0.065715
857,0.008122,-0.001832,-0.121806
858,0.025223,-0.05963,-0.065715
859,-0.008979,-0.078896,-0.084412
860,0.008122,-0.078896,-0.028322
861,0.008122,0.075232,0.027769
862,0.025223,0.075232,-0.047018
863,0.008122,0.017434,-0.196593
864,-0.008979,-0.021098,-0.047018
865,-0.008979,-0.05963,-0.121806
866,0.025223,-0.040364,0.009072
867,0.008122,0.0367,0.065162
868,0.025223,0.094498,0.046465
869,0.025223,0.055966,0.009072
870,0.025223,-0.040364,-0.047018
871,0.025223,-0.001832,-0.140502
872,0.008122,-0.021098,-0.27138
873,0.008122,-0.05963,-0.121806
874,-0.008979,-0.001832,0.046465
875,0.042325,0.075232,0.270826
876,0.042325,0.094498,0.270826
877,0.025223,0.055966,-0.028322
878,0.008122,-0.021098,-0.047018
879,-0.026081,-0.078896,0.027769
880,-0.008979,-0.05963,-0.196593
881,-0.008979,-0.021098,-0.177896
882,0.008122,0.0367,0.102556
883,-0.008979,0.113764,0.383007
884,0.042325,0.075232,0.027769
885,0.025223,0.094498,-0.159199
886,0.008122,-0.001832,-0.121806
887,-0.026081,-0.001832,0.009072
888,0.059426,0.0367,0.383007
889,0.025223,0.0367,0.270826
890,0.042325,0.017434,-0.028322
891,-0.008979,-0.078896,-0.402257
892,-0.043182,-0.098162,-0.420954
893,0.008122,-0.001832,-0.215289
894,-0.008979,0.017434,-0.028322
895,0.025223,0.0367,0.065162
896,0.042325,-0.001832,0.158646
897,0.042325,0.0367,0.139949
898,-0.026081,-0.040364,-0.103109
899,0.008122,0.0367,0.233433
900,-0.026081,0.017434,-0.028322
901,-0.008979,0.017434,-0.140502
902,0.008122,-0.021098,0.046465
903,-0.008979,-0.001832,0.009072
904,0.025223,0.055966,0.158646
905,0.025223,0.055966,0.289523
906,0.042325,0.055966,0.083859
907,0.008122,-0.001832,0.046465
908,0.025223,-0.001832,0.065162
909,0.025223,-0.001832,0.046465
910,0.008122,0.055966,0.139949
911,0.059426,0.113764,0.158646
912,0.042325,0.075232,-0.047018
913,-0.008979,-0.021098,-0.308773
914,-0.043182,-0.040364,-0.159199
915,-0.008979,-0.05963,-0.140502
916,-0.026081,-0.040364,0.102556
917,-0.008979,0.0367,0.139949
918,0.042325,0.075232,-0.084412
919,0.008122,0.0367,-0.159199
920,0.008122,-0.001832,-0.215289
921,0.025223,-0.001832,-0.159199
922,0.025223,-0.001832,-0.047018
923,0.025223,0.017434,0.139949
924,0.025223,0.055966,0.177343
925,-0.008979,0.017434,0.009072
926,0.008122,0.017434,-0.047018
927,-0.008979,-0.021098,-0.159199
928,-0.008979,-0.040364,-0.103109
929,0.008122,-0.001832,0.065162
930,0.008122,-0.040364,-0.121806
931,-0.026081,0.017434,-0.065715
932,0.025223,0.017434,-0.103109
933,-0.008979,-0.040364,-0.196593
934,0.025223,-0.05963,-0.009625
935,-0.008979,-0.05963,-0.009625
936,-0.026081,-0.05963,0.177343
937,-0.008979,0.0367,0.401704
938,0.025223,0.190828,0.607368
939,0.059426,0.22936,0.289523
940,0.059426,0.210094,0.009072
941,0.025223,0.075232,-0.140502
942,0.008122,0.055966,0.065162
943,0.008122,-0.001832,0.139949
944,0.008122,0.017434,0.046465
945,0.008122,0.017434,-0.159199
946,-0.008979,-0.001832,-0.140502
947,0.025223,-0.05963,-0.121806
948,-0.026081,-0.05963,-0.215289
949,-0.008979,-0.021098,-0.159199
950,0.008122,0.017434,-0.121806
951,0.008122,0.017434,-0.028322
952,0.008122,-0.001832,0.027769
953,0.008122,0.017434,0.027769
954,-0.008979,-0.021098,-0.009625
955,-0.008979,-0.040364,0.046465
956,-0.008979,0.017434,0.009072
957,0.025223,0.017434,0.102556
958,0.042325,0.0367,-0.009625
959,0.008122,-0.001832,-0.084412
960,-0.008979,0.017434,-0.047018
961,0.025223,-0.001832,0.009072
962,0.025223,0.017434,0.046465
963,0.025223,-0.021098,0.046465
964,0.008122,-0.021098,0.046465
965,0.025223,0.0367,-0.028322
966,0.025223,-0.021098,-0.047018
967,0.008122,-0.078896,-0.084412
968,0.008122,-0.040364,-0.121806
969,-0.008979,-0.001832,-0.103109
970,0.025223,0.075232,0.027769
971,0.025223,0.13303,0.046465
972,0.008122,0.017434,-0.009625
973,0.008122,0.017434,0.083859
974,0.025223,-0.021098,-0.009625
975,0.025223,0.017434,0.121252
976,0.042325,-0.021098,0.121252
977,-0.008979,-0.001832,0.158646
978,0.008122,0.055966,0.177343
979,0.025223,0.055966,-0.028322
980,0.025223,0.017434,-0.196593
981,-0.008979,0.0367,-0.103109
982,0.008122,-0.021098,-0.009625
983,0.025223,-0.001832,-0.028322
984,-0.008979,0.0367,-0.009625
985,0.025223,0.017434,0.065162
986,0.025223,-0.001832,0.009072
987,-0.008979,-0.001832,-0.009625
988,-0.008979,-0.001832,-0.047018
989,-0.043182,-0.021098,-0.084412
990,-0.008979,-0.001832,-0.065715
991,0.008122,-0.021098,-0.047018
992,-0.008979,-0.001832,-0.047018
993,0.025223,-0.040364,-0.009625
994,0.008122,-0.05963,-0.047018
995,0.008122,-0.05963,-0.140502
996,0.008122,-0.117428,-0.196593
997,-0.008979,-0.001832,0.083859
998,0.008122,0.017434,0.214736
999,0.025223,0.094498,0.233433
1000,0.008122,0.210094,0.177343
1001,0.025223,0.152296,-0.009625
1002,0.025223,0.113764,-0.028322
1003,0.025223,0.017434,0.027769
1004,0.008122,-0.021098,-0.047018
1005,-0.008979,-0.001832,-0.047018
1006,-0.008979,-0.001832,0.027769
1007,0.042325,0.017434,0.027769
1008,0.008122,0.055966,0.009072
1009,0.008122,0.017434,0.027769
1010,0.008122,0.017434,-0.047018
1011,-0.026081,-0.001832,-0.009625
1012,0.008122,-0.040364,0.102556
1013,0.008122,-0.001832,0.046465
1014,0.008122,-0.001832,-0.009625
1015,0.008122,0.017434,0.046465
1016,0.008122,-0.001832,-0.028322
1017,0.008122,-0.001832,-0.047018
1018,0.008122,-0.001832,-0.065715
1019,0.008122,-0.021098,-0.047018
1020,-0.008979,-0.001832,-0.121806
1021,-0.008979,-0.078896,-0.196593
1022,0.008122,-0.078896,-0.215289
1023,0.025223,-0.05963,-0.159199
1024,0.025223,0.0367,0.196039
1025,0.025223,0.113764,0.121252
1026,0.025223,0.094498,0.046465
1027,0.025223,0.0367,0.139949
1028,0.025223,0.055966,0.009072
1029,0.042325,0.0367,0.027769
1030,0.008122,0.0367,0.083859
1031,0.025223,0.017434,0.121252
1032,-0.008979,-0.001832,0.139949
1033,-0.008979,-0.001832,0.065162
1034,0.008122,-0.021098,0.009072
1035,0.008122,-0.040364,0.027769
1036,-0.008979,-0.021098,-0.065715
1037,0.008122,-0.098162,-0.009625
1038,0.025223,-0.117428,-0.065715
1039,0.025223,-0.098162,-0.028322
1040,0.025223,-0.117428,-0.009625
1041,0.025223,-0.078896,-0.028322
1042,-0.008979,-0.001832,0.009072
1043,-0.008979,0.0367,-0.009625
1044,-0.008979,0.075232,-0.009625
1045,-0.008979,0.075232,-0.009625
1046,-0.043182,0.055966,-0.028322
1047,0.008122,0.075232,-0.028322
1048,0.008122,0.075232,-0.084412
1049,-0.008979,0.171562,-0.028322
1050,0.008122,0.13303,-0.047018
1051,0.025223,0.055966,-0.009625
1052,0.042325,-0.001832,-0.009625
1053,0.025223,-0.040364,0.046465
1054,0.025223,-0.001832,0.046465
1055,0.025223,0.0367,0.065162
1056,0.025223,0.0367,0.046465
1057,0.025223,0.094498,0.121252
1058,0.025223,0.094498,0.083859
1059,0.008122,0.094498,0.065162
1060,-0.008979,0.075232,0.009072
1061,-0.008979,0.0367,-0.084412
1062,0.008122,-0.001832,-0.177896
1063,-0.008979,-0.001832,-0.065715
1064,-0.008979,-0.021098,0.009072
1065,-0.026081,-0.098162,-0.047018
1066,0.008122,-0.078896,-0.009625
1067,0.025223,-0.021098,0.009072
1068,-0.026081,-0.040364,0.009072
1069,-0.026081,-0.078896,-0.009625
1070,-0.026081,-0.021098,-0.009625
1071,-0.026081,0.055966,0.009072
1072,0.008122,0.055966,0.009072
1073,-0.008979,0.0367,0.027769
1074,0.025223,0.017434,0.009072
1075,0.025223,0.017434,-0.028322
1076,0.008122,-0.021098,-0.065715
1077,0.025223,-0.040364,-0.028322
1078,0.042325,-0.001832,-0.084412
1079,0.042325,-0.001832,-0.028322
1080,0.042325,0.055966,0.177343
1081,0.042325,0.075232,0.046465
1082,0.025223,0.0367,0.065162
1083,0.042325,0.075232,0.046465
1084,0.025223,0.017434,-0.028322
1085,0.008122,0.017434,-0.009625
1086,0.025223,0.055966,-0.047018
1087,0.042325,0.0367,0.046465
1088,0.025223,0.0367,0.065162
1089,-0.008979,0.017434,0.027769
1090,0.042325,0.017434,-0.065715
1091,-0.008979,-0.05963,0.009072
1092,0.008122,-0.098162,0.083859
1093,-0.008979,-0.078896,0.027769
1094,-0.008979,-0.117428,-0.009625
1095,-0.043182,-0.117428,0.009072
1096,-0.026081,-0.05963,-0.009625
1097,-0.060283,-0.001832,-0.028322
1098,-0.043182,0.0367,-0.028322
1099,-0.026081,0.075232,-0.009625
1100,0.008122,0.094498,-0.028322
1101,-0.008979,0.152296,-0.028322
1102,-0.008979,0.13303,0.009072
1103,0.025223,0.055966,-0.028322
1104,0.059426,0.0367,-0.009625
1105,0.025223,-0.001832,-0.065715
1106,0.042325,-0.05963,-0.140502
1107,0.008122,-0.136694,-0.084412
1108,0.008122,-0.098162,-0.009625
1109,0.008122,-0.078896,-0.121806
1110,0.042325,0.094498,0.30822
1111,0.008122,0.113764,0.196039
1112,0.025223,0.017434,0.065162
1113,0.025223,0.017434,0.065162
1114,0.042325,0.055966,0.121252
1115,0.042325,0.055966,0.102556
1116,0.042325,0.075232,0.139949
1117,0.025223,-0.001832,-0.009625
1118,0.008122,-0.021098,-0.103109
1119,-0.026081,-0.05963,-0.047018
1120,-0.026081,-0.05963,-0.028322
1121,-0.026081,-0.021098,-0.047018
1122,-0.026081,-0.05963,-0.028322
1123,-0.043182,-0.021098,-0.065715
1124,0.008122,0.0367,-0.065715
1125,-0.008979,-0.001832,-0.009625
1126,0.008122,0.055966,-0.047018
1127,0.008122,0.13303,-0.009625
1128,0.042325,0.075232,-0.009625
1129,0.025223,0.075232,-0.028322
1130,0.042325,0.017434,-0.028322
1131,0.042325,-0.001832,0.009072
1132,-0.008979,-0.040364,0.027769
1133,0.008122,-0.040364,0.027769
1134,0.008122,-0.040364,0.027769
1135,0.008122,-0.021098,0.027769
1136,0.025223,-0.001832,0.046465
1137,0.025223,-0.001832,-0.009625
1138,0.025223,0.017434,0.027769
1139,-0.008979,0.055966,0.046465
1140,-0.026081,0.017434,0.009072
1141,-0.026081,-0.078896,-0.028322
1142,-0.043182,-0.098162,-0.065715
1143,0.008122,-0.213758,-0.028322
1144,-0.026081,-0.233024,-0.009625
1145,0.008122,-0.213758,-0.009625
1146,0.025223,-0.194492,-0.028322
1147,0.008122,-0.175226,-0.009625
1148,-0.008979,-0.078896,0.009072
1149,-0.026081,0.017434,-0.009625
1150,-0.162891,0.13303,-0.009625
1151,-0.162891,0.171562,-0.028322
1152,-0.060283,0.22936,-0.009625
1153,0.008122,0.306424,0.009072
1154,0.025223,0.287158,0.027769
1155,0.076527,0.32569,-0.009625
1156,0.144933,0.210094,0.046465
1157,0.144933,0.152296,-0.009625
1158,0.144933,0.094498,-0.028322
1159,0.127831,0.0367,-0.065715
1160,0.127831,-0.001832,-0.009625
1161,0.042325,-0.001832,-0.009625
1162,0.008122,0.017434,0.046465
1163,0.025223,0.017434,0.065162
1164,0.025223,0.055966,0.083859
1165,0.025223,0.0367,0.102556
1166,-0.008979,0.017434,0.009072
1167,-0.026081,0.017434,-0.028322
1168,0.008122,-0.021098,-0.047018
1169,0.008122,-0.001832,-0.047018
1170,0.008122,-0.001832,-0.009625
1171,0.008122,-0.001832,-0.009625
1172,-0.026081,0.017434,0.027769
1173,-0.008979,-0.001832,-0.047018
1174,-0.026081,-0.05963,-0.028322
1175,-0.026081,-0.05963,0.009072
1176,-0.008979,-0.05963,-0.028322
1177,-0.008979,-0.040364,-0.047018
1178,-0.026081,-0.05963,-0.009625
1179,-0.008979,-0.040364,-0.047018
1180,-0.026081,-0.001832,-0.028322
1181,0.025223,-0.001832,0.009072
1182,0.008122,0.017434,-0.028322
1183,-0.008979,-0.001832,-0.047018
1184,-0.008979,-0.021098,-0.009625
1185,-0.026081,-0.040364,-0.028322
1186,-0.026081,-0.040364,-0.065715
1187,-0.008979,0.017434,-0.028322
1188,-0.008979,0.055966,0.027769
1189,0.008122,0.055966,0.065162
1190,0.025223,0.094498,0.121252
1191,0.042325,0.017434,0.083859
1192,0.025223,0.055966,0.102556
1193,0.025223,0.0367,0.121252
1194,0.025223,0.055966,0.083859
1195,0.025223,0.017434,-0.047018
1196,0.008122,-0.021098,-0.065715
1197,-0.008979,-0.040364,-0.084412
1198,-0.026081,-0.021098,-0.084412
1199,-0.026081,-0.040364,-0.065715
1200,0.025223,-0.05963,-0.047018
1201,0.008122,-0.05963,-0.065715
1202,-0.008979,-0.021098,0.009072
1203,-0.026081,-0.021098,-0.009625
1204,-0.043182,-0.040364,0.009072
1205,-0.043182,0.017434,0.009072
1206,-0.026081,-0.001832,0.027769
1207,-0.026081,0.017434,-0.009625
1208,0.008122,0.017434,-0.028322
1209,0.008122,0.017434,-0.009625
1210,0.025223,-0.001832,-0.028322
1211,0.042325,-0.001832,-0.028322
1212,0.025223,0.017434,0.046465
1213,0.008122,-0.001832,0.046465
1214,0.008122,0.017434,-0.047018
1215,0.008122,0.017434,0.009072
1216,0.025223,-0.001832,0.046465
1217,0.008122,-0.001832,0.065162
1218,0.008122,-0.05963,0.027769
1219,-0.008979,-0.040364,-0.028322
1220,-0.008979,-0.040364,-0.047018
1221,-0.026081,-0.021098,-0.047018
1222,-0.008979,-0.021098,-0.028322
1223,-0.043182,0.017434,-0.047018
1224,-0.008979,0.0367,0.046465
1225,-0.008979,0.075232,0.046465
1226,0.042325,0.075232,-0.009625
1227,-0.008979,0.017434,-0.009625
1228,0.008122,-0.040364,-0.009625
1229,0.008122,-0.098162,-0.047018
1230,-0.008979,-0.078896,-0.028322
1231,0.008122,-0.098162,0.027769
1232,-0.008979,-0.078896,0.009072
1233,-0.060283,-0.078896,0.009072
1234,-0.008979,-0.021098,-0.009625
1235,0.008122,0.055966,0.027769
1236,-0.008979,0.113764,0.027769
1237,0.025223,0.094498,-0.009625
1238,0.076527,0.075232,-0.028322
1239,0.093629,0.094498,-0.009625
1240,0.093629,0.13303,-0.009625
1241,-0.008979,0.13303,0.009072
1242,-0.043182,0.13303,-0.009625
1243,-0.026081,0.017434,-0.028322
1244,-0.026081,0.017434,-0.009625
1245,-0.008979,-0.001832,-0.047018
1246,-0.026081,0.017434,0.027769
1247,-0.008979,0.0367,0.046465
1248,0.008122,0.0367,0.083859
1249,0.025223,0.0367,0.009072
1250,0.008122,0.017434,0.027769
1251,0.008122,0.017434,0.046465
1252,0.025223,0.017434,0.027769
1253,-0.008979,-0.001832,-0.009625
1254,-0.008979,-0.001832,-0.028322
1255,-0.026081,-0.021098,0.046465
1256,-0.026081,-0.021098,0.083859
1257,0.025223,0.017434,0.046465
1258,0.008122,-0.021098,-0.047018
1259,-0.026081,-0.021098,-0.009625
1260,-0.008979,-0.021098,-0.047018
1261,-0.008979,-0.021098,-0.103109
1262,0.008122,-0.021098,-0.065715
1263,-0.008979,-0.001832,-0.065715
1264,-0.043182,-0.040364,-0.009625
1265,-0.060283,-0.001832,0.027769
1266,-0.043182,0.0367,0.027769
1267,-0.026081,0.055966,0.009072
1268,-0.026081,0.017434,0.027769
1269,-0.008979,0.0367,0.009072
1270,-0.008979,0.055966,-0.028322
1271,0.008122,0.055966,0.009072
1272,0.025223,0.055966,-0.028322
1273,0.025223,0.0367,-0.028322
1274,0.008122,-0.001832,0.027769
1275,0.008122,0.017434,0.102556
1276,-0.008979,-0.001832,0.046465
1277,-0.008979,0.017434,0.027769
1278,0.008122,0.017434,0.046465
1279,-0.026081,-0.021098,-0.047018
1280,-0.008979,-0.001832,-0.196593
1281,0.008122,-0.040364,-0.084412
1282,-0.026081,-0.040364,-0.065715
1283,-0.026081,-0.021098,-0.009625
1284,0.008122,-0.021098,0.046465
1285,0.008122,-0.001832,0.046465
1286,0.008122,-0.001832,0.046465
1287,-0.026081,-0.001832,0.065162
1288,-0.026081,0.017434,0.009072
1289,-0.008979,0.017434,-0.009625
1290,-0.026081,0.017434,0.009072
1291,0.008122,0.017434,-0.028322
1292,0.008122,0.017434,-0.028322
1293,-0.008979,0.017434,-0.028322
1294,0.025223,0.017434,0.027769
1295,-0.026081,-0.001832,0.009072
1296,0.025223,0.017434,-0.009625
1297,0.008122,0.0367,0.009072
1298,0.008122,0.017434,0.027769
1299,0.008122,0.017434,0.065162
1300,0.008122,0.017434,0.027769
1301,0.008122,0.0367,0.009072
1302,0.008122,-0.001832,0.027769
1303,0.025223,-0.117428,0.027769
1304,-0.008979,-0.290821,0.009072
1305,-0.043182,-0.310087,0.009072
1306,-0.077385,-0.290821,0.027769
1307,-0.094486,-0.213758,-0.047018
1308,-0.077385,-0.078896,0.027769
1309,-0.128689,0.0367,-0.028322
1310,-0.128689,0.152296,-0.047018
1311,-0.043182,0.287158,-0.028322
1312,0.025223,0.364222,-0.028322
1313,0.093629,0.32569,-0.047018
1314,0.059426,0.22936,0.009072
1315,0.042325,0.113764,-0.009625
1316,0.11073,0.094498,0.009072
1317,0.144933,0.152296,0.027769
1318,0.11073,0.13303,0.027769
1319,0.076527,0.113764,0.009072
1320,0.042325,0.113764,-0.028322
1321,0.042325,0.0367,0.009072
1322,0.008122,-0.001832,-0.009625
1323,0.025223,-0.021098,-0.028322
1324,0.025223,0.017434,0.027769
1325,0.008122,-0.021098,0.027769
1326,-0.008979,-0.040364,-0.028322
1327,0.008122,-0.021098,0.027769
1328,-0.026081,0.017434,0.046465
1329,-0.008979,-0.021098,0.027769
1330,-0.008979,-0.040364,0.046465
1331,-0.026081,-0.021098,-0.009625
1332,-0.008979,-0.078896,-0.047018
1333,0.008122,-0.05963,-0.009625
1334,0.059426,-0.021098,0.027769
1335,0.025223,0.0367,-0.009625
1336,0.008122,0.017434,0.009072
1337,0.025223,0.0367,0.027769
1338,-0.026081,0.094498,0.009072
1339,-0.111587,0.055966,0.046465
1340,-0.043182,-0.001832,0.009072
1341,-0.026081,0.0367,0.009072
1342,-0.008979,-0.001832,0.009072
1343,-0.008979,-0.001832,0.046465
1344,-0.008979,-0.021098,0.027769
1345,0.008122,-0.001832,0.083859
1346,0.008122,-0.001832,0.065162
1347,-0.026081,-0.040364,0.009072
1348,-0.008979,-0.040364,0.009072
1349,-0.026081,-0.098162,0.009072
1350,-0.060283,-0.078896,-0.047018
1351,-0.026081,-0.040364,-0.121806
1352,-0.008979,-0.05963,-0.028322
1353,-0.008979,-0.001832,-0.047018
1354,0.042325,-0.021098,-0.009625
1355,-0.026081,-0.021098,-0.009625
1356,-0.008979,-0.021098,-0.084412
1357,0.008122,-0.040364,-0.047018
1358,-0.026081,0.0367,-0.009625
1359,-0.026081,0.075232,-0.028322
1360,-0.008979,0.0367,-0.009625
1361,-0.008979,0.075232,-0.009625
1362,0.008122,0.075232,-0.009625
1363,0.008122,0.075232,-0.028322
1364,0.042325,0.094498,-0.047018
1365,0.008122,0.017434,-0.028322
1366,0.008122,0.0367,0.009072
1367,0.008122,0.0367,-0.009625
1368,-0.008979,-0.001832,0.009072
1369,0.008122,0.017434,0.027769
1370,0.008122,-0.001832,0.009072
1371,-0.008979,0.0367,0.083859
1372,0.008122,0.017434,0.009072
1373,-0.026081,0.0367,0.065162
1374,0.008122,-0.001832,0.083859
1375,0.008122,0.017434,-0.028322
1376,-0.008979,-0.040364,-0.065715
1377,0.008122,-0.040364,0.027769
1378,0.008122,-0.001832,0.009072
1379,-0.008979,-0.05963,-0.028322
1380,-0.008979,-0.021098,0.027769
1381,-0.043182,-0.021098,0.009072
1382,0.008122,0.017434,-0.009625
1383,-0.026081,0.017434,0.009072
1384,-0.008979,-0.001832,-0.047018
1385,0.025223,0.017434,0.009072
1386,0.008122,0.017434,0.009072
1387,0.025223,0.0367,0.009072
1388,0.042325,-0.021098,0.009072
1389,-0.008979,-0.021098,0.027769
1390,0.008122,-0.001832,-0.047018
1391,-0.043182,-0.05963,-0.028322
1392,-0.026081,-0.040364,-0.028322
1393,-0.043182,-0.05963,-0.047018
1394,-0.060283,-0.098162,-0.009625
1395,-0.026081,-0.078896,-0.009625
1396,-0.077385,-0.001832,0.009072
1397,-0.077385,0.0367,0.009072
1398,-0.060283,0.017434,0.027769
1399,-0.008979,-0.001832,-0.009625
1400,0.008122,0.0367,-0.009625
1401,0.008122,0.094498,-0.047018
1402,0.076527,0.055966,-0.009625
1403,0.042325,0.0367,-0.028322
1404,0.076527,0.0367,0.009072
1405,0.025223,0.0367,0.027769
1406,0.008122,0.113764,0.027769
1407,0.042325,0.017434,0.046465
1408,0.025223,-0.05963,0.046465
1409,0.008122,-0.040364,0.027769
1410,0.025223,-0.05963,0.009072
1411,-0.008979,-0.05963,0.009072
1412,0.008122,-0.040364,-0.009625
1413,-0.008979,-0.078896,-0.028322
1414,-0.008979,0.0367,0.009072
1415,-0.008979,0.055966,0.065162
1416,0.059426,0.171562,0.027769
1417,0.059426,0.075232,0.046465
1418,0.025223,0.094498,0.046465
1419,0.059426,0.152296,-0.009625
1420,0.008122,0.190828,-0.047018
1421,-0.008979,0.113764,-0.065715
1422,-0.14579,0.113764,-0.028322
1423,-0.077385,0.094498,0.009072
1424,-0.043182,0.055966,-0.009625
1425,-0.026081,-0.001832,-0.028322
1426,-0.026081,0.017434,-0.009625
1427,0.008122,0.017434,-0.009625
1428,-0.008979,-0.021098,-0.009625
1429,0.008122,-0.021098,0.065162
1430,0.025223,-0.001832,0.046465
1431,-0.026081,-0.001832,0.009072
1432,0.008122,-0.021098,-0.009625
1433,-0.008979,-0.001832,-0.009625
1434,-0.008979,0.017434,-0.047018
1435,-0.026081,0.017434,-0.009625
1436,-0.008979,-0.021098,0.046465
1437,-0.008979,-0.001832,0.009072
1438,0.008122,-0.021098,-0.028322
1439,-0.008979,-0.021098,0.046465
1440,0.025223,-0.001832,0.009072
1441,0.008122,-0.05963,-0.009625
1442,-0.008979,-0.040364,0.009072
1443,0.008122,-0.021098,-0.009625
1444,0.008122,0.017434,0.065162
1445,0.008122,0.017434,0.009072
1446,-0.008979,-0.021098,-0.009625
1447,-0.008979,-0.021098,-0.028322
1448,0.008122,-0.021098,-0.028322
1449,-0.026081,-0.021098,-0.009625
1450,-0.008979,0.017434,0.009072
1451,-0.008979,0.017434,0.009072
1452,0.008122,-0.021098,-0.028322
1453,0.008122,-0.021098,-0.047018
1454,0.008122,-0.040364,-0.047018
1455,0.025223,-0.001832,-0.047018
1456,-0.026081,-0.040364,-0.028322
1457,-0.026081,0.017434,0.027769
1458,0.008122,0.017434,0.027769
1459,-0.008979,0.0367,-0.028322
1460,-0.008979,0.055966,-0.065715
1461,-0.008979,-0.001832,-0.028322
1462,-0.026081,-0.001832,-0.065715
1463,-0.008979,0.055966,-0.047018
1464,-0.008979,0.017434,-0.028322
1465,0.008122,0.017434,-0.028322
1466,0.008122,0.017434,0.027769
1467,-0.008979,-0.001832,0.046465
1468,0.008122,-0.001832,0.027769
1469,0.025223,-0.001832,-0.009625
1470,-0.008979,-0.001832,0.009072
1471,-0.008979,-0.021098,0.009072
1472,-0.008979,-0.05963,-0.009625
1473,-0.008979,-0.05963,0.009072
1474,-0.008979,-0.040364,-0.009625
1475,-0.026081,-0.040364,0.009072
1476,-0.043182,-0.040364,0.027769
1477,-0.026081,-0.001832,0.027769
1478,-0.026081,-0.001832,-0.009625
1479,-0.008979,-0.021098,0.046465
1480,-0.008979,-0.001832,-0.009625
1481,-0.008979,0.0367,-0.028322
1482,0.008122,0.0367,-0.028322
1483,-0.008979,-0.021098,-0.028322
1484,0.025223,-0.078896,-0.047018
1485,0.025223,-0.098162,-0.009625
1486,0.008122,-0.040364,0.027769
1487,0.008122,-0.001832,0.027769
1488,-0.043182,0.017434,0.027769
1489,-0.043182,0.075232,0.009072
1490,-0.043182,0.113764,-0.009625
1491,-0.008979,0.094498,0.009072
1492,-0.008979,-0.001832,0.009072
1493,0.008122,-0.175226,0.009072
1494,0.042325,-0.175226,-0.009625
1495,0.008122,-0.175226,-0.009625
1496,0.042325,-0.15596,0.027769
1497,-0.060283,-0.117428,-0.009625
1498,-0.077385,-0.021098,0.009072
1499,0.008122,0.13303,0.027769
1500,0.025223,0.210094,-0.028322
1501,0.008122,0.267892,0.027769
1502,0.042325,0.210094,-0.009625
1503,0.042325,0.152296,0.009072
1504,0.025223,0.13303,0.027769
1505,-0.008979,0.0367,0.027769
1506,-0.043182,0.055966,-0.028322
1507,-0.026081,0.094498,0.009072
1508,-0.008979,0.13303,0.027769
1509,-0.008979,0.152296,-0.009625
1510,-0.008979,0.13303,0.009072
1511,0.025223,0.113764,0.027769
1512,0.025223,0.075232,0.009072
1513,0.059426,0.094498,-0.009625
1514,0.042325,0.055966,0.046465
1515,0.025223,0.017434,-0.009625
1516,0.008122,-0.021098,0.009072
1517,0.008122,-0.021098,0.027769
1518,-0.008979,-0.021098,0.009072
1519,-0.026081,-0.05963,-0.065715
1520,-0.008979,-0.040364,-0.028322
1521,-0.026081,0.0367,-0.028322
1522,-0.026081,-0.001832,0.009072
1523,-0.026081,-0.021098,0.009072
1524,0.008122,-0.040364,0.027769
1525,-0.008979,0.017434,0.027769
1526,-0.008979,-0.001832,0.046465
1527,0.008122,-0.021098,0.102556
1528,0.008122,0.017434,0.083859
1529,-0.008979,-0.021098,0.027769
1530,-0.008979,-0.021098,-0.028322
1531,0.008122,-0.001832,-0.009625
1532,-0.008979,-0.001832,-0.047018
1533,-0.008979,-0.021098,-0.103109
1534,-0.043182,-0.040364,-0.103109
1535,-0.008979,-0.021098,-0.009625
1536,-0.008979,-0.021098,-0.009625
1537,-0.026081,-0.05963,-0.009625
1538,-0.026081,-0.021098,0.027769
1539,-0.008979,0.017434,0.083859
1540,-0.008979,-0.021098,0.046465
1541,-0.008979,-0.040364,-0.028322
1542,-0.008979,-0.021098,-0.009625
1543,-0.008979,-0.001832,-0.028322
1544,-0.008979,-0.021098,-0.065715
1545,0.008122,-0.040364,0.009072
1546,-0.008979,0.017434,-0.028322
1547,0.008122,-0.021098,-0.028322
1548,0.008122,-0.001832,-0.028322
1549,0.025223,0.017434,-0.028322
1550,-0.008979,0.0367,-0.047018
1551,0.008122,0.017434,-0.009625
1552,0.008122,0.017434,-0.009625
1553,-0.026081,0.017434,-0.009625
1554,-0.026081,-0.021098,-0.009625
1555,-0.026081,-0.021098,-0.009625
1556,-0.026081,-0.040364,-0.065715
1557,-0.008979,0.017434,-0.009625
1558,-0.008979,-0.001832,0.009072
1559,0.008122,0.017434,-0.009625
1560,0.025223,-0.021098,0.065162
1561,0.025223,-0.001832,0.046465
1562,0.008122,0.0367,0.009072
1563,0.008122,-0.001832,-0.009625
1564,0.042325,0.055966,0.009072
1565,-0.008979,0.0367,-0.009625
1566,-0.008979,0.0367,-0.009625
1567,0.008122,-0.001832,0.027769
1568,-0.026081,-0.001832,0.065162
1569,0.025223,0.017434,0.046465
1570,0.008122,-0.001832,-0.028322
1571,-0.008979,-0.040364,-0.028322
1572,-0.008979,-0.021098,-0.065715
1573,-0.008979,-0.05963,-0.028322
1574,-0.008979,-0.05963,-0.028322
1575,-0.008979,-0.05963,-0.047018
1576,0.008122,-0.05963,0.009072
1577,-0.026081,-0.117428,0.009072
1578,-0.026081,-0.136694,0.009072
1579,-0.026081,-0.136694,0.027769
1580,-0.008979,-0.021098,0.027769
1581,0.008122,0.075232,0.009072
1582,0.025223,0.152296,0.027769
1583,0.025223,0.210094,-0.009625
1584,0.025223,0.210094,-0.028322
1585,0.008122,0.248626,0.009072
1586,-0.008979,0.171562,0.046465
1587,-0.026081,0.075232,-0.009625
1588,-0.026081,-0.001832,0.009072
1589,-0.026081,-0.040364,0.027769
1590,-0.026081,-0.05963,0.027769
1591,-0.008979,-0.078896,0.027769
1592,-0.026081,-0.05963,0.009072
1593,-0.026081,-0.098162,-0.028322
1594,-0.026081,-0.098162,-0.028322
1595,-0.008979,-0.078896,-0.009625
1596,-0.026081,-0.040364,-0.028322
1597,-0.043182,-0.021098,0.009072
1598,-0.026081,-0.021098,0.027769
1599,-0.043182,0.055966,0.027769
1600,0.008122,0.152296,0.027769
1601,0.042325,0.190828,0.027769
1602,0.042325,0.075232,-0.009625
1603,0.025223,-0.05963,-0.028322
1604,0.008122,-0.05963,-0.028322
1605,0.008122,0.017434,-0.028322
1606,-0.026081,0.055966,-0.009625
1607,-0.008979,0.055966,0.009072
1608,-0.008979,0.055966,0.009072
1609,-0.008979,0.075232,-0.009625
1610,-0.026081,0.094498,0.009072
1611,-0.026081,0.094498,-0.009625
1612,-0.008979,0.017434,-0.009625
1613,-0.026081,-0.021098,0.009072
1614,0.008122,0.017434,0.046465
1615,0.008122,-0.021098,0.027769
1616,-0.026081,0.017434,0.027769
1617,0.008122,0.017434,0.009072
1618,-0.026081,-0.001832,0.009072
1619,-0.008979,-0.001832,0.027769
1620,-0.008979,0.017434,0.009072
1621,0.008122,-0.001832,-0.028322
1622,0.008122,0.017434,0.046465
1623,-0.008979,-0.021098,-0.009625
1624,0.008122,-0.001832,-0.009625
1625,-0.008979,-0.001832,-0.065715
1626,-0.026081,-0.001832,-0.009625
1627,-0.008979,-0.040364,0.009072
1628,-0.026081,-0.021098,0.027769
1629,0.008122,-0.001832,0.009072
1630,-0.008979,-0.001832,0.009072
1631,-0.008979,-0.001832,0.009072
1632,-0.008979,0.055966,0.009072
1633,-0.008979,-0.001832,-0.047018
1634,-0.026081,0.017434,-0.047018
1635,-0.008979,0.017434,0.027769
1636,-0.008979,-0.001832,0.027769
1637,0.008122,0.0367,0.121252
1638,-0.026081,0.0367,0.121252
1639,0.025223,-0.001832,0.083859
1640,-0.008979,-0.001832,0.009072
1641,-0.008979,-0.001832,0.027769
1642,-0.008979,0.017434,-0.028322
1643,0.008122,0.017434,-0.103109
1644,-0.008979,-0.040364,-0.103109
1645,-0.026081,-0.021098,-0.159199
1646,-0.008979,-0.040364,-0.084412
1647,-0.008979,0.017434,0.009072
1648,0.008122,-0.001832,0.027769
1649,0.008122,0.017434,0.046465
1650,-0.008979,-0.021098,0.046465
1651,0.008122,-0.001832,-0.009625
1652,-0.008979,-0.001832,-0.028322
1653,0.025223,-0.001832,0.009072
1654,-0.008979,-0.040364,-0.047018
1655,-0.008979,-0.05963,-0.084412
1656,-0.008979,-0.040364,0.009072
1657,-0.008979,-0.021098,-0.028322
1658,-0.008979,-0.001832,-0.009625
1659,-0.026081,0.017434,0.027769
1660,0.008122,0.0367,0.046465
1661,0.008122,0.075232,0.027769
1662,-0.008979,0.055966,0.009072
1663,0.008122,0.0367,-0.047018
1664,0.008122,0.017434,-0.028322
1665,-0.008979,-0.021098,-0.009625
1666,-0.008979,-0.001832,-0.028322
1667,0.008122,-0.001832,-0.009625
1668,-0.008979,0.017434,0.027769
1669,-0.008979,-0.001832,0.027769
1670,0.008122,-0.001832,-0.009625
1671,-0.008979,-0.021098,0.009072
1672,-0.008979,-0.001832,0.027769
1673,0.008122,-0.021098,-0.028322
1674,-0.008979,-0.021098,-0.028322
1675,0.008122,-0.136694,-0.009625
1676,-0.008979,-0.136694,-0.028322
1677,-0.043182,-0.078896,-0.009625
1678,-0.026081,-0.098162,0.065162
1679,-0.026081,-0.021098,0.027769
1680,-0.026081,0.0367,0.046465
1681,-0.008979,0.017434,0.027769
1682,0.008122,0.13303,0.046465
1683,0.025223,0.113764,-0.009625
1684,-0.008979,0.094498,-0.009625
1685,0.025223,0.0367,-0.009625
1686,0.025223,0.055966,-0.009625
1687,0.025223,0.075232,0.009072
1688,0.008122,-0.021098,-0.047018
1689,-0.026081,-0.021098,-0.009625
1690,-0.026081,-0.021098,0.009072
1691,-0.008979,-0.136694,-0.028322
1692,-0.008979,-0.175226,0.027769
1693,-0.043182,-0.117428,0.009072
1694,-0.026081,-0.040364,-0.028322
1695,-0.026081,0.094498,-0.009625
1696,0.008122,0.152296,0.009072
1697,0.025223,0.22936,-0.047018
1698,0.042325,0.287158,-0.009625
1699,0.025223,0.248626,0.046465
1700,0.025223,0.13303,0.046465
1701,0.008122,0.055966,0.046465
1702,0.008122,0.094498,0.046465
1703,-0.008979,0.0367,0.027769
1704,-0.008979,0.0367,0.009072
1705,0.025223,0.055966,0.046465
1706,0.025223,0.075232,0.027769
1707,0.008122,-0.001832,0.027769
1708,0.008122,-0.021098,0.009072
1709,-0.008979,-0.001832,0.009072
1710,-0.026081,0.017434,-0.009625
1711,-0.043182,-0.021098,-0.009625
1712,-0.026081,-0.021098,-0.047018
1713,-0.008979,-0.021098,-0.028322
1714,-0.026081,-0.001832,-0.009625
1715,-0.008979,-0.05963,-0.065715
1716,-0.008979,-0.021098,-0.009625
1717,-0.008979,-0.021098,0.027769
1718,0.025223,0.017434,0.065162
1719,-0.008979,-0.021098,0.046465
1720,-0.008979,0.017434,0.046465
1721,0.008122,-0.001832,0.046465
1722,-0.008979,-0.021098,-0.047018
1723,-0.008979,-0.001832,-0.028322
1724,0.008122,0.017434,-0.084412
1725,-0.026081,0.017434,-0.065715
1726,-0.026081,-0.001832,-0.047018
1727,-0.008979,-0.040364,0.009072
1728,-0.008979,0.0367,0.009072
1729,-0.026081,-0.001832,0.027769
1730,0.008122,-0.001832,0.065162
1731,-0.008979,0.017434,0.027769
1732,-0.008979,-0.021098,0.027769
1733,0.008122,-0.001832,-0.028322
1734,0.008122,-0.021098,-0.028322
1735,-0.008979,-0.001832,-0.028322
1736,-0.008979,0.017434,-0.047018
1737,0.008122,-0.001832,-0.103109
1738,-0.008979,-0.001832,-0.047018
1739,-0.008979,-0.021098,-0.028322
1740,-0.008979,-0.001832,0.046465
1741,-0.008979,-0.001832,0.027769
1742,-0.008979,-0.040364,0.065162
1743,0.008122,-0.040364,-0.009625
1744,-0.026081,-0.001832,-0.009625
1745,-0.008979,0.017434,0.009072
1746,-0.008979,0.017434,0.009072
1747,-0.008979,0.017434,-0.028322
1748,0.025223,0.055966,-0.009625
1749,-0.008979,0.017434,0.027769
1750,-0.008979,-0.001832,0.046465
1751,-0.008979,0.017434,0.027769
1752,0.008122,-0.001832,0.009072
1753,0.008122,-0.001832,-0.009625
1754,0.025223,-0.001832,0.046465
1755,0.008122,-0.001832,0.046465
1756,0.025223,-0.021098,0.009072
1757,-0.008979,-0.001832,-0.009625
1758,-0.026081,-0.021098,-0.065715
1759,-0.008979,-0.001832,-0.009625
1760,0.008122,-0.001832,-0.028322
1761,0.008122,-0.001832,-0.009625
1762,0.025223,-0.021098,0.009072
1763,-0.008979,-0.001832,0.027769
1764,0.008122,-0.05963,0.009072
1765,0.025223,-0.021098,-0.047018
1766,0.008122,-0.021098,-0.047018
1767,-0.008979,0.0367,-0.028322
1768,-0.008979,-0.001832,-0.028322
1769,0.008122,-0.021098,0.009072
1770,0.008122,0.0367,0.027769
1771,-0.008979,0.075232,0.009072
1772,0.008122,-0.040364,0.009072
1773,-0.008979,-0.098162,0.027769
1774,-0.008979,-0.136694,-0.009625
1775,0.008122,-0.117428,-0.047018
1776,-0.008979,-0.078896,-0.009625
1777,-0.008979,-0.05963,-0.028322
1778,0.008122,0.017434,0.009072
1779,-0.026081,0.0367,0.009072
1780,-0.026081,0.075232,0.009072
1781,-0.008979,0.075232,0.046465
1782,0.008122,0.075232,0.046465
1783,0.008122,0.055966,0.027769
1784,0.008122,0.017434,0.027769
1785,-0.008979,0.0367,0.046465
1786,-0.008979,0.094498,0.027769
1787,-0.008979,0.075232,-0.047018
1788,0.008122,0.075232,-0.009625
1789,0.008122,0.017434,-0.028322
1790,-0.008979,0.075232,0.009072
1791,0.008122,0.0367,-0.028322
1792,0.025223,0.055966,0.009072
1793,0.008122,-0.021098,0.009072
1794,0.008122,0.017434,0.027769
1795,0.008122,0.0367,-0.047018
1796,-0.008979,0.075232,-0.065715
1797,-0.008979,0.017434,-0.028322
1798,-0.026081,0.017434,-0.065715
1799,0.008122,-0.040364,-0.047018
1800,0.008122,-0.001832,-0.009625
1801,-0.026081,0.0367,0.009072
1802,-0.026081,-0.001832,0.009072
1803,-0.008979,-0.001832,0.027769
1804,-0.026081,0.017434,0.027769
1805,-0.026081,0.017434,0.027769
1806,-0.026081,-0.021098,0.009072
1807,0.008122,-0.001832,0.009072
1808,0.025223,-0.001832,-0.009625
1809,0.008122,0.017434,-0.009625
1810,-0.008979,-0.001832,-0.028322
1811,0.008122,-0.001832,-0.047018
1812,-0.008979,-0.021098,0.027769
1813,0.008122,-0.001832,0.046465
1814,-0.008979,0.017434,0.027769
1815,-0.008979,0.017434,0.009072
1816,-0.008979,0.017434,0.027769
1817,-0.008979,-0.001832,0.009072
1818,0.008122,-0.021098,-0.009625
1819,-0.008979,-0.021098,-0.009625
1820,0.008122,0.017434,-0.065715
1821,0.008122,-0.040364,-0.047018
1822,0.008122,-0.021098,-0.065715
1823,-0.008979,-0.001832,-0.065715
1824,-0.008979,-0.001832,-0.009625
1825,-0.008979,-0.001832,0.009072
1826,-0.008979,-0.021098,0.009072
1827,-0.026081,-0.021098,-0.009625
1828,0.008122,-0.001832,0.027769
1829,0.008122,-0.001832,-0.028322
1830,0.008122,-0.021098,0.027769
1831,0.008122,-0.001832,0.027769
1832,-0.008979,-0.001832,0.083859
1833,0.008122,0.017434,0.027769
1834,-0.008979,-0.001832,0.027769
1835,0.008122,0.0367,-0.009625
1836,0.025223,0.0367,-0.009625
1837,-0.026081,0.017434,0.009072
1838,0.008122,0.017434,0.027769
1839,-0.026081,0.017434,0.009072
1840,0.008122,0.017434,0.027769
1841,0.025223,-0.001832,0.046465
1842,0.008122,-0.021098,-0.028322
1843,0.008122,-0.001832,-0.065715
1844,-0.008979,-0.021098,-0.047018
1845,-0.008979,-0.021098,-0.028322
1846,-0.008979,-0.001832,-0.028322
1847,-0.026081,-0.001832,-0.009625
1848,0.008122,0.017434,-0.028322
1849,-0.008979,-0.021098,0.009072
1850,0.008122,-0.021098,0.009072
1851,0.008122,-0.001832,-0.047018
1852,-0.026081,-0.040364,0.027769
1853,0.008122,0.017434,0.027769
1854,-0.008979,-0.001832,0.027769
1855,0.008122,-0.040364,0.009072
1856,0.008122,-0.021098,0.009072
1857,-0.026081,-0.098162,-0.009625
1858,0.042325,-0.117428,-0.028322
1859,-0.008979,-0.117428,-0.028322
1860,-0.026081,-0.078896,-0.028322
1861,-0.008979,-0.05963,0.009072
1862,-0.043182,0.017434,0.027769
1863,-0.026081,0.055966,0.027769
1864,-0.026081,0.13303,-0.009625
1865,0.008122,0.171562,0.046465
1866,0.025223,0.0367,-0.009625
1867,-0.008979,-0.001832,-0.028322
1868,0.025223,-0.040364,-0.028322
1869,0.008122,-0.040364,-0.009625
1870,0.025223,-0.001832,-0.009625
1871,-0.008979,0.0367,0.027769
1872,-0.008979,0.0367,0.065162
1873,0.025223,0.113764,0.046465
1874,0.042325,0.152296,0.046465
1875,0.042325,0.094498,0.027769
1876,0.008122,-0.021098,0.009072
1877,-0.026081,-0.098162,-0.047018
1878,-0.008979,-0.117428,-0.065715
1879,-0.008979,-0.117428,-0.084412
1880,-0.008979,-0.078896,-0.009625
1881,0.008122,-0.001832,-0.009625
1882,-0.008979,0.094498,0.027769
1883,-0.008979,0.094498,0.027769
1884,-0.008979,0.055966,0.046465
1885,-0.008979,0.113764,0.009072
1886,0.008122,0.094498,0.009072
1887,0.025223,0.13303,0.027769
1888,-0.008979,0.075232,-0.009625
1889,0.008122,0.017434,-0.047018
1890,0.025223,0.017434,-0.028322
1891,-0.026081,-0.021098,0.027769
1892,-0.026081,0.017434,-0.028322
1893,-0.008979,-0.021098,-0.028322
1894,-0.008979,-0.001832,0.009072
1895,0.008122,0.017434,-0.009625
1896,0.008122,0.017434,0.046465
1897,-0.008979,-0.001832,0.009072
1898,0.008122,0.0367,0.027769
1899,0.008122,-0.001832,0.027769
1900,-0.026081,-0.040364,0.009072
1901,-0.043182,-0.021098,-0.028322
1902,0.008122,-0.001832,0.046465
1903,0.008122,-0.001832,0.027769
1904,0.008122,-0.040364,-0.065715
1905,0.008122,-0.021098,-0.009625
1906,-0.026081,0.017434,0.009072
1907,0.008122,-0.001832,-0.009625
1908,-0.008979,-0.021098,-0.009625
1909,0.008122,-0.021098,0.009072
1910,0.025223,-0.001832,-0.009625
1911,-0.008979,0.017434,0.046465
1912,0.008122,0.017434,0.083859
1913,0.008122,0.017434,0.046465
1914,-0.008979,-0.001832,0.027769
1915,-0.008979,0.017434,0.027769
1916,0.008122,-0.021098,0.009072
1917,-0.008979,-0.001832,-0.047018
1918,0.008122,-0.001832,-0.047018
1919,-0.026081,-0.001832,-0.065715
1920,0.008122,-0.001832,-0.028322
1921,-0.008979,-0.001832,0.009072
1922,-0.008979,-0.021098,-0.028322
1923,0.008122,-0.001832,-0.028322
1924,-0.008979,-0.040364,-0.009625
1925,0.008122,-0.021098,-0.009625
1926,0.008122,-0.021098,0.009072
1927,-0.008979,-0.021098,0.009072
1928,0.008122,0.017434,0.009072
1929,-0.008979,0.017434,-0.009625
1930,-0.008979,0.017434,0.009072
1931,0.008122,-0.001832,0.065162
1932,-0.008979,-0.001832,0.009072
1933,0.008122,-0.001832,0.046465
1934,-0.008979,-0.001832,0.027769
1935,0.008122,-0.001832,0.009072
1936,-0.008979,0.017434,-0.009625
1937,0.008122,-0.040364,0.009072
1938,0.008122,-0.001832,-0.009625
1939,0.008122,-0.001832,-0.009625
1940,-0.008979,0.017434,0.009072
1941,-0.008979,-0.001832,-0.009625
1942,0.008122,-0.001832,0.009072
1943,0.008122,-0.021098,0.046465
1944,0.025223,-0.001832,0.027769
1945,0.008122,-0.021098,0.027769
1946,-0.008979,-0.040364,0.027769
1947,0.008122,-0.001832,-0.009625
1948,-0.008979,-0.021098,-0.028322
1949,-0.026081,-0.021098,-0.065715
1950,-0.008979,-0.05963,-0.103109
1951,0.025223,-0.021098,-0.047018
1952,0.093629,-0.001832,0.027769
1953,0.008122,0.055966,0.009072
1954,-0.026081,0.017434,0.009072
1955,-0.060283,-0.040364,-0.009625
1956,-0.043182,-0.021098,-0.047018
1957,0.008122,0.0367,-0.065715
1958,0.008122,0.055966,-0.009625
1959,0.008122,-0.021098,0.009072
1960,0.008122,-0.040364,0.009072
1961,-0.008979,-0.001832,0.046465
1962,0.008122,0.113764,0.027769
1963,0.025223,0.13303,0.027769
1964,-0.008979,0.113764,0.009072
1965,0.008122,0.075232,-0.028322
1966,-0.026081,0.055966,-0.047018
1967,-0.008979,0.055966,0.009072
1968,0.025223,0.017434,0.009072
1969,0.008122,0.0367,0.027769
1970,0.008122,0.0367,0.027769
1971,0.025223,-0.001832,0.083859
1972,-0.008979,-0.040364,0.065162
1973,-0.026081,-0.05963,0.027769
1974,-0.008979,-0.078896,-0.047018
1975,-0.008979,-0.05963,-0.084412
1976,-0.043182,-0.098162,-0.009625
1977,-0.008979,-0.05963,-0.047018
1978,0.025223,-0.021098,-0.028322
1979,0.008122,0.017434,0.009072
1980,0.093629,0.075232,0.046465
1981,0.025223,0.055966,0.046465
1982,0.025223,0.094498,0.046465
1983,0.008122,0.075232,0.027769
1984,0.008122,0.075232,0.027769
1985,0.025223,0.055966,0.046465
1986,0.008122,-0.001832,0.009072
1987,0.008122,-0.021098,-0.028322
1988,-0.008979,-0.001832,0.009072
1989,-0.008979,-0.021098,-0.047018
1990,-0.008979,-0.021098,-0.065715
1991,-0.008979,-0.001832,-0.009625
1992,-0.008979,0.017434,0.009072
1993,-0.008979,0.0367,0.009072
1994,-0.008979,-0.021098,-0.009625
1995,-0.008979,-0.021098,-0.028322
1996,0.008122,-0.001832,-0.009625
1997,-0.008979,-0.021098,-0.047018
1998,0.008122,-0.001832,-0.065715
1999,-0.026081,-0.021098,-0.047018
2000,-0.008979,-0.001832,0.009072
2001,-0.026081,-0.040364,0.027769
2002,0.008122,-0.021098,0.009072
2003,0.008122,-0.021098,-0.009625
2004,-0.008979,-0.001832,-0.009625
2005,-0.008979,-0.001832,-0.009625
2006,0.008122,-0.001832,-0.065715
2007,-0.008979,-0.001832,0.027769
2008,-0.008979,-0.021098,-0.009625
2009,0.008122,-0.001832,0.027769
2010,-0.008979,-0.001832,0.027769
2011,-0.008979,0.017434,0.009072
2012,-0.008979,-0.021098,0.065162
2013,0.008122,0.017434,0.046465
2014,-0.008979,-0.021098,0.046465
2015,0.008122,0.0367,0.027769
2016,0.008122,-0.001832,0.046465
2017,-0.008979,-0.021098,0.009072
2018,-0.008979,-0.021098,0.009072
2019,-0.008979,-0.040364,0.009072
2020,-0.008979,-0.021098,-0.065715
2021,0.008122,-0.040364,-0.065715
2022,0.008122,0.017434,-0.028322
2023,-0.008979,0.017434,-0.047018
2024,-0.026081,-0.021098,-0.028322
2025,-0.008979,-0.021098,0.027769
2026,0.008122,-0.001832,0.009072
2027,-0.026081,-0.05963,-0.028322
2028,-0.026081,-0.021098,0.027769
2029,-0.008979,-0.021098,0.027769
2030,0.008122,-0.021098,0.083859
2031,-0.026081,-0.021098,0.046465
2032,-0.008979,-0.040364,0.027769
2033,0.008122,-0.040364,0.027769
2034,-0.008979,0.017434,0.027769
2035,-0.008979,0.0367,-0.009625
2036,-0.008979,0.055966,-0.103109
2037,-0.008979,0.075232,-0.047018
2038,-0.026081,0.055966,-0.009625
2039,-0.008979,0.0367,-0.009625
2040,0.008122,-0.001832,-0.009625
2041,0.008122,-0.021098,0.009072
2042,-0.008979,-0.001832,-0.009625
2043,0.025223,-0.021098,0.009072
2044,0.008122,0.017434,-0.028322
2045,-0.008979,0.017434,-0.028322
2046,0.008122,-0.021098,-0.047018
2047,0.025223,0.017434,-0.009625
2048,-0.026081,-0.001832,-0.028322
2049,0.008122,-0.001832,0.009072
2050,0.008122,0.055966,0.027769
2051,-0.008979,0.017434,0.009072
2052,0.008122,-0.021098,0.009072
2053,0.008122,-0.021098,0.027769
2054,-0.008979,-0.021098,-0.009625
2055,-0.008979,-0.040364,0.009072
2056,-0.008979,-0.05963,-0.009625
2057,0.008122,-0.05963,-0.028322
2058,-0.008979,-0.040364,-0.028322
2059,-0.026081,-0.040364,-0.009625
2060,-0.026081,-0.021098,-0.028322
2061,-0.008979,0.0367,0.009072
2062,-0.008979,0.113764,0.009072
2063,0.025223,0.152296,-0.009625
2064,0.025223,0.094498,0.065162
2065,0.008122,0.017434,0.065162
2066,0.008122,-0.001832,0.046465
2067,0.025223,-0.021098,0.027769
2068,0.025223,0.017434,0.083859
2069,0.025223,-0.001832,0.046465
2070,-0.008979,-0.001832,0.065162
2071,-0.008979,0.017434,0.046465
2072,0.008122,0.017434,0.046465
2073,0.008122,0.075232,-0.009625
2074,0.008122,0.075232,-0.009625
2075,-0.008979,0.0367,-0.065715
2076,-0.043182,0.055966,-0.103109
2077,-0.008979,-0.001832,-0.103109
2078,-0.008979,0.017434,-0.084412
2079,-0.008979,0.017434,-0.047018
2080,0.025223,-0.001832,-0.028322
2081,-0.008979,0.017434,-0.009625
2082,0.008122,-0.040364,-0.009625
2083,0.008122,-0.021098,-0.009625
2084,-0.008979,-0.021098,0.009072
2085,-0.008979,-0.021098,-0.009625
2086,-0.008979,-0.021098,-0.009625
2087,-0.008979,-0.040364,-0.028322
2088,-0.008979,-0.001832,-0.028322
2089,0.008122,-0.021098,0.027769
2090,-0.008979,-0.021098,0.046465
2091,-0.008979,-0.001832,-0.028322
2092,0.008122,-0.021098,-0.009625
2093,-0.008979,0.017434,0.046465
2094,-0.008979,0.0367,-0.047018
2095,0.025223,0.017434,-0.009625
2096,-0.008979,0.0367,-0.009625
2097,0.093629,0.017434,-0.028322
2098,-0.008979,-0.021098,-0.009625
2099,-0.008979,-0.021098,-0.009625
2100,-0.008979,-0.021098,-0.028322
2101,0.008122,-0.021098,0.046465
2102,-0.008979,-0.040364,0.027769
2103,-0.008979,-0.040364,0.027769
2104,0.008122,-0.001832,0.046465
2105,-0.008979,-0.021098,0.009072
2106,0.025223,0.017434,-0.009625
2107,0.025223,-0.001832,-0.028322
2108,-0.008979,0.017434,0.009072
2109,0.008122,-0.040364,-0.065715
2110,-0.008979,-0.05963,0.009072
2111,0.008122,-0.05963,0.027769
2112,-0.008979,-0.05963,0.009072
2113,-0.008979,-0.078896,0.046465
2114,-0.008979,-0.001832,0.046465
2115,0.008122,0.0367,-0.009625
2116,-0.026081,0.075232,-0.009625
2117,0.025223,0.0367,-0.009625
2118,-0.008979,0.055966,-0.028322
2119,0.008122,0.055966,-0.009625
2120,0.042325,0.094498,0.009072
2121,0.008122,0.094498,-0.009625
2122,0.008122,0.0367,-0.009625
2123,0.008122,-0.001832,0.009072
2124,-0.008979,-0.021098,0.009072
2125,-0.026081,-0.040364,-0.028322
2126,-0.008979,-0.040364,0.027769
2127,-0.008979,-0.021098,-0.009625
2128,0.008122,-0.021098,-0.047018
2129,-0.008979,-0.001832,-0.028322
2130,-0.026081,0.017434,-0.065715
2131,-0.008979,0.0367,-0.009625
2132,-0.026081,-0.001832,0.046465
2133,0.008122,-0.001832,-0.009625
2134,-0.008979,-0.001832,0.009072
2135,-0.008979,-0.021098,0.009072
2136,0.008122,-0.040364,-0.009625
2137,0.008122,-0.001832,-0.028322
2138,0.025223,-0.001832,0.009072
2139,-0.026081,-0.001832,-0.009625
2140,-0.008979,0.0367,-0.028322
2141,0.008122,0.017434,0.009072
2142,-0.008979,0.017434,0.027769
2143,0.008122,-0.040364,0.046465
2144,-0.008979,0.017434,0.046465
2145,-0.008979,-0.001832,0.009072
2146,0.008122,0.017434,-0.009625
2147,-0.008979,0.055966,0.027769
2148,0.008122,0.017434,0.009072
2149,0.025223,0.0367,-0.009625
2150,-0.008979,-0.001832,0.027769
2151,-0.008979,-0.001832,0.083859
2152,0.025223,0.075232,0.083859
2153,0.008122,-0.021098,0.102556
2154,0.008122,-0.021098,-0.009625
2155,-0.008979,-0.098162,0.009072
2156,-0.008979,-0.175226,0.009072
2157,-0.026081,-0.175226,-0.009625
2158,-0.043182,-0.175226,-0.084412
2159,-0.008979,-0.078896,-0.159199
2160,-0.008979,0.017434,-0.103109
2161,0.025223,0.075232,-0.121806
2162,0.008122,0.13303,-0.047018
2163,0.008122,0.113764,0.009072
2164,-0.026081,0.113764,-0.028322
2165,0.008122,0.075232,-0.028322
2166,-0.008979,-0.001832,0.027769
2167,0.008122,0.017434,-0.009625
2168,0.025223,0.075232,-0.028322
2169,0.008122,0.055966,0.009072
2170,0.025223,0.0367,-0.009625
2171,-0.008979,0.0367,0.009072
2172,0.008122,0.017434,0.027769
2173,0.008122,0.0367,0.046465
2174,0.008122,0.0367,0.046465
2175,0.008122,0.075232,0.065162
2176,0.008122,-0.001832,-0.009625
2177,0.025223,-0.040364,-0.009625
2178,0.008122,-0.078896,0.009072
2179,-0.008979,-0.078896,0.009072
2180,0.025223,-0.05963,-0.009625
2181,0.042325,-0.040364,0.009072
2182,-0.008979,-0.021098,0.009072
2183,0.008122,0.0367,-0.009625
2184,-0.008979,0.0367,0.046465
2185,-0.008979,-0.040364,0.009072
2186,0.025223,-0.078896,-0.009625
2187,-0.043182,-0.098162,-0.009625
2188,0.008122,-0.05963,-0.009625
2189,-0.008979,-0.05963,-0.009625
2190,0.025223,0.0367,0.009072
2191,0.025223,0.113764,0.027769
2192,-0.008979,0.094498,0.083859
2193,-0.026081,0.075232,0.046465
2194,0.008122,0.075232,0.046465
2195,0.008122,0.075232,0.009072
2196,-0.008979,0.075232,-0.028322
2197,0.008122,0.0367,-0.028322
2198,-0.008979,0.075232,-0.028322
2199,0.008122,0.0367,-0.028322
2200,-0.008979,0.017434,-0.028322
2201,-0.008979,-0.001832,-0.009625
2202,-0.008979,-0.001832,0.009072
2203,0.008122,-0.040364,0.009072
2204,0.008122,-0.040364,-0.028322
2205,-0.008979,-0.001832,-0.009625
2206,-0.026081,-0.021098,0.027769
2207,-0.026081,-0.021098,0.027769
2208,-0.008979,0.017434,-0.009625
2209,0.008122,-0.021098,0.046465
2210,-0.008979,-0.021098,0.027769
2211,-0.026081,-0.021098,-0.009625
2212,0.008122,-0.001832,0.009072
2213,-0.008979,-0.040364,-0.009625
2214,-0.026081,0.017434,-0.065715
2215,0.008122,0.017434,0.009072
2216,0.008122,0.017434,-0.009625
2217,0.025223,-0.021098,-0.028322
2218,0.008122,-0.001832,0.009072
2219,-0.026081,-0.001832,-0.028322
2220,-0.008979,0.0367,-0.028322
2221,0.008122,0.055966,0.009072
2222,-0.008979,-0.001832,0.009072
2223,0.008122,-0.040364,0.009072
2224,-0.008979,-0.040364,0.065162
2225,0.008122,-0.001832,-0.009625
2226,0.008122,-0.021098,-0.009625
2227,-0.008979,-0.021098,-0.028322
2228,-0.008979,-0.021098,0.009072
2229,0.008122,-0.021098,-0.028322
2230,0.008122,-0.001832,0.009072
2231,0.008122,-0.001832,0.046465
2232,0.008122,-0.001832,-0.009625
2233,-0.008979,-0.021098,0.009072
2234,0.008122,-0.021098,0.046465
2235,0.008122,-0.021098,-0.009625
2236,-0.026081,-0.040364,-0.028322
2237,-0.026081,-0.001832,-0.009625
2238,0.008122,-0.001832,-0.009625
2239,0.008122,0.0367,0.027769
2240,-0.026081,0.017434,0.102556
2241,0.008122,0.055966,0.121252
2242,-0.008979,-0.021098,0.046465
2243,0.025223,0.017434,0.046465
2244,-0.008979,-0.021098,-0.028322
2245,-0.008979,-0.001832,-0.009625
2246,0.008122,-0.001832,0.027769
2247,-0.008979,-0.040364,-0.009625
2248,-0.026081,-0.021098,-0.047018
2249,-0.008979,-0.001832,-0.009625
2250,-0.026081,-0.001832,-0.009625
2251,-0.008979,-0.021098,-0.047018
2252,-0.008979,0.017434,-0.028322
2253,0.008122,0.0367,-0.009625
2254,-0.008979,0.017434,-0.009625
2255,-0.008979,0.0367,0.027769
2256,0.008122,0.0367,-0.009625
2257,-0.008979,-0.001832,-0.028322
2258,-0.008979,0.0367,-0.028322
2259,0.008122,-0.001832,0.009072
2260,-0.026081,-0.001832,-0.103109
2261,0.008122,-0.040364,-0.047018
2262,-0.008979,-0.021098,-0.009625
2263,0.008122,0.017434,0.009072
2264,0.008122,-0.001832,0.009072
2265,-0.026081,-0.040364,0.027769
2266,-0.008979,-0.021098,-0.009625
2267,-0.026081,0.017434,0.009072
2268,0.008122,-0.001832,0.009072
2269,0.008122,0.017434,0.046465
2270,0.008122,-0.001832,-0.009625
2271,0.025223,0.017434,0.009072
2272,0.008122,0.0367,0.027769
2273,0.008122,0.0367,0.009072
2274,0.025223,0.017434,-0.009625
2275,-0.026081,-0.001832,-0.047018
2276,-0.008979,0.055966,-0.009625
2277,-0.008979,-0.001832,0.009072
2278,0.008122,-0.05963,0.009072
2279,0.008122,-0.021098,0.009072
2280,-0.008979,-0.001832,0.027769
2281,0.025223,-0.001832,0.009072
2282,-0.008979,-0.001832,-0.028322
2283,0.008122,-0.001832,0.009072
2284,0.008122,-0.05963,0.009072
2285,0.008122,-0.021098,-0.009625
2286,0.008122,-0.001832,-0.047018
2287,0.025223,0.017434,0.009072
2288,-0.008979,-0.021098,0.009072
2289,0.008122,-0.040364,-0.009625
2290,-0.026081,-0.021098,0.046465
2291,-0.008979,-0.001832,0.009072
2292,-0.008979,-0.05963,-0.047018
2293,0.008122,0.055966,-0.047018
2294,-0.008979,-0.021098,-0.065715
2295,0.008122,-0.021098,-0.047018
2296,-0.008979,-0.021098,-0.028322
2297,0.025223,-0.05963,-0.047018
2298,-0.026081,-0.040364,-0.065715
2299,0.025223,0.055966,-0.009625
2300,0.008122,0.075232,-0.028322
2301,-0.008979,0.055966,0.009072
2302,0.008122,0.055966,0.046465
2303,-0.008979,0.0367,0.009072
2304,0.008122,0.055966,0.027769
2305,0.008122,0.055966,0.027769
2306,-0.008979,-0.021098,-0.028322
2307,-0.008979,-0.078896,-0.028322
2308,-0.008979,-0.078896,0.009072
2309,-0.008979,-0.021098,0.009072
2310,-0.026081,0.017434,0.027769
2311,-0.008979,0.0367,0.046465
2312,-0.008979,0.0367,0.046465
2313,0.008122,0.13303,0.027769
2314,0.008122,0.13303,0.046465
2315,0.025223,0.075232,-0.009625
2316,0.008122,0.017434,-0.028322
2317,0.093629,0.017434,-0.047018
2318,-0.008979,0.055966,-0.028322
2319,0.008122,-0.001832,-0.009625
2320,-0.008979,-0.021098,-0.028322
2321,0.008122,-0.040364,0.027769
2322,0.008122,-0.040364,0.027769
2323,-0.008979,-0.05963,0.046465
2324,0.008122,-0.001832,0.027769
2325,0.008122,-0.001832,0.027769
2326,-0.043182,0.017434,0.027769
2327,-0.026081,0.055966,-0.028322
2328,-0.008979,0.0367,-0.065715
2329,-0.026081,0.055966,0.009072
2330,0.025223,0.0367,0.009072
2331,0.008122,0.0367,0.009072
2332,-0.008979,0.017434,0.027769
2333,0.008122,-0.021098,0.027769
2334,-0.008979,-0.021098,0.027769
2335,-0.026081,-0.021098,0.046465
2336,0.008122,-0.001832,0.027769
2337,0.025223,-0.021098,0.009072
2338,0.025223,-0.001832,0.009072
2339,0.025223,-0.021098,0.046465
2340,-0.008979,-0.021098,0.009072
2341,0.025223,-0.021098,0.046465
2342,-0.008979,-0.021098,0.065162
2343,0.025223,-0.021098,0.009072
2344,-0.008979,-0.021098,0.027769
2345,-0.008979,0.017434,0.009072
2346,0.008122,-0.001832,-0.028322
2347,0.008122,0.017434,-0.028322
2348,-0.026081,-0.001832,-0.028322
2349,-0.008979,-0.040364,-0.065715
2350,-0.008979,-0.021098,-0.103109
2351,-0.008979,-0.001832,-0.065715
2352,0.008122,-0.040364,-0.009625
2353,0.008122,-0.021098,-0.009625
2354,-0.026081,-0.001832,0.027769
2355,0.008122,-0.001832,0.027769
2356,-0.008979,-0.021098,-0.009625
2357,-0.008979,-0.001832,-0.009625
2358,0.008122,-0.001832,-0.047018
2359,0.008122,-0.001832,-0.047018
2360,0.025223,-0.001832,-0.047018
2361,0.008122,-0.040364,-0.009625
2362,0.008122,-0.001832,0.009072
2363,-0.008979,-0.001832,0.009072
2364,-0.008979,0.0367,0.009072
2365,-0.026081,0.017434,-0.009625
2366,0.008122,0.017434,-0.009625
2367,0.025223,-0.001832,-0.009625
2368,0.025223,0.0367,0.009072
2369,0.008122,0.017434,0.009072
2370,-0.008979,0.017434,-0.009625
2371,0.008122,0.0367,0.009072
2372,0.008122,-0.021098,0.046465
2373,-0.008979,-0.021098,0.009072
2374,-0.008979,-0.001832,-0.009625
2375,-0.008979,-0.040364,0.009072
2376,-0.008979,-0.021098,-0.009625
2377,0.008122,-0.040364,-0.009625
2378,0.008122,-0.001832,-0.009625
2379,-0.026081,-0.001832,0.009072
2380,0.008122,-0.001832,0.027769
2381,-0.008979,0.017434,0.009072
2382,0.008122,0.017434,0.065162
2383,-0.008979,-0.001832,0.027769
2384,0.025223,0.017434,0.065162
2385,-0.008979,-0.001832,-0.028322
2386,-0.008979,0.017434,-0.065715
2387,-0.008979,-0.001832,-0.028322
2388,-0.026081,-0.001832,0.009072
2389,-0.008979,-0.001832,-0.009625
2390,-0.008979,0.017434,0.009072
2391,0.025223,-0.040364,-0.009625
2392,-0.008979,-0.05963,-0.009625
2393,-0.008979,-0.05963,0.027769
2394,-0.008979,-0.078896,0.027769
2395,-0.008979,-0.078896,-0.009625
2396,-0.026081,-0.05963,0.009072
2397,0.008122,-0.001832,-0.028322
2398,-0.008979,0.017434,-0.065715
2399,-0.008979,0.113764,0.009072
2400,-0.008979,0.113764,0.046465
2401,-0.026081,0.075232,0.027769
2402,-0.008979,0.0367,0.009072
2403,-0.008979,-0.021098,0.046465
2404,-0.008979,-0.05963,0.027769
2405,0.008122,-0.021098,0.027769
2406,0.008122,0.017434,0.027769
2407,-0.008979,0.017434,-0.028322
2408,-0.008979,0.055966,0.009072
2409,0.008122,0.0367,0.027769
2410,0.008122,0.094498,-0.028322
2411,-0.008979,-0.001832,-0.028322
2412,0.008122,-0.001832,-0.047018
2413,0.008122,0.017434,-0.065715
2414,0.008122,0.017434,-0.009625
2415,0.008122,0.055966,-0.009625
2416,0.025223,0.0367,-0.028322
2417,0.008122,0.017434,-0.028322
2418,0.025223,0.017434,-0.009625
2419,-0.008979,0.017434,-0.028322
2420,0.008122,-0.001832,0.009072
2421,0.008122,0.017434,0.009072
2422,0.008122,-0.001832,0.009072
2423,0.008122,0.017434,0.027769
2424,-0.008979,0.017434,0.046465
2425,-0.008979,-0.05963,-0.028322
2426,-0.008979,-0.136694,0.009072
2427,0.008122,-0.15596,-0.009625
2428,-0.026081,-0.117428,-0.009625
2429,-0.008979,-0.078896,0.009072
2430,-0.008979,-0.040364,0.027769
2431,-0.026081,0.0367,0.027769
2432,-0.008979,0.055966,-0.009625
2433,0.008122,0.152296,0.009072
2434,0.008122,0.190828,-0.009625
2435,0.008122,0.113764,-0.028322
2436,0.008122,0.055966,0.009072
2437,0.008122,0.017434,-0.009625
2438,-0.008979,0.0367,-0.028322
2439,-0.008979,0.0367,0.027769
2440,-0.008979,-0.001832,0.046465
2441,0.008122,-0.001832,-0.028322
2442,0.008122,-0.001832,-0.028322
2443,0.008122,-0.021098,0.009072
2444,-0.008979,0.017434,0.009072
2445,-0.026081,0.0367,0.027769
2446,0.008122,0.0367,0.009072
2447,-0.008979,0.017434,-0.028322
2448,-0.008979,-0.021098,-0.028322
2449,-0.008979,-0.001832,0.009072
2450,0.008122,-0.021098,-0.028322
2451,0.008122,-0.001832,0.027769
2452,0.008122,-0.021098,0.027769
2453,-0.026081,-0.021098,-0.009625
2454,-0.008979,-0.001832,0.027769
2455,-0.008979,-0.021098,0.009072
2456,0.008122,-0.021098,-0.028322
2457,0.008122,0.017434,-0.047018
2458,0.008122,-0.001832,0.009072
2459,0.025223,-0.001832,-0.028322
2460,0.008122,-0.001832,0.027769
2461,0.008122,0.017434,0.027769
2462,0.008122,-0.001832,0.027769
2463,-0.008979,-0.021098,-0.009625
2464,0.008122,-0.040364,0.065162
2465,0.008122,-0.001832,0.009072
2466,-0.026081,-0.021098,-0.009625
2467,-0.008979,0.055966,0.009072
2468,-0.008979,-0.001832,0.009072
2469,-0.008979,0.017434,-0.009625
2470,-0.008979,-0.001832,-0.028322
2471,0.008122,-0.040364,-0.009625
2472,-0.008979,-0.021098,-0.047018
2473,0.008122,-0.05963,-0.028322
2474,0.008122,-0.078896,-0.047018
2475,-0.008979,-0.05963,-0.047018
2476,-0.026081,-0.040364,-0.047018
2477,0.008122,-0.001832,0.009072
2478,-0.008979,-0.021098,-0.028322
2479,-0.008979,-0.021098,0.046465
2480,0.008122,-0.021098,0.065162
2481,-0.008979,-0.001832,0.027769
2482,0.008122,0.017434,0.009072
2483,0.025223,0.055966,0.027769
2484,0.025223,0.113764,0.009072
2485,0.008122,0.075232,-0.047018
2486,0.008122,0.094498,-0.009625
2487,-0.008979,-0.001832,-0.028322
2488,-0.008979,0.017434,-0.084412
2489,-0.008979,0.017434,-0.047018
2490,-0.026081,0.017434,-0.028322
2491,0.008122,-0.001832,0.009072
2492,-0.008979,0.017434,0.027769
2493,0.025223,0.017434,0.027769
2494,0.008122,-0.001832,0.009072
2495,0.025223,-0.021098,0.009072
2496,0.025223,-0.021098,-0.028322
2497,0.008122,-0.021098,-0.065715
2498,0.008122,-0.040364,-0.028322
2499,0.008122,-0.021098,-0.028322
2500,0.008122,-0.021098,-0.009625
2501,-0.008979,0.017434,0.027769
2502,0.008122,0.017434,0.027769
2503,-0.008979,-0.001832,0.009072
2504,0.008122,0.017434,-0.009625
2505,-0.008979,-0.001832,-0.009625
2506,-0.008979,-0.001832,0.009072
2507,-0.008979,-0.001832,-0.009625
2508,-0.008979,-0.001832,-0.009625
2509,-0.008979,-0.001832,0.027769
2510,0.008122,-0.040364,0.046465
2511,0.025223,-0.05963,0.046465
2512,0.008122,-0.05963,0.046465
2513,0.008122,-0.040364,0.027769
2514,0.008122,-0.05963,0.046465
2515,-0.026081,-0.021098,-0.028322
2516,0.025223,-0.021098,-0.084412
2517,-0.008979,-0.001832,-0.028322
2518,-0.008979,0.0367,-0.009625
2519,0.008122,0.055966,-0.047018
2520,-0.008979,0.017434,-0.028322
2521,-0.008979,0.017434,0.009072
2522,0.008122,0.0367,0.009072
2523,-0.008979,0.094498,0.046465
2524,0.025223,0.055966,0.027769
2525,0.025223,0.0367,-0.009625
2526,-0.026081,0.0367,0.065162
2527,0.008122,-0.001832,0.009072
2528,0.008122,0.017434,-0.028322
2529,-0.008979,-0.021098,-0.084412
2530,0.025223,-0.021098,-0.065715
2531,-0.008979,-0.001832,-0.047018
2532,0.008122,-0.021098,-0.009625
2533,0.008122,-0.001832,0.027769
2534,-0.008979,-0.001832,0.009072
2535,0.008122,0.0367,0.046465
2536,0.008122,0.017434,0.046465
2537,-0.008979,-0.001832,0.009072
2538,0.008122,-0.001832,0.009072
2539,0.008122,-0.021098,-0.009625
2540,0.008122,-0.021098,-0.047018
2541,0.008122,-0.05963,-0.028322
2542,-0.008979,-0.021098,0.027769
2543,-0.026081,0.017434,0.027769
2544,0.008122,-0.021098,0.027769
2545,0.008122,-0.078896,0.046465
2546,-0.026081,-0.136694,-0.009625
2547,-0.026081,-0.175226,-0.028322
2548,-0.008979,-0.098162,-0.065715
2549,-0.008979,-0.040364,-0.009625
2550,0.025223,0.055966,-0.028322
2551,0.008122,0.094498,0.027769
2552,-0.008979,0.13303,0.065162
2553,0.025223,0.210094,0.027769
2554,0.008122,0.152296,0.046465
2555,-0.008979,0.075232,0.046465
2556,0.008122,0.0367,-0.028322
2557,0.008122,-0.021098,-0.028322
2558,0.008122,-0.001832,-0.028322
2559,0.008122,-0.001832,-0.065715
2560,-0.008979,-0.05963,-0.047018
2561,0.008122,-0.05963,-0.028322
2562,0.008122,-0.040364,-0.047018
2563,0.008122,-0.001832,0.009072
2564,0.008122,-0.040364,0.027769
2565,0.008122,-0.098162,-0.009625
2566,-0.008979,-0.040364,-0.009625
2567,0.008122,-0.05963,0.027769
2568,-0.008979,-0.001832,0.009072
2569,0.025223,-0.001832,-0.009625
2570,-0.008979,-0.001832,0.027769
2571,-0.008979,0.055966,-0.009625
2572,-0.008979,0.094498,0.009072
2573,-0.008979,0.075232,-0.009625
2574,-0.008979,0.094498,-0.028322
2575,-0.008979,0.075232,-0.047018
2576,-0.008979,0.0367,0.046465
2577,0.008122,0.0367,0.027769
2578,0.008122,0.0367,-0.009625
2579,0.008122,-0.001832,0.009072
2580,-0.008979,0.017434,0.009072
2581,-0.008979,-0.001832,-0.028322
2582,-0.026081,-0.001832,-0.028322
2583,0.008122,-0.021098,-0.047018
2584,-0.008979,-0.040364,-0.028322
2585,0.008122,-0.021098,-0.009625
2586,0.025223,-0.040364,-0.009625
2587,-0.008979,0.017434,-0.009625
2588,-0.008979,-0.021098,-0.047018
2589,-0.026081,-0.021098,-0.009625
2590,-0.008979,-0.021098,-0.009625
2591,-0.008979,-0.001832,-0.028322
2592,0.025223,-0.001832,0.046465
2593,-0.008979,0.0367,0.046465
2594,-0.008979,-0.001832,0.009072
2595,-0.008979,-0.040364,0.027769
2596,0.008122,-0.040364,-0.009625
2597,-0.008979,-0.021098,-0.028322
2598,0.008122,-0.001832,-0.009625
2599,-0.026081,-0.021098,-0.028322
2600,-0.008979,-0.021098,-0.065715
2601,0.008122,-0.021098,0.009072
2602,0.025223,-0.001832,0.065162
2603,-0.008979,-0.001832,0.046465
2604,-0.008979,-0.021098,0.046465
2605,-0.008979,0.0367,0.046465
2606,0.008122,-0.001832,0.046465
2607,0.008122,0.0367,0.065162
2608,-0.008979,-0.001832,0.009072
2609,-0.008979,-0.001832,-0.028322
2610,-0.008979,0.0367,-0.009625
2611,0.008122,-0.021098,-0.028322
2612,-0.008979,-0.021098,-0.028322
2613,-0.008979,-0.021098,-0.028322
2614,-0.026081,-0.001832,-0.009625
2615,0.008122,-0.021098,-0.009625
2616,-0.008979,-0.001832,0.046465
2617,-0.008979,-0.040364,0.046465
2618,-0.008979,-0.001832,0.009072
2619,-0.008979,0.017434,0.027769
2620,-0.026081,0.017434,0.009072
2621,-0.008979,0.017434,-0.009625
2622,-0.008979,-0.021098,0.009072
2623,-0.008979,-0.001832,-0.009625
2624,0.008122,0.017434,-0.028322
2625,0.008122,-0.001832,0.027769
2626,-0.008979,0.094498,0.027769
2627,-0.008979,0.017434,-0.009625
2628,-0.008979,-0.001832,-0.047018
2629,0.008122,-0.040364,-0.065715
2630,0.008122,-0.040364,-0.047018
2631,0.025223,-0.021098,-0.047018
2632,-0.008979,-0.001832,-0.009625
2633,-0.008979,-0.021098,-0.009625
2634,-0.043182,-0.040364,-0.009625
2635,-0.026081,-0.021098,0.027769
2636,0.008122,0.017434,-0.009625
2637,0.008122,0.0367,-0.028322
2638,-0.008979,-0.001832,-0.009625
2639,-0.008979,0.017434,-0.009625
2640,0.008122,0.0367,-0.028322
2641,0.025223,0.017434,0.027769
2642,0.008122,-0.001832,-0.009625
2643,0.008122,-0.05963,0.046465
2644,0.008122,-0.001832,0.102556
2645,-0.008979,0.0367,0.065162
2646,-0.008979,-0.001832,-0.009625
2647,-0.008979,0.017434,-0.028322
2648,-0.008979,0.017434,-0.047018
2649,-0.008979,0.017434,-0.009625
2650,0.008122,0.0367,0.027769
2651,0.008122,-0.001832,-0.009625
2652,0.008122,0.0367,0.027769
2653,0.008122,0.0367,0.027769
2654,-0.008979,0.0367,0.046465
2655,0.008122,0.0367,-0.009625
2656,-0.026081,0.017434,0.046465
2657,-0.026081,-0.05963,-0.028322
2658,-0.026081,-0.040364,-0.009625
2659,0.008122,-0.021098,-0.028322
2660,-0.008979,0.0367,0.009072
2661,-0.008979,-0.021098,-0.028322
2662,-0.008979,-0.021098,-0.028322
2663,0.025223,-0.040364,0.046465
2664,0.008122,-0.078896,0.009072
2665,0.008122,-0.040364,0.027769
2666,-0.008979,-0.05963,-0.009625
2667,-0.026081,-0.021098,-0.009625
2668,-0.043182,0.055966,-0.047018
2669,0.008122,0.113764,-0.009625
2670,0.008122,0.210094,-0.009625
2671,0.025223,0.152296,0.009072
2672,0.008122,0.0367,0.009072
2673,-0.008979,0.017434,-0.009625
2674,-0.008979,0.017434,0.027769
2675,0.008122,-0.001832,0.009072
2676,-0.008979,-0.001832,-0.009625
2677,0.008122,0.017434,-0.028322
2678,0.008122,0.017434,-0.009625
2679,-0.026081,-0.001832,-0.028322
2680,0.008122,-0.040364,-0.028322
2681,-0.008979,-0.021098,0.009072
2682,-0.008979,-0.040364,-0.047018
2683,0.008122,-0.021098,-0.009625
2684,0.008122,-0.001832,0.027769
2685,0.008122,-0.001832,0.009072
2686,0.008122,0.0367,-0.009625
2687,0.008122,-0.001832,0.027769
2688,0.008122,-0.001832,-0.028322
2689,-0.008979,-0.001832,-0.009625
2690,0.008122,-0.001832,0.009072
2691,0.008122,-0.021098,-0.028322
2692,-0.008979,-0.001832,-0.009625
2693,-0.026081,-0.001832,0.027769
2694,-0.026081,-0.021098,0.046465
2695,-0.026081,-0.001832,0.027769
2696,0.008122,-0.001832,0.009072
2697,-0.008979,-0.021098,-0.047018
2698,-0.008979,-0.021098,-0.009625
2699,0.008122,0.017434,0.009072
2700,0.008122,-0.021098,0.009072
2701,0.008122,-0.001832,0.009072
2702,0.025223,0.017434,0.065162
2703,-0.008979,-0.040364,0.046465
2704,0.008122,0.017434,-0.009625
2705,-0.026081,-0.001832,-0.028322
2706,0.008122,-0.001832,-0.028322
2707,-0.008979,-0.001832,-0.009625
2708,0.008122,-0.001832,-0.047018
2709,0.008122,0.017434,-0.028322
2710,0.008122,0.0367,-0.028322
2711,-0.026081,-0.021098,-0.009625
2712,-0.008979,-0.001832,0.027769
2713,-0.008979,0.017434,0.046465
2714,-0.008979,-0.021098,0.027769
2715,0.008122,-0.021098,0.027769
2716,-0.008979,-0.040364,0.009072
2717,0.008122,-0.021098,0.027769
2718,0.008122,-0.021098,-0.009625
2719,0.008122,-0.021098,-0.047018
2720,-0.008979,-0.001832,-0.009625
2721,0.008122,-0.001832,0.027769
2722,0.008122,0.017434,0.027769
2723,0.008122,0.017434,0.027769
2724,0.025223,-0.021098,0.046465
2725,-0.008979,0.017434,0.009072
2726,-0.008979,-0.001832,-0.103109
2727,0.008122,-0.001832,-0.028322
2728,0.008122,-0.021098,-0.028322
2729,-0.008979,-0.021098,-0.065715
2730,-0.026081,-0.021098,-0.028322
2731,-0.026081,-0.098162,0.009072
2732,-0.026081,-0.040364,-0.028322
2733,0.025223,-0.001832,0.009072
2734,-0.008979,-0.040364,0.009072
2735,0.008122,-0.001832,0.009072
2736,0.008122,0.017434,0.027769
2737,-0.008979,0.017434,0.009072
2738,0.008122,0.055966,0.027769
2739,-0.008979,0.0367,0.009072
2740,-0.008979,0.017434,0.065162
2741,0.025223,-0.021098,0.009072
2742,-0.008979,-0.021098,-0.028322
2743,-0.008979,-0.021098,0.009072
2744,-0.008979,-0.001832,0.027769
2745,0.025223,-0.001832,0.009072
2746,-0.008979,0.017434,0.027769
2747,-0.008979,0.017434,-0.028322
2748,0.008122,-0.001832,-0.047018
2749,0.008122,0.017434,0.009072
2750,0.008122,0.055966,0.009072
2751,0.008122,0.0367,0.009072
2752,0.008122,0.0367,0.046465
2753,-0.008979,-0.001832,0.046465
2754,-0.026081,-0.001832,0.027769
2755,0.025223,-0.040364,0.009072
2756,-0.008979,-0.05963,0.009072
2757,0.008122,-0.098162,-0.009625
2758,0.008122,-0.15596,-0.028322
2759,-0.008979,-0.098162,-0.028322
2760,0.008122,-0.078896,-0.009625
2761,-0.026081,-0.040364,-0.009625
2762,-0.060283,-0.021098,0.027769
2763,-0.008979,-0.001832,-0.009625
2764,-0.008979,0.13303,0.009072
2765,0.008122,0.210094,0.009072
2766,0.025223,0.152296,0.009072
2767,0.025223,0.094498,-0.009625
2768,-0.026081,0.094498,-0.009625
2769,0.025223,0.075232,-0.047018
2770,-0.043182,0.055966,0.009072
2771,0.008122,-0.040364,0.027769
2772,-0.008979,-0.021098,0.009072
2773,-0.008979,-0.021098,0.027769
2774,-0.008979,-0.021098,0.009072
2775,-0.008979,-0.040364,-0.028322
2776,-0.008979,-0.001832,0.027769
2777,-0.008979,-0.021098,-0.009625
2778,-0.008979,-0.001832,0.009072
2779,-0.026081,-0.001832,0.083859
2780,-0.008979,-0.001832,0.065162
2781,-0.026081,0.0367,0.046465
2782,0.025223,0.017434,0.046465
2783,0.025223,0.0367,-0.009625
2784,0.008122,-0.021098,-0.028322
2785,-0.026081,-0.098162,0.046465
2786,0.008122,-0.117428,0.009072
2787,0.008122,-0.05963,-0.009625
2788,0.008122,-0.040364,-0.084412
2789,-0.043182,-0.021098,-0.065715
2790,-0.008979,0.094498,-0.047018
2791,-0.008979,0.055966,0.009072
2792,-0.008979,0.113764,0.027769
2793,0.025223,0.13303,0.046465
2794,0.025223,0.055966,0.027769
2795,0.008122,0.0367,0.027769
2796,0.008122,0.0367,-0.009625
2797,0.008122,-0.001832,-0.028322
2798,-0.008979,-0.001832,0.009072
2799,0.025223,-0.040364,-0.009625
2800,-0.008979,-0.021098,-0.065715
2801,0.008122,0.017434,-0.009625
2802,-0.008979,-0.001832,0.046465
2803,-0.008979,-0.021098,0.009072
2804,0.008122,-0.001832,0.027769
2805,0.008122,-0.021098,0.009072
2806,0.008122,-0.040364,-0.028322
2807,-0.008979,-0.021098,-0.009625
2808,0.008122,0.017434,-0.065715
2809,-0.008979,0.017434,-0.028322
2810,-0.008979,-0.040364,-0.009625
2811,-0.026081,0.017434,-0.065715
2812,0.008122,0.017434,-0.009625
2813,0.008122,-0.040364,0.009072
2814,-0.008979,-0.05963,0.009072
2815,-0.008979,-0.001832,-0.028322
2816,-0.008979,-0.040364,0.046465
2817,0.008122,0.094498,-0.028322
2818,0.008122,0.0367,-0.065715
2819,-0.008979,-0.021098,-0.009625
2820,-0.008979,0.017434,-0.028322
2821,-0.008979,0.017434,-0.009625
2822,-0.008979,-0.001832,0.027769
2823,-0.008979,-0.001832,0.046465
2824,-0.008979,-0.001832,0.009072
2825,-0.008979,-0.021098,-0.009625
2826,0.008122,-0.021098,0.009072
2827,0.008122,0.017434,-0.028322
2828,0.008122,-0.001832,-0.028322
2829,0.025223,0.017434,-0.028322
2830,0.008122,0.0367,-0.009625
2831,0.008122,-0.001832,0.046465
2832,-0.008979,-0.021098,0.046465
2833,-0.008979,-0.001832,0.027769
2834,-0.008979,-0.021098,0.027769
2835,0.008122,-0.001832,0.009072
2836,0.008122,-0.05963,0.027769
2837,0.025223,-0.001832,0.009072
2838,-0.008979,-0.001832,0.009072
2839,0.008122,-0.001832,0.027769
2840,-0.008979,-0.001832,0.046465
2841,-0.026081,-0.021098,0.083859
2842,-0.008979,-0.001832,0.065162
2843,0.008122,-0.001832,0.027769
2844,0.008122,-0.001832,0.046465
2845,-0.026081,0.055966,0.027769
2846,-0.026081,0.017434,-0.103109
2847,0.008122,0.017434,-0.065715
2848,-0.008979,0.055966,0.009072
2849,-0.008979,-0.001832,-0.047018
2850,0.008122,-0.001832,-0.009625
2851,-0.008979,-0.001832,-0.065715
2852,-0.008979,-0.021098,-0.084412
2853,-0.008979,-0.040364,-0.047018
2854,-0.026081,-0.021098,-0.028322
2855,0.008122,0.017434,0.046465
2856,0.008122,0.0367,0.046465
2857,-0.008979,0.055966,0.027769
2858,0.008122,0.055966,0.009072
2859,0.008122,0.0367,0.009072
2860,0.008122,0.017434,-0.009625
2861,-0.026081,-0.021098,-0.047018
2862,-0.026081,-0.040364,-0.028322
2863,0.008122,-0.078896,-0.009625
2864,0.008122,-0.078896,-0.009625
2865,-0.008979,-0.098162,0.027769
2866,-0.008979,-0.05963,0.009072
2867,-0.026081,-0.05963,-0.009625
2868,-0.026081,-0.040364,-0.028322
2869,-0.026081,-0.040364,-0.047018
2870,0.008122,-0.001832,-0.047018
2871,0.008122,0.017434,0.009072
2872,0.093629,-0.001832,0.046465
2873,0.008122,0.055966,0.027769
2874,0.008122,0.0367,0.027769
2875,-0.008979,0.017434,0.027769
2876,-0.008979,-0.001832,-0.009625
2877,0.008122,-0.040364,0.009072
2878,-0.008979,-0.040364,0.009072
2879,0.008122,0.0367,-0.028322
2880,-0.026081,-0.021098,0.009072
2881,-0.008979,0.017434,0.009072
2882,0.025223,0.094498,0.027769
2883,0.025223,0.094498,0.027769
2884,0.042325,0.0367,0.046465
2885,0.008122,0.017434,0.027769
2886,-0.008979,0.055966,0.065162
2887,-0.043182,0.0367,0.009072
2888,-0.008979,0.0367,-0.028322
2889,0.008122,0.0367,-0.047018
2890,-0.008979,0.0367,-0.009625
2891,-0.008979,0.055966,-0.009625
2892,-0.026081,0.055966,0.009072
2893,0.025223,0.017434,0.027769
2894,-0.008979,-0.001832,0.009072
2895,0.008122,-0.001832,0.009072
2896,-0.008979,-0.021098,-0.009625
2897,0.008122,0.017434,-0.047018
2898,0.008122,0.017434,-0.047018
2899,-0.008979,-0.021098,0.009072
2900,-0.026081,-0.001832,-0.009625
2901,0.008122,-0.021098,0.046465
2902,-0.008979,-0.001832,0.027769
2903,0.025223,-0.001832,0.046465
2904,-0.008979,0.017434,0.009072
2905,0.008122,-0.001832,0.027769
2906,0.008122,-0.021098,0.027769
2907,-0.008979,-0.021098,-0.009625
2908,-0.008979,-0.001832,0.046465
2909,0.008122,-0.001832,0.009072
2910,0.008122,-0.001832,-0.009625
2911,-0.008979,0.017434,0.009072
2912,-0.008979,-0.001832,-0.009625
2913,-0.026081,-0.001832,-0.047018
2914,0.008122,-0.05963,0.009072
2915,-0.008979,-0.05963,0.009072
2916,-0.008979,-0.05963,-0.009625
2917,0.008122,-0.040364,-0.047018
2918,-0.008979,-0.001832,0.009072
2919,-0.026081,-0.001832,0.009072
2920,-0.008979,0.0367,0.009072
2921,0.008122,0.075232,0.065162
2922,0.025223,0.075232,0.027769
2923,0.042325,0.017434,-0.028322
2924,0.008122,-0.001832,0.009072
2925,0.008122,0.017434,-0.047018
2926,-0.008979,-0.05963,-0.121806
2927,0.025223,-0.021098,-0.065715
2928,-0.026081,-0.001832,-0.047018
2929,0.025223,-0.001832,-0.009625
2930,-0.008979,-0.001832,-0.009625
2931,-0.008979,-0.001832,-0.009625
2932,-0.008979,-0.021098,0.027769
2933,-0.008979,-0.001832,0.046465
2934,0.008122,-0.001832,0.009072
2935,0.008122,-0.001832,0.027769
2936,0.008122,-0.001832,0.046465
2937,0.008122,-0.021098,0.027769
2938,-0.008979,-0.001832,-0.028322
2939,-0.008979,-0.021098,-0.047018
2940,-0.026081,-0.021098,-0.028322
2941,-0.008979,-0.001832,-0.028322
2942,0.008122,-0.021098,0.009072
2943,-0.026081,-0.021098,0.027769
2944,-0.008979,-0.021098,-0.009625
2945,-0.026081,0.017434,0.009072
2946,-0.026081,-0.001832,-0.009625
2947,0.008122,-0.001832,-0.028322
2948,-0.008979,-0.001832,-0.065715
2949,0.008122,-0.001832,-0.047018
2950,-0.008979,-0.001832,-0.028322
2951,-0.008979,-0.001832,0.009072
2952,-0.008979,-0.001832,0.046465
2953,-0.026081,-0.001832,0.027769
2954,-0.008979,0.017434,0.009072
2955,-0.008979,0.017434,0.027769
2956,-0.008979,-0.021098,-0.009625
2957,0.025223,-0.040364,-0.028322
2958,0.025223,-0.078896,-0.009625
2959,-0.008979,-0.05963,0.009072
2960,-0.008979,-0.040364,-0.009625
2961,0.008122,-0.001832,0.009072
2962,0.008122,0.0367,0.027769
2963,-0.008979,0.055966,0.009072
2964,0.008122,0.075232,-0.009625
2965,-0.008979,0.075232,0.009072
2966,0.025223,-0.001832,-0.009625
2967,0.025223,-0.001832,0.027769
2968,0.025223,-0.001832,-0.009625
2969,-0.008979,-0.021098,-0.009625
2970,0.008122,-0.001832,-0.009625
2971,-0.008979,-0.001832,-0.009625
2972,-0.008979,-0.001832,-0.028322
2973,-0.008979,-0.001832,-0.009625
2974,0.008122,-0.05963,0.046465
2975,-0.008979,-0.040364,0.009072
2976,0.008122,-0.078896,0.027769
2977,-0.026081,-0.117428,0.009072
2978,-0.026081,-0.078896,-0.047018
2979,-0.026081,-0.040364,-0.028322
2980,-0.026081,-0.001832,-0.028322
2981,-0.008979,0.075232,-0.047018
2982,-0.008979,0.075232,-0.009625
2983,0.008122,0.113764,0.027769
2984,0.008122,0.13303,0.046465
2985,0.025223,0.094498,0.027769
2986,0.008122,0.094498,0.027769
2987,0.025223,0.0367,0.009072
2988,0.025223,0.0367,0.009072
2989,0.008122,0.055966,0.009072
2990,0.008122,0.017434,0.009072
2991,-0.008979,0.017434,0.009072
2992,0.025223,-0.001832,0.027769
2993,-0.008979,-0.040364,0.046465
2994,-0.008979,-0.021098,0.046465
2995,-0.043182,-0.05963,0.027769
2996,-0.008979,-0.021098,-0.028322
2997,-0.008979,0.017434,-0.065715
2998,-0.026081,0.0367,-0.028322
2999,-0.008979,0.017434,-0.028322
3000,0.008122,-0.001832,-0.047018
3001,0.008122,0.017434,0.009072
3002,0.008122,-0.001832,0.027769
3003,0.008122,-0.001832,-0.009625
3004,-0.008979,-0.001832,0.009072
3005,-0.008979,-0.001832,0.046465
3006,-0.026081,-0.040364,-0.009625
3007,0.008122,-0.040364,-0.028322
3008,0.008122,-0.040364,-0.009625
3009,-0.008979,-0.001832,0.027769
3010,-0.008979,-0.098162,0.009072
3011,0.008122,-0.098162,0.027769
3012,-0.026081,-0.040364,-0.047018
3013,-0.026081,-0.001832,-0.065715
3014,0.008122,0.075232,-0.009625
3015,0.008122,0.055966,0.046465
3016,0.008122,0.055966,0.027769
3017,0.008122,0.094498,0.027769
3018,0.008122,0.055966,0.046465
3019,0.008122,0.0367,0.009072
3020,0.008122,0.0367,-0.047018
3021,-0.008979,0.017434,-0.084412
3022,-0.008979,-0.021098,-0.140502
3023,-0.026081,-0.078896,-0.065715
3024,0.008122,-0.040364,0.027769
3025,0.008122,-0.021098,0.027769
3026,-0.008979,-0.001832,0.009072
3027,-0.026081,-0.021098,0.027769
3028,-0.008979,-0.001832,0.009072
3029,-0.026081,-0.001832,-0.047018
3030,-0.008979,0.055966,-0.009625
3031,0.008122,0.017434,-0.009625
3032,0.008122,0.055966,0.009072
3033,0.008122,0.017434,0.046465
3034,0.008122,0.017434,0.046465
3035,-0.008979,0.055966,0.027769
3036,-0.008979,-0.040364,0.027769
3037,0.008122,-0.05963,-0.009625
3038,0.008122,-0.040364,-0.028322
3039,-0.008979,-0.040364,-0.009625
3040,0.008122,-0.001832,0.009072
3041,-0.008979,0.0367,-0.047018
3042,0.008122,0.113764,-0.009625
3043,0.008122,0.075232,0.009072
3044,0.008122,0.0367,0.009072
3045,-0.008979,0.0367,0.027769
3046,-0.026081,-0.001832,0.027769
3047,-0.008979,-0.001832,0.027769
3048,0.008122,-0.021098,0.046465
3049,0.025223,-0.001832,-0.009625
3050,-0.008979,-0.001832,-0.009625
3051,-0.008979,-0.001832,-0.028322
3052,-0.008979,0.0367,0.009072
3053,-0.008979,-0.001832,-0.028322
3054,0.008122,-0.001832,0.027769
3055,0.008122,0.017434,0.027769
3056,-0.008979,-0.001832,-0.028322
3057,-0.043182,-0.021098,0.027769
3058,0.025223,-0.001832,-0.009625
3059,-0.008979,-0.001832,-0.028322
3060,-0.026081,0.017434,-0.047018
3061,-0.008979,-0.001832,-0.009625
3062,-0.008979,-0.021098,-0.028322
3063,-0.008979,0.0367,0.027769
3064,0.008122,-0.001832,0.009072
3065,-0.008979,-0.001832,0.027769
3066,-0.008979,-0.001832,0.027769
3067,-0.008979,-0.040364,0.046465
3068,-0.008979,-0.040364,-0.009625
3069,-0.008979,-0.001832,0.027769
3070,-0.026081,0.017434,-0.009625
3071,0.008122,0.017434,-0.047018
3072,-0.008979,0.0367,-0.065715
3073,0.008122,0.017434,-0.009625
3074,0.008122,-0.040364,0.009072
3075,0.008122,-0.078896,-0.009625
3076,0.025223,-0.040364,0.027769
3077,0.008122,-0.021098,-0.009625
3078,-0.008979,-0.040364,-0.009625
3079,-0.008979,-0.021098,-0.028322
3080,-0.008979,0.017434,0.009072
3081,-0.008979,0.094498,0.009072
3082,0.008122,0.0367,0.046465
3083,-0.008979,0.017434,0.083859
3084,-0.008979,0.017434,0.102556
3085,0.008122,-0.021098,0.065162
3086,-0.026081,-0.001832,0.046465
3087,0.008122,-0.001832,-0.047018
3088,0.025223,-0.078896,-0.065715
3089,0.008122,-0.040364,-0.065715
3090,-0.008979,-0.001832,-0.047018
3091,-0.026081,-0.001832,-0.047018
3092,-0.008979,-0.05963,0.027769
3093,0.008122,-0.021098,-0.009625
3094,-0.008979,0.017434,0.009072
3095,-0.008979,0.017434,0.009072
3096,0.008122,0.017434,0.009072
3097,0.008122,0.075232,0.009072
3098,-0.026081,0.113764,-0.009625
3099,0.008122,0.0367,-0.009625
3100,0.025223,0.0367,-0.009625
3101,0.025223,0.017434,0.009072
3102,0.025223,0.017434,-0.009625
3103,0.008122,0.0367,-0.009625
3104,0.025223,0.055966,0.009072
3105,0.008122,-0.021098,0.027769
3106,-0.008979,-0.040364,0.009072
3107,-0.026081,-0.021098,0.009072
3108,-0.008979,-0.001832,0.009072
3109,0.008122,0.017434,-0.028322
3110,0.008122,-0.021098,-0.028322
3111,-0.008979,-0.001832,-0.028322
3112,0.008122,0.017434,-0.009625
3113,0.008122,-0.05963,0.027769
3114,-0.026081,-0.001832,0.027769
3115,-0.043182,-0.021098,0.009072
3116,-0.008979,-0.001832,0.009072
3117,-0.008979,-0.021098,-0.009625
3118,-0.008979,-0.021098,-0.028322
3119,-0.008979,-0.040364,0.009072
3120,-0.008979,-0.001832,-0.009625
3121,-0.008979,-0.021098,0.009072
3122,0.008122,0.0367,-0.009625
3123,-0.026081,-0.021098,0.009072
3124,0.042325,-0.021098,-0.009625
3125,0.025223,-0.021098,0.027769
3126,0.008122,-0.001832,-0.009625
3127,-0.008979,-0.001832,-0.028322
3128,-0.008979,0.055966,-0.009625
3129,0.008122,0.0367,-0.028322
3130,0.025223,0.0367,-0.047018
3131,0.008122,0.094498,0.009072
3132,-0.008979,0.017434,0.046465
3133,-0.008979,-0.021098,0.046465
3134,-0.026081,-0.001832,0.027769
3135,-0.026081,0.017434,0.027769
3136,-0.008979,-0.001832,0.009072
3137,-0.008979,-0.001832,0.027769
3138,0.008122,-0.001832,0.027769
3139,0.008122,0.017434,0.009072
3140,-0.026081,-0.001832,0.009072
3141,-0.026081,-0.001832,-0.009625
3142,0.008122,-0.05963,0.009072
3143,0.025223,-0.05963,-0.009625
3144,0.008122,-0.040364,-0.028322
3145,-0.008979,-0.001832,-0.009625
3146,-0.008979,-0.001832,0.027769
3147,-0.008979,-0.001832,-0.047018
3148,0.042325,0.0367,-0.028322
3149,0.008122,-0.078896,-0.009625
3150,-0.026081,-0.098162,-0.009625
3151,0.008122,-0.040364,0.009072
3152,-0.008979,-0.040364,0.027769
3153,0.025223,0.017434,0.046465
3154,-0.026081,0.075232,0.046465
3155,-0.008979,0.113764,0.046465
3156,0.025223,0.13303,0.027769
3157,0.025223,0.113764,0.027769
3158,-0.008979,0.0367,0.027769
3159,0.008122,0.055966,-0.009625
3160,0.008122,0.055966,-0.009625
3161,-0.008979,0.055966,-0.065715
3162,0.008122,0.017434,-0.047018
3163,-0.008979,0.017434,-0.065715
3164,0.008122,0.017434,0.046465
3165,-0.008979,0.017434,-0.009625
3166,-0.043182,0.017434,-0.009625
3167,0.008122,0.017434,-0.028322
3168,-0.008979,-0.001832,0.009072
3169,-0.008979,0.0367,0.046465
3170,0.008122,-0.001832,0.046465
3171,0.008122,-0.001832,0.046465
3172,-0.008979,-0.040364,0.027769
3173,0.008122,-0.001832,0.046465
3174,-0.026081,-0.001832,0.009072
3175,-0.008979,-0.001832,-0.065715
3176,-0.026081,-0.021098,-0.084412
3177,-0.008979,-0.021098,-0.047018
3178,-0.008979,-0.021098,-0.047018
3179,0.008122,0.017434,-0.009625
3180,0.008122,0.017434,0.027769
3181,0.008122,-0.021098,0.009072
3182,-0.008979,-0.001832,0.009072
3183,-0.008979,0.0367,0.027769
3184,-0.008979,-0.001832,-0.028322
3185,0.008122,-0.021098,0.027769
3186,-0.008979,-0.040364,0.009072
3187,-0.043182,-0.001832,-0.028322
3188,-0.026081,-0.001832,-0.009625
3189,-0.008979,0.017434,0.009072
3190,-0.008979,0.017434,-0.009625
3191,-0.008979,0.017434,-0.028322
3192,0.008122,-0.001832,0.009072
3193,-0.026081,-0.021098,-0.009625
3194,-0.026081,-0.001832,0.046465
3195,0.008122,-0.001832,0.009072
3196,-0.008979,-0.040364,-0.009625
3197,-0.008979,-0.040364,0.009072
3198,-0.008979,-0.001832,-0.009625
3199,-0.008979,-0.021098,-0.028322
3200,0.008122,-0.001832,-0.009625
3201,-0.008979,0.0367,0.009072
3202,-0.008979,0.0367,-0.009625
3203,0.008122,0.0367,0.027769
3204,-0.008979,0.0367,0.027769
3205,-0.008979,-0.001832,0.027769
3206,0.008122,-0.05963,-0.028322
3207,-0.008979,-0.021098,0.027769
3208,-0.008979,-0.05963,-0.047018
3209,0.008122,-0.001832,-0.009625
3210,-0.008979,0.0367,0.009072
3211,0.008122,0.017434,0.027769
3212,-0.008979,0.113764,-0.009625
3213,0.008122,0.094498,0.046465
3214,-0.008979,0.055966,0.065162
3215,-0.008979,0.0367,0.009072
3216,-0.008979,-0.001832,0.027769
3217,-0.008979,-0.001832,-0.028322
3218,0.008122,-0.001832,-0.047018
3219,-0.026081,-0.021098,-0.065715
3220,-0.008979,-0.001832,-0.009625
3221,-0.026081,-0.021098,0.009072
3222,-0.008979,-0.001832,0.009072
3223,0.008122,-0.001832,-0.009625
3224,0.008122,-0.001832,0.009072
3225,0.025223,0.017434,-0.009625
3226,0.025223,0.017434,-0.028322
3227,-0.008979,-0.001832,0.009072
3228,-0.008979,-0.001832,0.046465
3229,0.008122,-0.001832,-0.009625
3230,-0.008979,-0.021098,-0.028322
3231,-0.026081,-0.001832,0.027769
3232,-0.008979,0.017434,0.009072
3233,-0.008979,0.017434,-0.009625
3234,0.008122,-0.021098,0.027769
3235,0.025223,-0.001832,0.009072
3236,0.008122,-0.021098,-0.009625
3237,0.025223,-0.040364,0.009072
3238,-0.043182,-0.040364,-0.028322
3239,0.025223,-0.040364,0.027769
3240,-0.026081,-0.05963,0.027769
3241,-0.026081,-0.05963,0.009072
3242,-0.026081,-0.040364,-0.009625
3243,-0.008979,0.055966,0.027769
3244,-0.008979,0.075232,0.027769
3245,0.008122,0.113764,-0.009625
3246,0.008122,0.094498,0.009072
3247,0.008122,0.094498,-0.028322
3248,0.025223,0.094498,-0.028322
3249,0.025223,0.0367,-0.009625
3250,0.008122,-0.001832,-0.009625
3251,-0.008979,-0.021098,0.027769
3252,0.008122,-0.001832,0.009072
3253,0.008122,-0.001832,-0.009625
3254,0.008122,-0.001832,-0.047018
3255,-0.008979,0.0367,-0.009625
3256,0.008122,-0.001832,-0.028322
3257,-0.008979,0.017434,0.027769
3258,-0.008979,-0.001832,0.009072
3259,-0.008979,-0.021098,0.009072
3260,0.025223,-0.040364,0.009072
3261,-0.008979,-0.021098,0.046465
3262,-0.008979,-0.021098,0.009072
3263,-0.008979,-0.040364,-0.009625
3264,-0.008979,-0.040364,-0.009625
3265,-0.026081,-0.040364,-0.009625
3266,0.008122,0.017434,-0.009625
3267,0.008122,0.075232,0.027769
3268,0.008122,0.075232,0.046465
3269,0.008122,0.0367,-0.009625
3270,0.008122,0.075232,0.009072
3271,0.008122,0.094498,-0.009625
3272,0.025223,0.0367,-0.009625
3273,0.008122,0.017434,-0.009625
3274,0.008122,-0.021098,-0.009625
3275,0.008122,-0.001832,-0.028322
3276,0.008122,-0.001832,0.027769
3277,0.008122,0.017434,0.046465
3278,0.008122,0.017434,0.009072
3279,-0.008979,-0.021098,0.027769
3280,-0.026081,-0.021098,-0.009625
3281,-0.008979,-0.021098,-0.028322
3282,-0.026081,-0.040364,-0.009625
3283,-0.008979,-0.001832,-0.009625
3284,0.025223,-0.021098,-0.028322
3285,0.008122,-0.021098,-0.009625
3286,-0.026081,-0.040364,0.009072
3287,0.008122,-0.001832,-0.028322
3288,0.008122,0.017434,0.009072
3289,0.008122,-0.021098,0.027769
3290,0.008122,-0.021098,-0.009625
3291,-0.026081,-0.001832,0.027769
3292,-0.008979,0.017434,0.009072
3293,-0.026081,-0.001832,-0.009625
3294,-0.008979,-0.001832,0.009072
3295,-0.008979,-0.001832,0.027769
3296,-0.008979,-0.001832,-0.028322
3297,0.008122,0.017434,-0.009625
3298,0.008122,0.055966,0.065162
3299,-0.008979,0.0367,0.009072
3300,-0.008979,-0.001832,-0.028322
3301,0.008122,-0.001832,-0.065715
3302,0.008122,0.017434,-0.047018
3303,-0.008979,-0.001832,-0.028322
3304,-0.008979,0.017434,-0.009625
3305,-0.008979,-0.040364,-0.028322
3306,-0.008979,-0.021098,-0.009625
3307,-0.008979,-0.021098,-0.009625
3308,-0.008979,-0.021098,0.027769
3309,-0.026081,-0.021098,-0.009625
3310,-0.008979,-0.098162,0.046465
3311,-0.008979,-0.078896,-0.009625
3312,-0.026081,-0.040364,0.027769
3313,-0.008979,-0.021098,0.065162
3314,0.025223,-0.001832,0.027769
3315,0.008122,-0.001832,0.027769
3316,-0.008979,0.0367,0.027769
3317,0.008122,0.075232,-0.009625
3318,0.008122,0.075232,-0.009625
3319,0.025223,0.0367,0.009072
3320,0.025223,0.075232,-0.028322
3321,0.008122,-0.001832,-0.047018
3322,0.008122,-0.001832,-0.047018
3323,-0.008979,-0.001832,-0.065715
3324,0.008122,-0.040364,-0.065715
3325,-0.008979,0.017434,-0.009625
3326,-0.008979,-0.001832,-0.028322
3327,-0.008979,-0.021098,-0.009625
3328,-0.026081,-0.05963,0.027769
3329,0.008122,-0.078896,0.027769
3330,-0.026081,-0.098162,0.009072
3331,-0.008979,-0.05963,0.027769
3332,-0.008979,-0.021098,0.009072
3333,-0.008979,-0.040364,-0.028322
3334,-0.026081,-0.040364,0.009072
3335,-0.008979,0.017434,-0.028322
3336,0.025223,0.0367,0.009072
3337,0.008122,0.094498,0.027769
3338,0.008122,0.055966,0.027769
3339,0.008122,0.075232,0.027769
3340,0.008122,0.0367,0.046465
3341,0.008122,-0.021098,0.065162
3342,0.025223,-0.001832,-0.009625
3343,-0.008979,-0.001832,-0.009625
3344,-0.008979,-0.040364,-0.009625
3345,-0.008979,0.017434,-0.065715
3346,-0.026081,0.017434,-0.028322
3347,-0.008979,0.017434,-0.028322
3348,0.008122,0.055966,-0.028322
3349,0.025223,0.075232,0.027769
3350,0.008122,0.017434,0.027769
3351,0.008122,-0.001832,-0.009625
3352,-0.008979,-0.040364,-0.009625
3353,0.008122,0.017434,-0.009625
3354,0.008122,-0.001832,-0.047018
3355,-0.008979,0.0367,-0.009625
3356,-0.008979,0.0367,0.046465
3357,-0.026081,-0.001832,0.009072
3358,0.008122,-0.001832,0.046465
3359,-0.008979,-0.021098,0.027769
3360,0.008122,0.017434,-0.009625
3361,-0.043182,0.017434,0.009072
3362,-0.026081,-0.001832,-0.009625
3363,-0.026081,-0.001832,-0.028322
3364,-0.008979,-0.001832,-0.009625
3365,0.008122,0.017434,-0.009625
3366,0.008122,0.017434,-0.009625
3367,0.008122,-0.001832,-0.009625
3368,-0.008979,-0.021098,0.046465
3369,-0.008979,-0.05963,0.046465
3370,0.008122,-0.040364,0.009072
3371,-0.008979,-0.001832,0.027769
3372,-0.008979,-0.001832,-0.009625
3373,-0.008979,-0.021098,-0.028322
3374,0.025223,-0.001832,0.009072
3375,0.008122,-0.021098,-0.009625
3376,-0.008979,0.017434,-0.028322
3377,-0.026081,-0.001832,-0.028322
3378,0.008122,-0.001832,-0.084412
3379,0.025223,-0.001832,0.046465
3380,-0.008979,-0.001832,0.046465
3381,0.008122,-0.021098,0.009072
3382,0.025223,-0.021098,-0.009625
3383,0.008122,-0.001832,0.009072
3384,-0.008979,-0.001832,-0.009625
3385,0.008122,-0.021098,0.009072
3386,-0.008979,0.017434,-0.009625
3387,-0.008979,0.0367,0.027769
3388,-0.008979,-0.001832,-0.047018
3389,-0.008979,0.0367,0.027769
3390,0.008122,-0.001832,-0.028322
3391,0.008122,-0.05963,-0.028322
3392,0.008122,-0.001832,-0.009625
3393,0.008122,-0.021098,-0.009625
3394,0.008122,-0.001832,-0.028322
3395,0.008122,0.017434,0.009072
3396,-0.008979,-0.001832,0.027769
3397,-0.008979,0.0367,0.009072
3398,0.025223,-0.001832,0.046465
3399,0.025223,-0.001832,0.009072
3400,0.025223,-0.001832,0.009072
3401,0.008122,-0.001832,0.065162
3402,0.008122,0.017434,0.046465
3403,0.008122,-0.021098,-0.009625
3404,0.008122,0.017434,0.027769
3405,0.008122,-0.001832,0.027769
3406,0.008122,-0.001832,0.009072
3407,-0.026081,0.017434,0.027769
3408,0.008122,-0.001832,0.046465
3409,-0.008979,-0.021098,-0.009625
3410,-0.008979,-0.021098,-0.028322
3411,-0.008979,-0.021098,-0.047018
3412,-0.008979,-0.021098,-0.047018
3413,0.008122,-0.021098,-0.028322
3414,-0.008979,-0.040364,-0.009625
3415,-0.008979,-0.021098,-0.028322
3416,-0.008979,-0.021098,-0.009625
3417,0.008122,-0.021098,-0.009625
3418,0.008122,-0.001832,-0.047018
3419,0.008122,0.017434,-0.028322
3420,0.008122,0.017434,-0.009625
3421,-0.008979,0.055966,-0.009625
3422,0.008122,0.017434,-0.084412
3423,-0.008979,0.017434,-0.009625
3424,0.008122,0.0367,-0.028322
3425,0.008122,-0.001832,0.046465
3426,-0.008979,0.017434,0.027769
3427,0.008122,-0.001832,0.009072
3428,-0.008979,0.017434,0.027769
3429,-0.008979,0.017434,0.027769
3430,0.025223,0.017434,0.027769
3431,0.008122,-0.001832,-0.009625
3432,-0.008979,0.017434,-0.009625
3433,0.008122,-0.001832,-0.028322
3434,0.025223,-0.001832,0.027769
3435,-0.008979,0.017434,0.046465
3436,-0.008979,0.017434,0.027769
3437,-0.026081,-0.001832,0.046465
3438,0.008122,-0.001832,0.065162
3439,0.008122,0.0367,0.027769
3440,-0.008979,0.017434,-0.028322
3441,-0.026081,0.017434,-0.028322
3442,0.008122,0.094498,-0.009625
3443,-0.026081,-0.021098,-0.009625
3444,0.008122,-0.040364,-0.028322
3445,0.008122,-0.098162,-0.047018
3446,0.008122,-0.136694,-0.065715
3447,0.008122,-0.098162,-0.009625
3448,0.008122,-0.05963,-0.009625
3449,-0.026081,0.017434,0.009072
3450,-0.008979,0.055966,0.009072
3451,0.008122,0.094498,-0.009625
3452,0.008122,0.075232,-0.028322
3453,0.025223,0.055966,-0.009625
3454,0.008122,-0.078896,-0.009625
3455,0.008122,-0.117428,-0.028322
3456,0.008122,-0.078896,0.009072
3457,0.008122,-0.021098,0.065162
3458,0.025223,-0.05963,0.027769
3459,0.008122,0.0367,0.046465
3460,-0.026081,0.055966,0.009072
3461,0.008122,0.113764,-0.047018
3462,0.008122,0.13303,-0.028322
3463,0.008122,0.113764,-0.028322
3464,-0.008979,0.075232,-0.009625
3465,-0.026081,0.0367,0.009072
3466,0.008122,0.075232,0.027769
3467,-0.008979,0.0367,0.027769
3468,-0.008979,-0.001832,0.046465
3469,0.093629,0.017434,0.009072
3470,0.008122,0.055966,0.009072
3471,-0.008979,0.017434,0.027769
3472,-0.008979,0.017434,0.009072
3473,0.008122,-0.001832,-0.047018
3474,0.025223,-0.040364,-0.028322
3475,0.008122,-0.021098,0.027769
3476,0.008122,-0.05963,0.009072
3477,-0.008979,-0.021098,0.046465
3478,-0.008979,-0.040364,-0.047018
3479,-0.026081,-0.040364,-0.028322
3480,-0.008979,-0.021098,0.009072
3481,0.025223,0.017434,-0.009625
3482,0.008122,0.055966,-0.047018
3483,0.008122,0.075232,0.027769
3484,-0.008979,0.017434,0.027769
3485,0.008122,0.0367,0.009072
3486,0.008122,0.0367,0.027769
3487,0.008122,-0.021098,0.009072
3488,-0.008979,-0.040364,0.027769
3489,-0.008979,-0.040364,0.046465
3490,-0.008979,-0.021098,-0.047018
3491,0.008122,-0.001832,-0.065715
3492,0.008122,-0.021098,-0.028322
3493,0.008122,-0.001832,-0.009625
3494,0.008122,-0.001832,0.009072
3495,-0.008979,0.017434,0.027769
3496,0.008122,-0.001832,0.046465
3497,-0.008979,-0.001832,0.027769
3498,-0.043182,-0.001832,0.027769
3499,-0.008979,-0.021098,0.027769
3500,-0.026081,-0.021098,-0.065715
3501,0.008122,-0.021098,-0.028322
3502,0.008122,-0.021098,-0.028322
3503,-0.008979,0.017434,-0.028322
3504,0.008122,-0.001832,-0.009625
3505,-0.008979,-0.021098,-0.009625
3506,-0.008979,-0.001832,-0.009625
3507,-0.008979,-0.021098,0.009072
3508,0.008122,-0.001832,0.027769
3509,-0.008979,-0.001832,0.009072
3510,0.008122,0.017434,-0.028322
3511,0.008122,-0.021098,-0.028322
3512,0.008122,-0.001832,-0.028322
3513,0.008122,0.017434,0.009072
3514,-0.008979,-0.001832,0.027769
3515,0.008122,-0.001832,0.027769
3516,0.025223,0.017434,0.009072
3517,-0.008979,-0.001832,0.009072
3518,0.008122,0.017434,0.009072
3519,-0.026081,0.0367,-0.009625
3520,0.008122,0.0367,0.009072
3521,-0.008979,-0.040364,-0.028322
3522,-0.008979,-0.001832,-0.028322
3523,-0.008979,-0.001832,0.027769
3524,0.008122,-0.05963,-0.009625
3525,-0.008979,-0.078896,-0.009625
3526,0.008122,-0.040364,-0.009625
3527,-0.008979,-0.021098,-0.065715
3528,0.008122,-0.040364,-0.028322
3529,-0.026081,-0.001832,-0.009625
3530,-0.008979,0.017434,-0.009625
3531,-0.008979,0.0367,-0.028322
3532,0.008122,0.055966,0.027769
3533,-0.008979,-0.001832,0.009072
3534,0.008122,-0.021098,0.046465
3535,0.093629,0.0367,0.065162
3536,0.025223,-0.021098,0.046465
3537,0.008122,-0.078896,0.083859
3538,-0.008979,-0.117428,0.065162
3539,0.025223,-0.05963,-0.009625
3540,-0.008979,-0.001832,-0.009625
3541,0.008122,-0.021098,-0.028322
3542,-0.026081,0.017434,-0.103109
3543,-0.043182,-0.078896,-0.065715
3544,-0.008979,-0.040364,-0.009625
3545,0.008122,-0.001832,0.027769
3546,-0.008979,-0.117428,-0.009625
3547,-0.008979,-0.001832,0.009072
3548,-0.008979,0.0367,0.009072
3549,-0.008979,0.152296,-0.009625
3550,-0.008979,0.210094,-0.065715
3551,0.008122,0.190828,-0.009625
3552,0.025223,0.190828,-0.009625
3553,0.025223,0.13303,-0.009625
3554,0.008122,-0.001832,0.009072
3555,0.025223,0.0367,-0.047018
3556,0.008122,0.0367,0.027769
3557,-0.008979,0.075232,0.046465
3558,0.025223,0.0367,0.046465
3559,0.008122,0.017434,0.009072
3560,-0.008979,-0.001832,0.046465
3561,0.008122,0.0367,0.027769
3562,0.008122,0.075232,-0.028322
3563,0.025223,0.017434,-0.009625
3564,0.008122,-0.05963,-0.047018
3565,0.025223,-0.040364,0.009072
3566,0.008122,-0.040364,-0.009625
3567,0.008122,-0.040364,0.027769
3568,-0.026081,-0.117428,-0.047018
3569,0.008122,-0.078896,0.009072
3570,-0.026081,-0.040364,-0.028322
3571,-0.008979,-0.021098,-0.121806
3572,-0.008979,-0.001832,-0.065715
3573,-0.008979,0.0367,-0.028322
3574,-0.008979,0.0367,-0.009625
3575,0.008122,0.094498,0.009072
3576,-0.008979,0.075232,0.046465
3577,0.008122,0.055966,0.009072
3578,0.008122,0.0367,0.046465
3579,0.008122,-0.001832,0.009072
3580,-0.008979,-0.001832,0.009072
3581,0.008122,0.017434,0.009072
3582,-0.008979,-0.001832,-0.009625
3583,0.008122,-0.001832,-0.047018
3584,-0.008979,-0.040364,-0.028322
3585,-0.026081,-0.078896,0.065162
3586,0.025223,-0.05963,0.065162
3587,0.008122,-0.040364,0.046465
3588,0.008122,0.017434,0.046465
3589,-0.026081,0.055966,-0.009625
3590,0.008122,0.017434,-0.028322
3591,-0.008979,-0.001832,-0.047018
3592,-0.008979,0.017434,-0.028322
3593,-0.008979,-0.001832,-0.047018
3594,-0.008979,-0.001832,0.009072
3595,-0.008979,-0.001832,0.046465
3596,0.008122,0.017434,0.027769
3597,-0.026081,0.017434,0.065162
3598,0.008122,0.017434,0.046465
3599,0.008122,-0.001832,0.009072
3600,0.008122,-0.021098,-0.047018
3601,0.008122,-0.001832,-0.065715
3602,-0.008979,-0.021098,-0.084412
3603,-0.008979,-0.021098,-0.009625
3604,-0.008979,-0.021098,0.009072
3605,-0.008979,-0.001832,-0.009625
3606,0.025223,-0.021098,-0.009625
3607,0.008122,-0.001832,0.009072
3608,-0.026081,-0.021098,-0.028322
3609,-0.008979,-0.021098,0.009072
3610,0.008122,-0.021098,-0.028322
3611,-0.060283,-0.021098,-0.028322
3612,-0.008979,-0.021098,-0.009625
3613,-0.008979,-0.040364,0.009072
3614,0.008122,-0.040364,-0.028322
3615,0.008122,-0.040364,0.046465
3616,0.025223,-0.040364,0.027769
3617,0.008122,-0.05963,0.027769
3618,-0.008979,-0.040364,0.027769
3619,0.008122,-0.078896,0.027769
3620,0.025223,-0.040364,0.027769
3621,-0.026081,-0.021098,-0.028322
3622,-0.008979,-0.001832,0.009072
3623,0.008122,0.017434,-0.028322
