# Requested Sampling Rate (Hz):,1000
# Actual Sampling Rate (Hz):,998.723
# Requested Duration (s):,5.0
# Actual Duration (s):,5.048
# REST Calibration:,831.5250689655151,832.0950689655182,831.5147931034478
# MAX Calibration:,890.0000,884.0000,885.0000
# Normalization: MVC-based  (x_norm = (x - REST) / (MAX - REST))
sample_idx,EMG1,EMG2,EMG3
0,0.008122,-0.001832,0.027769
1,-0.008979,0.017434,0.027769
2,-0.008979,0.017434,-0.009625
3,0.008122,-0.001832,0.009072
4,0.008122,-0.001832,-0.009625
5,-0.008979,0.017434,-0.009625
6,0.008122,0.0367,0.027769
7,-0.008979,0.017434,0.027769
8,0.008122,0.017434,0.027769
9,0.008122,0.0367,0.009072
10,0.008122,0.017434,-0.009625
11,-0.008979,-0.040364,-0.009625
12,0.008122,-0.021098,0.027769
13,-0.008979,0.017434,0.009072
14,-0.008979,-0.021098,-0.009625
15,0.008122,-0.001832,0.009072
16,-0.008979,0.017434,-0.028322
17,-0.008979,-0.021098,-0.047018
18,0.025223,0.017434,0.009072
19,-0.008979,0.0367,0.027769
20,-0.008979,-0.021098,-0.009625
21,-0.043182,-0.021098,0.009072
22,-0.008979,-0.001832,0.046465
23,0.008122,-0.021098,0.009072
24,0.008122,-0.001832,0.065162
25,-0.008979,-0.021098,-0.028322
26,0.008122,-0.001832,-0.028322
27,-0.008979,-0.021098,-0.028322
28,-0.008979,0.017434,-0.028322
29,0.008122,0.017434,-0.028322
30,-0.008979,-0.001832,-0.009625
31,0.008122,-0.001832,0.009072
32,0.008122,0.017434,-0.009625
33,0.025223,0.0367,0.027769
34,0.008122,0.017434,0.009072
35,0.008122,-0.001832,-0.009625
36,-0.008979,-0.001832,-0.065715
37,0.008122,-0.001832,-0.009625
38,-0.008979,0.017434,0.009072
39,0.008122,0.017434,-0.009625
40,-0.008979,-0.001832,0.027769
41,-0.008979,-0.021098,0.065162
42,0.008122,-0.001832,0.083859
43,0.008122,-0.001832,0.102556
44,-0.008979,0.0367,0.065162
45,0.008122,0.017434,0.027769
46,0.008122,-0.021098,0.009072
47,0.008122,-0.021098,-0.084412
48,-0.008979,-0.040364,-0.140502
49,-0.008979,-0.001832,-0.103109
50,0.008122,-0.021098,-0.047018
51,-0.008979,-0.021098,-0.009625
52,0.008122,-0.001832,0.027769
53,0.025223,0.017434,-0.028322
54,0.008122,0.017434,0.009072
55,0.008122,-0.001832,0.027769
56,-0.008979,-0.040364,0.009072
57,-0.008979,-0.021098,0.009072
58,-0.008979,-0.040364,-0.009625
59,-0.008979,-0.040364,-0.028322
60,-0.008979,-0.021098,-0.028322
61,-0.008979,-0.021098,0.009072
62,-0.008979,0.017434,0.027769
63,0.025223,0.055966,0.027769
64,0.042325,0.055966,0.027769
65,0.008122,0.0367,0.009072
66,-0.008979,0.017434,0.009072
67,0.008122,-0.001832,-0.009625
68,0.008122,-0.021098,0.009072
69,0.008122,-0.021098,-0.009625
70,-0.008979,0.017434,-0.028322
71,0.008122,-0.001832,-0.009625
72,-0.026081,-0.001832,-0.028322
73,0.008122,-0.001832,0.009072
74,-0.008979,-0.001832,0.027769
75,-0.008979,0.017434,0.046465
76,0.025223,-0.001832,-0.009625
77,0.008122,-0.001832,0.009072
78,0.008122,-0.001832,-0.028322
79,0.008122,-0.001832,-0.047018
80,-0.008979,-0.001832,-0.028322
81,-0.008979,-0.021098,-0.028322
82,0.008122,-0.021098,-0.065715
83,0.008122,0.017434,-0.009625
84,0.008122,-0.001832,0.027769
85,-0.008979,0.017434,0.009072
86,0.008122,-0.001832,0.027769
87,0.008122,0.017434,0.009072
88,0.008122,-0.001832,-0.009625
89,-0.008979,-0.001832,-0.009625
90,0.008122,-0.001832,0.027769
91,0.008122,-0.001832,0.009072
92,-0.008979,-0.040364,-0.009625
93,-0.026081,-0.05963,0.027769
94,-0.026081,-0.05963,-0.028322
95,-0.008979,-0.021098,0.009072
96,-0.008979,-0.021098,0.027769
97,0.008122,0.055966,0.009072
98,0.008122,0.0367,0.027769
99,-0.008979,0.055966,0.046465
100,0.025223,0.075232,-0.009625
101,0.025223,0.094498,-0.009625
102,0.025223,0.017434,0.027769
103,-0.008979,-0.001832,-0.028322
104,0.008122,0.017434,0.009072
105,0.008122,0.017434,0.009072
106,-0.008979,-0.001832,0.027769
107,-0.008979,-0.001832,0.009072
108,-0.008979,0.0367,0.009072
109,0.008122,0.017434,0.009072
110,0.025223,0.017434,-0.009625
111,0.008122,0.017434,0.027769
112,-0.008979,0.017434,0.009072
113,0.008122,-0.001832,-0.009625
114,0.008122,-0.040364,-0.047018
115,0.008122,-0.021098,0.009072
116,0.008122,-0.021098,0.009072
117,0.008122,-0.001832,0.046465
118,0.008122,-0.021098,0.046465
119,0.008122,0.0367,0.027769
120,0.008122,0.017434,0.046465
121,0.008122,-0.001832,-0.047018
122,-0.008979,-0.001832,-0.047018
123,0.008122,-0.021098,-0.047018
124,-0.008979,-0.021098,-0.084412
125,-0.008979,-0.001832,-0.084412
126,-0.008979,-0.001832,-0.028322
127,-0.008979,-0.001832,0.009072
128,-0.008979,-0.001832,-0.009625
129,0.008122,-0.001832,0.046465
130,0.008122,0.017434,0.027769
131,-0.008979,0.017434,-0.009625
132,-0.008979,-0.021098,-0.009625
133,-0.008979,-0.001832,-0.009625
134,0.008122,0.017434,-0.028322
135,-0.008979,0.017434,-0.028322
136,0.008122,0.017434,0.009072
137,0.008122,0.017434,-0.009625
138,0.025223,0.017434,0.009072
139,0.008122,-0.001832,0.009072
140,-0.026081,-0.001832,-0.009625
141,-0.026081,-0.021098,-0.009625
142,-0.008979,-0.001832,0.009072
143,-0.008979,-0.021098,-0.009625
144,0.008122,-0.001832,-0.009625
145,-0.008979,-0.001832,0.009072
146,0.008122,-0.001832,0.009072
147,0.008122,-0.001832,-0.009625
148,-0.008979,-0.021098,-0.009625
149,-0.008979,0.017434,0.009072
150,0.008122,-0.001832,0.027769
151,0.008122,-0.001832,0.046465
152,0.008122,0.017434,0.009072
153,0.008122,0.055966,0.009072
154,0.008122,-0.001832,-0.009625
155,0.008122,0.017434,0.009072
156,0.008122,-0.001832,-0.009625
157,-0.008979,-0.040364,0.009072
158,-0.008979,-0.021098,0.046465
159,0.008122,-0.001832,0.009072
160,-0.008979,-0.078896,-0.009625
161,0.008122,-0.021098,0.009072
162,0.008122,-0.001832,-0.009625
163,-0.008979,-0.021098,0.009072
164,0.008122,-0.001832,0.027769
165,0.008122,0.017434,0.027769
166,-0.008979,0.017434,0.046465
167,0.008122,0.017434,0.065162
168,-0.008979,0.0367,0.027769
169,0.008122,0.0367,-0.028322
170,0.008122,-0.021098,-0.103109
171,0.008122,-0.001832,-0.065715
172,-0.008979,-0.021098,-0.009625
173,0.008122,0.017434,-0.047018
174,0.008122,-0.001832,-0.065715
175,-0.008979,0.017434,-0.047018
176,-0.008979,0.017434,-0.028322
177,0.025223,0.017434,-0.009625
178,0.025223,-0.001832,0.009072
179,-0.008979,-0.040364,0.009072
180,-0.008979,-0.001832,-0.009625
181,-0.008979,-0.021098,0.009072
182,0.008122,-0.001832,0.009072
183,0.008122,-0.040364,-0.009625
184,-0.008979,-0.021098,-0.009625
185,0.008122,-0.021098,-0.009625
186,0.008122,0.017434,-0.028322
187,0.008122,0.017434,0.009072
188,-0.008979,0.055966,0.046465
189,0.008122,0.055966,0.027769
190,0.008122,0.055966,0.046465
191,0.025223,0.055966,0.027769
192,0.008122,0.0367,0.009072
193,0.025223,0.017434,-0.009625
194,0.008122,0.017434,-0.009625
195,0.008122,-0.021098,-0.028322
196,-0.026081,-0.05963,-0.047018
197,-0.008979,-0.040364,-0.009625
198,-0.008979,-0.040364,-0.009625
199,-0.008979,0.0367,0.009072
200,-0.008979,0.0367,0.027769
201,-0.008979,0.0367,0.046465
202,0.008122,-0.001832,0.009072
203,0.008122,0.017434,0.065162
204,0.008122,-0.001832,-0.009625
205,-0.008979,-0.021098,-0.028322
206,0.008122,-0.001832,-0.028322
207,-0.008979,0.0367,-0.028322
208,0.008122,0.017434,-0.028322
209,-0.008979,-0.001832,-0.009625
210,-0.008979,-0.001832,0.009072
211,0.008122,-0.021098,-0.009625
212,-0.026081,-0.001832,0.027769
213,0.025223,-0.021098,0.009072
214,0.025223,-0.001832,0.027769
215,-0.008979,0.017434,0.046465
216,0.008122,-0.001832,0.027769
217,0.008122,-0.001832,0.009072
218,-0.008979,-0.001832,0.009072
219,-0.008979,-0.021098,0.027769
220,-0.008979,-0.001832,-0.047018
221,0.008122,0.017434,-0.047018
222,-0.008979,-0.001832,-0.028322
223,-0.008979,0.017434,-0.009625
224,0.008122,-0.001832,0.027769
225,-0.008979,-0.001832,0.027769
226,-0.026081,-0.021098,-0.028322
227,-0.008979,0.017434,-0.009625
228,0.008122,-0.001832,0.009072
229,-0.008979,0.017434,-0.009625
230,0.008122,0.017434,-0.009625
231,0.008122,0.094498,0.009072
232,0.008122,-0.001832,0.046465
233,0.008122,0.017434,0.027769
234,0.008122,-0.001832,0.027769
235,-0.008979,-0.001832,0.009072
236,-0.008979,-0.001832,0.027769
237,-0.008979,0.055966,0.102556
238,0.008122,0.017434,0.065162
239,0.008122,0.017434,0.046465
240,-0.008979,-0.021098,0.046465
241,-0.008979,-0.05963,-0.009625
242,0.008122,-0.040364,-0.028322
243,0.008122,-0.021098,-0.121806
244,-0.008979,-0.001832,-0.084412
245,-0.008979,-0.001832,-0.065715
246,0.008122,-0.021098,0.009072
247,0.008122,-0.021098,-0.009625
248,0.008122,-0.001832,-0.028322
249,0.008122,0.017434,-0.028322
250,0.008122,0.017434,-0.028322
251,-0.008979,-0.001832,-0.009625
252,-0.008979,-0.001832,0.027769
253,0.008122,-0.001832,0.009072
254,0.008122,-0.001832,0.009072
255,0.008122,-0.001832,0.027769
256,0.008122,-0.001832,0.009072
257,0.008122,0.094498,0.009072
258,-0.008979,-0.001832,-0.028322
259,0.025223,0.017434,0.009072
260,0.025223,0.017434,-0.028322
261,-0.008979,-0.001832,0.009072
262,-0.026081,-0.001832,0.009072
263,-0.008979,-0.001832,-0.009625
264,0.008122,-0.001832,0.027769
265,0.008122,0.017434,0.027769
266,0.042325,-0.001832,-0.009625
267,0.008122,0.017434,0.009072
268,0.008122,0.017434,-0.009625
269,-0.008979,-0.021098,0.009072
270,0.008122,0.017434,0.009072
271,-0.008979,-0.021098,0.009072
272,0.008122,-0.040364,-0.009625
273,0.008122,-0.001832,0.009072
274,-0.008979,0.017434,0.046465
275,0.025223,0.017434,0.027769
276,0.008122,-0.001832,-0.009625
277,0.008122,-0.021098,-0.009625
278,-0.008979,-0.001832,-0.028322
279,-0.026081,-0.040364,-0.028322
280,-0.008979,-0.001832,-0.009625
281,0.008122,0.017434,-0.028322
282,0.008122,0.017434,-0.028322
283,0.008122,0.017434,0.009072
284,0.008122,-0.001832,-0.009625
285,-0.008979,0.017434,-0.028322
286,-0.008979,0.0367,0.027769
287,0.008122,-0.001832,0.027769
288,0.008122,0.017434,0.009072
289,0.008122,-0.021098,0.046465
290,0.008122,0.017434,0.027769
291,0.008122,-0.001832,-0.009625
292,-0.008979,-0.001832,-0.009625
293,0.008122,-0.021098,-0.009625
294,-0.008979,0.017434,0.009072
295,-0.008979,-0.001832,0.009072
296,0.008122,0.0367,0.046465
297,-0.008979,-0.001832,0.009072
298,0.008122,-0.021098,0.009072
299,0.008122,-0.021098,-0.028322
300,0.008122,0.017434,-0.009625
301,-0.008979,-0.040364,-0.009625
302,0.008122,0.017434,-0.009625
303,-0.008979,-0.001832,-0.065715
304,-0.008979,0.017434,-0.047018
305,0.008122,-0.001832,-0.009625
306,-0.008979,0.0367,0.009072
307,0.008122,0.0367,0.009072
308,-0.026081,0.017434,0.009072
309,-0.008979,-0.021098,-0.009625
310,0.008122,-0.040364,-0.009625
311,0.008122,-0.001832,-0.009625
312,-0.008979,-0.001832,-0.028322
313,-0.008979,-0.001832,-0.047018
314,-0.008979,0.017434,-0.028322
315,0.025223,-0.001832,-0.028322
316,0.025223,0.017434,0.009072
317,0.008122,-0.001832,0.065162
318,0.008122,0.017434,0.083859
319,-0.008979,-0.001832,0.046465
320,-0.008979,-0.001832,0.046465
321,0.025223,-0.021098,0.009072
322,-0.008979,-0.001832,-0.065715
323,-0.008979,-0.040364,-0.065715
324,-0.008979,-0.021098,-0.028322
325,-0.008979,-0.040364,-0.009625
326,0.025223,-0.001832,0.027769
327,-0.008979,-0.001832,0.027769
328,0.025223,0.017434,0.009072
329,-0.008979,0.0367,0.027769
330,-0.008979,-0.001832,0.027769
331,0.008122,0.017434,-0.009625
332,0.025223,0.017434,-0.009625
333,0.008122,-0.021098,-0.009625
334,0.008122,-0.040364,-0.047018
335,0.008122,-0.05963,-0.009625
336,0.008122,-0.05963,-0.009625
337,-0.008979,-0.040364,-0.028322
338,-0.008979,-0.001832,0.009072
339,-0.008979,0.055966,0.046465
340,-0.008979,0.055966,0.027769
341,0.008122,0.094498,0.046465
342,0.025223,0.055966,0.009072
343,0.025223,0.0367,-0.028322
344,0.008122,0.017434,-0.047018
345,-0.008979,0.017434,-0.009625
346,0.008122,0.017434,-0.028322
347,-0.008979,-0.001832,-0.009625
348,0.008122,-0.001832,0.027769
349,-0.008979,0.017434,0.009072
350,-0.008979,-0.021098,0.027769
351,0.008122,0.017434,0.027769
352,0.008122,0.017434,0.009072
353,-0.026081,-0.021098,-0.009625
354,-0.008979,0.017434,0.046465
355,-0.008979,0.017434,0.027769
356,-0.008979,0.0367,0.046465
357,0.025223,0.017434,0.027769
358,0.025223,0.017434,0.027769
359,0.008122,0.0367,-0.028322
360,-0.026081,-0.021098,-0.009625
361,-0.008979,-0.021098,-0.009625
362,0.008122,-0.001832,-0.009625
363,0.008122,0.017434,0.009072
364,0.008122,-0.001832,-0.009625
365,0.008122,-0.001832,-0.047018
366,-0.008979,-0.021098,-0.009625
367,-0.008979,-0.001832,-0.028322
368,-0.008979,-0.021098,-0.009625
369,0.008122,-0.021098,0.009072
370,0.008122,0.0367,0.046465
371,0.008122,0.017434,0.027769
372,0.025223,0.017434,0.046465
373,0.008122,0.017434,0.027769
374,-0.008979,0.017434,-0.009625
375,-0.008979,-0.021098,-0.009625
376,-0.008979,-0.001832,-0.009625
377,-0.008979,-0.001832,-0.047018
378,-0.008979,-0.021098,0.009072
379,-0.008979,-0.021098,0.027769
380,-0.043182,-0.001832,0.027769
381,-0.008979,-0.040364,0.009072
382,-0.026081,-0.001832,0.027769
383,-0.026081,-0.001832,0.009072
384,-0.008979,-0.001832,-0.047018
385,0.008122,-0.001832,-0.084412
386,-0.008979,-0.001832,-0.047018
387,0.008122,-0.001832,-0.028322
388,0.008122,-0.001832,0.009072
389,0.008122,-0.001832,-0.028322
390,0.008122,-0.001832,0.009072
391,0.008122,0.017434,0.027769
392,0.008122,-0.001832,0.009072
393,-0.008979,0.017434,0.046465
394,-0.008979,-0.021098,0.009072
395,0.008122,-0.001832,-0.009625
396,0.008122,-0.001832,-0.028322
397,-0.008979,-0.021098,-0.047018
398,0.008122,-0.040364,-0.047018
399,-0.026081,-0.001832,0.009072
400,-0.008979,0.017434,0.046465
401,0.008122,0.0367,0.027769
402,-0.008979,0.0367,0.009072
403,-0.026081,0.017434,0.046465
404,-0.008979,-0.001832,0.027769
405,-0.008979,-0.001832,-0.009625
406,0.008122,0.017434,0.009072
407,0.008122,-0.001832,0.009072
408,-0.026081,0.017434,-0.009625
409,0.008122,0.017434,-0.028322
410,0.025223,-0.001832,-0.028322
411,0.008122,-0.021098,-0.028322
412,0.008122,0.017434,0.009072
413,0.008122,-0.021098,0.046465
414,-0.008979,0.017434,0.027769
415,-0.008979,-0.001832,0.046465
416,0.025223,-0.021098,0.009072
417,0.008122,-0.021098,0.009072
418,0.008122,-0.001832,-0.028322
419,0.025223,0.017434,-0.028322
420,0.008122,0.017434,-0.047018
421,-0.008979,-0.001832,-0.009625
422,-0.008979,0.017434,0.009072
423,-0.008979,0.0367,-0.009625
424,-0.026081,-0.001832,-0.009625
425,-0.026081,-0.021098,0.009072
426,-0.043182,-0.040364,-0.028322
427,-0.026081,-0.040364,-0.047018
428,0.008122,-0.021098,-0.009625
429,0.008122,-0.021098,-0.028322
430,0.025223,-0.021098,-0.009625
431,0.025223,0.017434,-0.009625
432,0.008122,0.017434,-0.009625
433,0.042325,-0.001832,0.009072
434,0.076527,-0.021098,0.027769
435,0.042325,0.017434,0.009072
436,0.042325,0.0367,0.009072
437,0.076527,-0.021098,0.027769
438,-0.026081,0.017434,-0.009625
439,-0.008979,-0.001832,-0.009625
440,-0.008979,-0.021098,0.027769
441,-0.026081,-0.001832,-0.009625
442,-0.008979,-0.001832,0.027769
443,-0.060283,-0.021098,0.027769
444,-0.060283,-0.021098,0.009072
445,-0.026081,-0.021098,-0.028322
446,0.025223,-0.001832,0.009072
447,0.042325,-0.021098,0.009072
448,0.008122,-0.001832,-0.009625
449,0.008122,0.0367,-0.028322
450,0.008122,0.0367,-0.028322
451,0.008122,0.075232,-0.009625
452,0.008122,0.055966,0.027769
453,-0.008979,0.017434,0.027769
454,0.008122,0.0367,0.009072
455,0.025223,0.017434,0.009072
456,-0.008979,0.017434,0.046465
457,0.008122,0.017434,0.009072
458,0.025223,0.0367,0.083859
459,0.008122,-0.021098,0.027769
460,-0.008979,-0.001832,-0.009625
461,-0.008979,-0.021098,-0.009625
462,0.008122,-0.001832,0.027769
463,0.008122,-0.001832,-0.009625
464,0.008122,-0.001832,-0.009625
465,0.008122,-0.001832,-0.047018
466,0.008122,-0.001832,-0.028322
467,0.008122,-0.021098,-0.028322
468,0.008122,-0.001832,-0.009625
469,0.025223,0.017434,-0.047018
470,-0.008979,-0.021098,-0.047018
471,0.008122,-0.001832,0.009072
472,0.008122,0.017434,0.009072
473,-0.026081,-0.001832,0.009072
474,-0.026081,-0.001832,0.027769
475,-0.008979,-0.001832,0.065162
476,-0.026081,0.0367,0.027769
477,-0.008979,0.0367,0.065162
478,0.008122,-0.001832,0.027769
479,0.008122,-0.001832,-0.084412
480,0.008122,-0.040364,-0.065715
481,0.008122,0.017434,-0.047018
482,-0.008979,0.017434,-0.009625
483,0.008122,-0.001832,-0.009625
484,0.008122,-0.001832,-0.028322
485,-0.008979,-0.021098,-0.047018
486,-0.008979,-0.001832,-0.009625
487,-0.008979,-0.001832,0.009072
488,0.008122,-0.001832,-0.028322
489,-0.008979,-0.021098,0.027769
490,0.008122,-0.001832,-0.009625
491,0.008122,0.017434,-0.009625
492,-0.008979,-0.001832,-0.009625
493,0.008122,-0.021098,0.009072
494,0.008122,-0.001832,0.009072
495,0.008122,0.017434,0.009072
496,-0.008979,-0.001832,0.009072
497,0.008122,0.0367,0.027769
498,0.008122,-0.001832,0.046465
499,0.008122,0.017434,0.083859
500,0.008122,0.017434,0.083859
501,0.008122,-0.001832,0.065162
502,-0.008979,-0.001832,0.083859
503,-0.008979,-0.021098,-0.009625
504,-0.008979,0.017434,-0.103109
505,0.008122,-0.001832,-0.121806
506,0.008122,-0.001832,-0.103109
507,-0.008979,0.017434,-0.065715
508,-0.008979,-0.05963,-0.028322
509,-0.008979,-0.001832,0.009072
510,0.008122,-0.001832,0.009072
511,-0.008979,0.017434,0.009072
512,-0.008979,-0.001832,-0.028322
513,0.008122,-0.001832,-0.065715
514,0.025223,-0.021098,-0.047018
515,0.008122,-0.001832,-0.009625
516,0.025223,-0.040364,-0.009625
517,0.008122,-0.001832,0.009072
518,0.008122,0.017434,0.027769
519,0.008122,0.017434,0.027769
520,0.008122,0.017434,0.065162
521,0.008122,0.055966,0.065162
522,-0.008979,-0.001832,0.065162
523,0.008122,0.017434,0.102556
524,0.008122,0.017434,0.027769
525,0.025223,0.017434,0.009072
526,0.025223,-0.001832,-0.009625
527,0.008122,-0.001832,-0.028322
528,-0.008979,-0.021098,-0.047018
529,-0.026081,-0.001832,-0.028322
530,0.008122,0.017434,0.009072
531,-0.008979,-0.001832,0.009072
532,0.008122,0.017434,0.046465
533,-0.008979,0.017434,-0.009625
534,-0.026081,-0.05963,-0.028322
535,-0.008979,-0.05963,-0.009625
536,-0.008979,-0.05963,0.009072
537,-0.008979,-0.021098,-0.047018
538,-0.008979,-0.001832,-0.047018
539,-0.026081,-0.001832,0.009072
540,-0.008979,0.055966,0.009072
541,-0.008979,0.0367,0.009072
542,0.008122,0.055966,-0.028322
543,0.025223,0.0367,-0.028322
544,0.008122,-0.001832,-0.009625
545,0.008122,-0.001832,0.027769
546,0.025223,0.0367,0.027769
547,0.025223,0.0367,0.083859
548,0.025223,0.055966,0.139949
549,0.042325,0.075232,0.046465
550,0.008122,0.055966,0.027769
551,0.008122,0.055966,0.083859
552,0.025223,0.055966,0.121252
553,0.008122,0.017434,-0.009625
554,-0.026081,-0.001832,-0.140502
555,-0.008979,-0.040364,-0.196593
556,-0.008979,-0.078896,-0.140502
557,-0.008979,-0.040364,-0.028322
558,0.008122,-0.040364,-0.028322
559,-0.008979,-0.040364,-0.047018
560,-0.026081,-0.001832,-0.065715
561,-0.008979,-0.021098,-0.028322
562,-0.026081,0.017434,-0.047018
563,-0.008979,0.075232,-0.009625
564,0.008122,0.017434,0.027769
565,0.008122,0.017434,0.046465
566,0.008122,0.017434,0.083859
567,0.025223,0.017434,0.083859
568,0.008122,0.0367,-0.009625
569,0.008122,0.017434,0.009072
570,0.008122,-0.021098,0.027769
571,-0.026081,-0.001832,-0.028322
572,0.008122,-0.001832,0.009072
573,0.008122,-0.021098,-0.009625
574,-0.008979,0.017434,-0.028322
575,-0.026081,-0.021098,-0.047018
576,0.008122,0.017434,-0.121806
577,-0.008979,-0.021098,-0.084412
578,0.008122,-0.001832,-0.047018
579,-0.008979,0.017434,0.046465
580,0.008122,-0.001832,0.009072
581,0.008122,0.017434,0.083859
582,0.025223,0.0367,0.158646
583,0.025223,0.0367,0.177343
584,0.025223,0.017434,0.158646
585,-0.008979,0.017434,0.139949
586,0.025223,0.017434,0.065162
587,-0.008979,0.017434,0.027769
588,-0.008979,-0.001832,-0.009625
589,-0.008979,-0.001832,-0.047018
590,-0.026081,-0.021098,0.046465
591,0.008122,-0.021098,0.046465
592,0.025223,0.017434,-0.047018
593,0.008122,-0.001832,-0.140502
594,-0.026081,-0.078896,-0.140502
595,-0.043182,-0.098162,-0.121806
596,-0.026081,-0.136694,-0.121806
597,-0.043182,-0.213758,-0.103109
598,-0.026081,-0.136694,-0.084412
599,-0.026081,-0.05963,-0.084412
600,0.008122,-0.021098,-0.028322
601,-0.008979,0.094498,-0.009625
602,0.008122,0.094498,0.009072
603,-0.008979,0.13303,-0.009625
604,0.025223,0.113764,-0.009625
605,0.025223,0.171562,-0.047018
606,0.042325,0.094498,-0.009625
607,0.008122,0.0367,0.027769
608,0.025223,0.017434,0.009072
609,0.008122,0.0367,-0.009625
610,-0.008979,0.017434,-0.009625
611,0.025223,0.055966,0.009072
612,0.008122,0.0367,0.027769
613,0.008122,0.017434,0.046465
614,0.008122,0.017434,0.027769
615,0.008122,-0.001832,0.065162
616,-0.008979,-0.001832,0.027769
617,-0.008979,-0.040364,0.027769
618,-0.008979,-0.040364,-0.028322
619,-0.026081,-0.05963,-0.009625
620,0.008122,-0.040364,-0.065715
621,0.008122,-0.040364,-0.009625
622,0.025223,-0.001832,0.027769
623,0.008122,-0.001832,-0.009625
624,-0.008979,-0.001832,-0.028322
625,-0.008979,0.017434,0.009072
626,0.008122,0.017434,-0.028322
627,0.008122,0.0367,0.027769
628,-0.026081,0.017434,-0.009625
629,0.008122,0.017434,0.009072
630,-0.026081,0.017434,0.009072
631,-0.008979,-0.001832,0.046465
632,0.008122,-0.001832,0.065162
633,0.008122,-0.001832,0.065162
634,0.008122,-0.001832,0.083859
635,0.008122,-0.021098,0.046465
636,0.008122,-0.001832,-0.009625
637,-0.008979,0.017434,-0.009625
638,0.008122,0.017434,-0.028322
639,-0.008979,-0.001832,-0.047018
640,-0.008979,-0.021098,0.009072
641,0.008122,0.017434,0.027769
642,-0.008979,-0.001832,0.065162
643,0.008122,-0.001832,0.121252
644,-0.008979,-0.021098,0.158646
645,-0.008979,-0.001832,0.121252
646,0.025223,0.0367,0.065162
647,0.008122,-0.021098,-0.009625
648,0.008122,-0.001832,-0.103109
649,0.025223,-0.001832,-0.103109
650,0.008122,-0.001832,-0.140502
651,-0.026081,-0.021098,-0.103109
652,-0.026081,-0.001832,-0.009625
653,-0.008979,-0.001832,-0.009625
654,0.025223,0.017434,0.027769
655,-0.008979,-0.001832,-0.028322
656,-0.008979,-0.001832,-0.028322
657,-0.026081,-0.001832,-0.028322
658,0.008122,-0.021098,0.027769
659,0.008122,-0.001832,-0.047018
660,0.025223,0.0367,-0.047018
661,0.025223,0.0367,-0.009625
662,-0.026081,0.0367,0.083859
663,0.008122,-0.001832,0.102556
664,0.025223,0.017434,0.158646
665,-0.008979,-0.001832,0.139949
666,-0.008979,-0.001832,0.065162
667,0.008122,-0.021098,-0.084412
668,-0.008979,-0.040364,-0.103109
669,-0.026081,-0.078896,-0.103109
670,-0.026081,-0.05963,-0.103109
671,0.008122,-0.040364,-0.084412
672,-0.008979,-0.040364,-0.028322
673,-0.008979,-0.021098,-0.028322
674,0.008122,-0.001832,-0.009625
675,-0.026081,0.017434,-0.009625
676,-0.008979,0.0367,-0.009625
677,0.008122,0.0367,0.009072
678,0.008122,0.0367,0.009072
679,0.008122,0.017434,-0.009625
680,0.025223,-0.001832,0.065162
681,0.025223,-0.001832,0.065162
682,0.025223,0.0367,0.046465
683,-0.008979,0.017434,0.065162
684,-0.026081,-0.001832,0.046465
685,0.025223,0.0367,0.065162
686,0.008122,0.0367,0.121252
687,0.025223,0.0367,0.121252
688,-0.008979,-0.001832,0.046465
689,0.008122,0.017434,0.102556
690,0.008122,-0.001832,0.009072
691,-0.008979,-0.001832,0.083859
692,-0.008979,-0.001832,0.009072
693,0.008122,-0.021098,-0.084412
694,0.008122,-0.040364,-0.140502
695,0.008122,-0.021098,-0.140502
696,-0.008979,-0.040364,-0.159199
697,-0.026081,0.017434,-0.103109
698,0.008122,-0.021098,0.027769
699,0.025223,0.017434,0.065162
700,0.008122,-0.001832,0.009072
701,-0.008979,-0.001832,0.009072
702,-0.026081,-0.040364,-0.084412
703,-0.043182,-0.078896,-0.159199
704,-0.008979,-0.078896,-0.065715
705,-0.008979,-0.040364,0.009072
706,0.008122,-0.021098,-0.028322
707,0.008122,0.017434,-0.009625
708,0.008122,0.055966,0.083859
709,0.008122,0.075232,0.065162
710,0.025223,0.094498,0.083859
711,0.008122,0.075232,0.027769
712,0.008122,0.017434,0.046465
713,0.008122,-0.001832,0.009072
714,0.025223,0.017434,0.027769
715,0.008122,0.017434,0.046465
716,0.008122,-0.001832,0.046465
717,0.008122,0.017434,0.046465
718,0.008122,-0.001832,0.027769
719,-0.008979,-0.001832,-0.028322
720,-0.008979,-0.040364,-0.065715
721,0.008122,-0.040364,0.009072
722,-0.026081,-0.05963,-0.009625
723,-0.008979,-0.040364,-0.028322
724,0.008122,-0.021098,-0.028322
725,0.008122,-0.021098,-0.009625
726,-0.008979,0.0367,0.065162
727,0.008122,0.0367,0.009072
728,0.025223,0.0367,0.009072
729,0.008122,0.075232,-0.009625
730,-0.008979,0.094498,-0.028322
731,-0.008979,0.0367,-0.028322
732,0.008122,-0.001832,0.009072
733,-0.008979,-0.021098,0.009072
734,0.008122,-0.001832,0.027769
735,0.025223,0.017434,0.027769
736,0.008122,-0.021098,0.046465
737,0.008122,0.017434,0.102556
738,0.008122,0.0367,0.102556
739,0.008122,0.0367,0.083859
740,0.008122,0.0367,0.083859
741,0.008122,-0.001832,0.046465
742,0.008122,-0.021098,-0.028322
743,-0.026081,-0.040364,-0.121806
744,-0.008979,-0.021098,-0.103109
745,0.008122,-0.021098,-0.028322
746,0.008122,0.0367,-0.103109
747,0.008122,0.0367,-0.028322
748,0.008122,-0.001832,0.027769
749,0.008122,-0.001832,0.009072
750,0.008122,-0.021098,-0.084412
751,0.008122,-0.001832,-0.121806
752,-0.008979,-0.021098,-0.065715
753,-0.008979,-0.001832,0.046465
754,-0.008979,-0.021098,0.046465
755,0.008122,0.017434,0.046465
756,0.025223,0.017434,0.046465
757,0.008122,0.055966,0.083859
758,0.008122,-0.001832,-0.028322
759,0.008122,-0.001832,-0.084412
760,-0.008979,-0.001832,0.009072
761,0.008122,0.017434,0.027769
762,0.008122,0.017434,0.046465
763,0.025223,-0.001832,0.065162
764,0.008122,-0.001832,-0.009625
765,0.025223,0.017434,0.009072
766,-0.026081,-0.021098,0.027769
767,-0.008979,-0.001832,0.027769
768,-0.008979,-0.021098,0.009072
769,-0.008979,-0.021098,-0.103109
770,0.008122,-0.021098,-0.047018
771,-0.008979,-0.021098,-0.028322
772,-0.008979,-0.001832,0.009072
773,0.008122,0.0367,0.046465
774,0.008122,-0.040364,0.009072
775,0.008122,-0.001832,0.027769
776,-0.008979,-0.021098,0.065162
777,0.008122,-0.040364,-0.009625
778,-0.008979,-0.001832,0.009072
779,0.008122,-0.001832,-0.009625
780,0.008122,0.0367,-0.047018
781,0.025223,0.055966,-0.047018
782,0.008122,0.055966,-0.009625
783,0.008122,0.0367,0.027769
784,0.008122,0.0367,0.083859
785,0.008122,0.017434,0.065162
786,0.008122,-0.021098,-0.009625
787,-0.008979,-0.021098,-0.047018
788,0.008122,-0.040364,-0.009625
789,-0.008979,-0.021098,0.027769
790,-0.008979,-0.021098,-0.009625
791,0.008122,-0.021098,-0.047018
792,0.008122,0.017434,-0.121806
793,0.008122,0.017434,-0.065715
794,-0.008979,-0.040364,-0.009625
795,-0.026081,-0.021098,-0.028322
796,-0.008979,-0.001832,0.009072
797,0.008122,-0.001832,0.121252
798,0.025223,-0.021098,0.083859
799,0.008122,-0.001832,0.102556
800,0.025223,0.0367,0.139949
801,0.025223,0.0367,0.139949
802,0.025223,0.0367,-0.009625
803,0.008122,0.0367,-0.084412
804,-0.008979,0.017434,-0.140502
805,-0.026081,-0.001832,-0.140502
806,-0.026081,-0.021098,-0.084412
807,0.008122,-0.05963,0.009072
808,0.008122,-0.001832,0.009072
809,0.025223,-0.021098,-0.009625
810,-0.008979,-0.021098,-0.121806
811,-0.008979,-0.021098,-0.065715
812,-0.026081,0.017434,0.065162
813,-0.008979,0.0367,0.083859
814,0.008122,-0.001832,0.065162
815,0.008122,0.0367,0.139949
816,0.008122,-0.001832,0.102556
817,0.008122,-0.05963,0.065162
818,-0.008979,-0.05963,0.009072
819,0.008122,-0.05963,0.009072
820,-0.026081,-0.040364,-0.065715
821,0.008122,-0.001832,-0.159199
822,0.025223,0.017434,-0.177896
823,-0.008979,-0.001832,-0.065715
824,0.008122,0.075232,0.009072
825,-0.008979,0.075232,0.009072
826,0.025223,0.055966,-0.009625
827,0.008122,0.017434,0.046465
828,-0.008979,-0.001832,0.083859
829,0.008122,0.017434,0.102556
830,0.008122,-0.021098,0.065162
831,0.008122,-0.021098,0.046465
832,0.008122,-0.021098,-0.028322
833,-0.008979,-0.040364,0.046465
834,0.008122,-0.05963,0.083859
835,-0.008979,-0.078896,0.065162
836,-0.026081,-0.05963,0.027769
837,-0.026081,-0.040364,0.009072
838,-0.008979,0.017434,-0.121806
839,0.025223,0.113764,-0.047018
840,0.042325,0.113764,0.009072
841,0.008122,0.152296,-0.009625
842,0.025223,0.075232,0.027769
843,0.025223,0.075232,0.102556
844,0.008122,0.0367,0.102556
845,0.008122,0.017434,-0.009625
846,0.008122,0.0367,-0.009625
847,-0.008979,0.0367,-0.047018
848,0.008122,0.094498,-0.103109
849,0.008122,-0.001832,-0.140502
850,0.008122,-0.001832,0.009072
851,0.008122,0.017434,0.046465
852,-0.008979,-0.001832,0.083859
853,-0.008979,0.017434,0.083859
854,-0.008979,-0.021098,0.046465
855,0.008122,-0.040364,-0.103109
856,0.008122,-0.021098,-0.159199
857,0.008122,-0.021098,-0.084412
858,0.008122,-0.021098,0.027769
859,0.008122,-0.001832,0.083859
860,-0.008979,-0.001832,0.065162
861,0.008122,0.017434,0.065162
862,0.025223,0.0367,0.083859
863,0.025223,0.017434,-0.009625
864,0.025223,0.017434,-0.047018
865,0.025223,0.055966,-0.047018
866,0.008122,0.017434,-0.028322
867,0.008122,-0.001832,-0.009625
868,-0.026081,-0.001832,0.046465
869,-0.026081,-0.05963,0.083859
870,-0.026081,-0.05963,-0.028322
871,-0.026081,-0.021098,-0.065715
872,-0.026081,-0.021098,-0.065715
873,-0.008979,-0.05963,-0.084412
874,0.008122,-0.021098,-0.028322
875,-0.008979,-0.001832,-0.009625
876,0.008122,0.0367,0.177343
877,0.008122,0.055966,0.214736
878,-0.008979,0.017434,0.121252
879,-0.008979,0.0367,0.065162
880,0.025223,0.017434,-0.009625
881,0.008122,-0.001832,-0.177896
882,0.008122,0.017434,-0.159199
883,-0.008979,-0.001832,0.009072
884,0.025223,0.017434,0.009072
885,0.025223,-0.001832,-0.009625
886,0.008122,-0.040364,0.027769
887,0.008122,0.017434,0.027769
888,0.008122,-0.001832,-0.028322
889,0.025223,-0.040364,0.027769
890,0.008122,0.017434,0.027769
891,0.025223,0.017434,0.027769
892,0.025223,0.055966,-0.047018
893,0.008122,-0.021098,-0.159199
894,-0.026081,-0.078896,-0.177896
895,-0.008979,-0.040364,-0.084412
896,-0.008979,-0.021098,-0.028322
897,0.008122,-0.001832,-0.047018
898,0.008122,0.017434,0.065162
899,0.008122,-0.001832,0.139949
900,0.008122,-0.040364,0.139949
901,0.008122,-0.021098,0.121252
902,0.008122,-0.021098,0.009072
903,0.008122,-0.001832,-0.140502
904,-0.008979,-0.001832,-0.084412
905,-0.008979,-0.001832,-0.009625
906,0.008122,0.017434,-0.009625
907,-0.008979,0.075232,0.009072
908,-0.008979,0.0367,0.046465
909,-0.043182,-0.021098,0.009072
910,0.008122,-0.021098,0.065162
911,0.008122,0.017434,0.027769
912,0.042325,0.075232,0.027769
913,0.025223,0.094498,0.027769
914,0.025223,0.0367,0.027769
915,0.025223,0.0367,0.065162
916,0.025223,0.0367,0.158646
917,0.025223,0.0367,0.177343
918,-0.008979,0.0367,0.102556
919,-0.026081,-0.001832,0.027769
920,-0.026081,-0.001832,-0.084412
921,-0.008979,-0.021098,-0.233986
922,-0.008979,-0.001832,-0.177896
923,0.008122,-0.021098,-0.047018
924,0.008122,-0.001832,0.009072
925,0.025223,0.017434,0.027769
926,0.025223,-0.001832,0.102556
927,0.008122,-0.021098,0.027769
928,-0.008979,-0.021098,0.046465
929,0.008122,-0.021098,0.083859
930,-0.008979,-0.001832,-0.009625
931,-0.008979,-0.040364,-0.140502
932,-0.008979,0.017434,-0.103109
933,0.008122,-0.001832,-0.103109
934,-0.026081,-0.001832,-0.103109
935,0.025223,-0.001832,-0.028322
936,0.008122,0.017434,-0.009625
937,-0.008979,-0.001832,-0.047018
938,-0.008979,0.017434,0.065162
939,-0.008979,-0.001832,0.121252
940,0.008122,-0.001832,0.102556
941,0.042325,0.017434,0.102556
942,0.025223,0.0367,0.083859
943,0.025223,0.055966,0.065162
944,-0.008979,0.017434,0.083859
945,-0.008979,-0.021098,0.009072
946,0.025223,0.017434,0.046465
947,0.025223,0.017434,0.046465
948,-0.008979,0.017434,-0.065715
949,-0.008979,-0.001832,-0.065715
950,0.008122,-0.001832,0.046465
951,0.008122,0.017434,0.083859
952,0.008122,0.0367,-0.047018
953,0.008122,-0.021098,-0.140502
954,-0.008979,-0.001832,-0.140502
955,-0.008979,-0.040364,-0.028322
956,0.008122,0.017434,0.102556
957,-0.008979,0.017434,0.233433
958,-0.026081,-0.001832,0.25213
959,-0.008979,-0.001832,0.139949
960,0.008122,-0.001832,0.046465
961,-0.008979,-0.001832,0.009072
962,0.008122,-0.021098,-0.159199
963,0.025223,-0.001832,-0.196593
964,-0.008979,0.017434,-0.140502
965,0.008122,-0.001832,-0.252683
966,-0.008979,-0.001832,-0.215289
967,0.008122,-0.001832,0.009072
968,0.025223,0.0367,0.158646
969,0.008122,0.0367,0.065162
970,-0.008979,0.0367,0.046465
971,0.008122,-0.001832,-0.028322
972,-0.026081,-0.040364,-0.047018
973,-0.043182,-0.040364,-0.065715
974,-0.026081,-0.021098,0.009072
975,0.008122,-0.001832,0.177343
976,0.025223,-0.001832,0.345613
977,0.025223,-0.001832,0.345613
978,-0.008979,-0.021098,0.177343
979,0.008122,-0.001832,0.102556
980,0.025223,0.094498,0.083859
981,0.025223,0.113764,-0.177896
982,0.008122,0.017434,-0.252683
983,-0.008979,-0.021098,-0.27138
984,-0.043182,-0.040364,-0.196593
985,-0.008979,-0.001832,-0.140502
986,0.008122,-0.040364,-0.028322
987,0.025223,0.017434,0.065162
988,0.042325,0.017434,0.102556
989,0.008122,-0.001832,-0.028322
990,-0.008979,-0.001832,-0.159199
991,-0.026081,-0.001832,-0.121806
992,-0.026081,-0.040364,-0.121806
993,-0.026081,-0.021098,-0.009625
994,0.008122,-0.001832,0.027769
995,0.025223,0.017434,0.121252
996,0.008122,0.0367,0.214736
997,0.008122,0.055966,0.270826
998,0.008122,0.055966,0.214736
999,0.025223,0.055966,0.214736
1000,0.025223,0.0367,0.102556
1001,0.008122,0.0367,-0.140502
1002,-0.008979,-0.021098,-0.308773
1003,-0.026081,-0.05963,-0.140502
1004,-0.043182,-0.05963,-0.084412
1005,-0.026081,-0.05963,-0.121806
1006,-0.008979,-0.078896,-0.084412
1007,-0.008979,-0.021098,-0.009625
1008,-0.026081,-0.001832,0.009072
1009,0.025223,0.0367,0.121252
1010,0.025223,0.0367,0.177343
1011,0.008122,0.075232,0.139949
1012,0.008122,0.0367,0.102556
1013,0.008122,0.0367,0.027769
1014,-0.008979,-0.001832,-0.121806
1015,-0.008979,-0.001832,-0.047018
1016,0.008122,0.0367,-0.009625
1017,-0.008979,0.055966,-0.196593
1018,0.025223,0.0367,-0.065715
1019,0.008122,0.055966,-0.047018
1020,0.008122,0.017434,-0.009625
1021,-0.008979,-0.040364,-0.065715
1022,0.008122,-0.040364,0.009072
1023,-0.008979,-0.040364,-0.047018
1024,-0.043182,-0.040364,-0.047018
1025,-0.008979,0.017434,0.121252
1026,-0.008979,0.017434,0.177343
1027,0.008122,0.017434,0.121252
1028,0.008122,-0.001832,0.046465
1029,0.008122,-0.001832,-0.177896
1030,-0.008979,-0.021098,-0.196593
1031,-0.008979,-0.021098,-0.028322
1032,0.008122,-0.021098,0.083859
1033,0.008122,0.017434,0.027769
1034,0.008122,-0.001832,0.027769
1035,-0.008979,-0.001832,-0.065715
1036,-0.008979,-0.021098,-0.103109
1037,-0.008979,-0.040364,-0.009625
1038,-0.008979,-0.05963,0.083859
1039,-0.026081,-0.040364,0.102556
1040,0.008122,-0.001832,0.289523
1041,-0.008979,-0.021098,0.158646
1042,0.008122,0.017434,0.233433
1043,0.025223,0.055966,0.083859
1044,-0.008979,-0.021098,-0.009625
1045,-0.026081,-0.021098,-0.084412
1046,-0.026081,0.055966,-0.159199
1047,0.008122,0.017434,-0.140502
1048,0.025223,0.055966,0.046465
1049,0.025223,0.055966,0.065162
1050,0.042325,0.017434,0.009072
1051,0.025223,0.017434,-0.121806
1052,-0.008979,-0.001832,-0.159199
1053,-0.008979,0.017434,-0.103109
1054,0.008122,-0.001832,-0.103109
1055,0.008122,0.055966,-0.103109
1056,-0.008979,0.017434,-0.140502
1057,-0.008979,0.017434,-0.121806
1058,-0.008979,-0.001832,-0.065715
1059,-0.008979,-0.021098,-0.047018
1060,0.008122,0.017434,-0.009625
1061,-0.008979,-0.05963,0.102556
1062,0.008122,-0.021098,0.102556
1063,0.042325,0.0367,0.027769
1064,-0.026081,0.017434,0.009072
1065,0.008122,0.017434,0.139949
1066,0.025223,0.055966,0.102556
1067,-0.026081,-0.001832,0.009072
1068,0.008122,0.055966,0.196039
1069,0.025223,0.055966,0.233433
1070,0.025223,0.075232,0.233433
1071,-0.026081,-0.021098,-0.009625
1072,-0.026081,-0.05963,-0.196593
1073,-0.026081,-0.021098,-0.233986
1074,-0.008979,-0.040364,-0.121806
1075,-0.008979,-0.040364,-0.009625
1076,-0.008979,-0.001832,0.027769
1077,0.008122,-0.001832,0.083859
1078,0.008122,0.017434,0.102556
1079,0.025223,-0.001832,0.196039
1080,0.042325,-0.001832,0.139949
1081,0.008122,0.075232,0.25213
1082,0.008122,0.055966,0.196039
1083,0.008122,0.075232,0.102556
1084,-0.008979,-0.001832,-0.084412
1085,0.008122,0.017434,0.027769
1086,0.025223,0.017434,0.027769
1087,0.008122,-0.040364,-0.009625
1088,-0.026081,-0.05963,-0.364863
1089,-0.043182,-0.098162,-0.664012
1090,-0.008979,-0.001832,-0.27138
1091,0.008122,-0.001832,-0.103109
1092,0.008122,-0.021098,0.139949
1093,-0.026081,-0.021098,0.233433
1094,-0.026081,-0.05963,-0.103109
1095,-0.008979,0.017434,-0.103109
1096,0.008122,0.055966,-0.121806
1097,0.008122,-0.001832,-0.028322
1098,0.008122,0.0367,0.046465
1099,0.025223,0.055966,0.158646
1100,0.025223,0.0367,0.065162
1101,0.008122,0.0367,0.027769
1102,0.008122,0.055966,-0.103109
1103,0.008122,-0.021098,-0.196593
1104,-0.026081,-0.05963,-0.103109
1105,-0.026081,-0.040364,0.027769
1106,-0.026081,0.017434,0.027769
1107,-0.008979,-0.001832,0.046465
1108,0.008122,0.017434,0.177343
1109,0.008122,0.017434,0.196039
1110,0.008122,-0.001832,0.139949
1111,-0.008979,0.017434,0.083859
1112,0.008122,-0.001832,0.046465
1113,0.008122,0.017434,0.009072
1114,0.008122,0.055966,0.121252
1115,0.025223,0.055966,0.065162
1116,0.008122,0.017434,0.009072
1117,-0.008979,-0.021098,-0.065715
1118,-0.008979,-0.001832,-0.028322
1119,0.025223,0.055966,0.065162
1120,0.008122,0.055966,0.083859
1121,0.008122,0.0367,0.139949
1122,0.008122,0.0367,0.102556
1123,0.008122,-0.001832,-0.084412
1124,0.008122,-0.021098,-0.27138
1125,-0.026081,-0.078896,-0.32747
1126,-0.026081,-0.078896,-0.121806
1127,-0.008979,-0.021098,0.046465
1128,0.008122,-0.021098,0.046465
1129,0.008122,-0.05963,0.139949
1130,0.008122,-0.001832,0.214736
1131,0.008122,-0.001832,-0.009625
1132,0.008122,0.017434,-0.084412
1133,-0.026081,-0.021098,-0.103109
1134,-0.008979,0.017434,-0.290076
1135,0.008122,0.017434,-0.140502
1136,-0.008979,0.0367,0.009072
1137,0.008122,0.017434,0.158646
1138,0.008122,-0.021098,0.083859
1139,-0.008979,-0.001832,-0.009625
1140,0.008122,0.017434,-0.103109
1141,0.025223,-0.040364,-0.047018
1142,0.025223,-0.05963,0.102556
1143,0.025223,-0.040364,0.289523
1144,0.025223,-0.021098,0.326917
1145,0.008122,-0.021098,0.214736
1146,-0.008979,0.017434,0.027769
1147,-0.008979,0.055966,-0.290076
1148,-0.008979,0.0367,-0.233986
1149,0.008122,0.0367,-0.065715
1150,-0.008979,0.017434,0.009072
1151,-0.008979,0.055966,0.214736
1152,0.025223,0.113764,0.25213
1153,0.008122,-0.001832,0.046465
1154,0.025223,-0.001832,0.233433
1155,0.008122,-0.040364,0.196039
1156,-0.008979,-0.040364,0.009072
1157,-0.026081,-0.05963,-0.047018
1158,-0.026081,-0.05963,-0.047018
1159,-0.008979,-0.040364,-0.252683
1160,-0.008979,0.0367,-0.084412
1161,0.025223,0.017434,-0.364863
1162,0.042325,0.094498,-0.009625
1163,0.059426,0.113764,0.139949
1164,0.042325,0.113764,0.158646
1165,0.025223,0.0367,0.009072
1166,-0.008979,-0.040364,-0.140502
1167,-0.026081,0.017434,-0.140502
1168,-0.060283,-0.05963,-0.177896
1169,-0.026081,-0.05963,-0.009625
1170,0.008122,-0.001832,0.046465
1171,0.008122,-0.021098,0.102556
1172,0.025223,0.0367,-0.028322
1173,-0.008979,-0.021098,-0.140502
1174,-0.026081,-0.040364,-0.215289
1175,-0.026081,-0.021098,-0.103109
1176,-0.008979,-0.001832,0.102556
1177,-0.008979,0.017434,0.214736
1178,0.025223,0.075232,0.383007
1179,0.008122,0.017434,0.009072
1180,-0.008979,-0.001832,-0.290076
1181,-0.008979,-0.001832,-0.27138
1182,-0.008979,-0.040364,-0.103109
1183,0.008122,-0.040364,0.270826
1184,-0.008979,0.017434,0.532581
1185,0.025223,0.0367,0.495188
1186,0.008122,-0.021098,-0.047018
1187,-0.026081,0.075232,-0.159199
1188,0.008122,0.055966,-0.38356
1189,0.008122,0.017434,-0.27138
1190,0.025223,-0.001832,0.027769
1191,0.025223,0.017434,0.139949
1192,0.042325,0.0367,0.102556
1193,-0.043182,-0.001832,0.046465
1194,-0.026081,-0.001832,-0.084412
1195,0.025223,0.0367,0.046465
1196,0.008122,-0.021098,0.065162
1197,0.008122,0.0367,0.270826
1198,0.025223,0.0367,0.36431
1199,-0.008979,-0.021098,-0.103109
1200,0.008122,-0.001832,-0.065715
1201,0.025223,0.0367,0.383007
1202,-0.008979,-0.040364,0.214736
1203,-0.008979,-0.05963,0.046465
1204,-0.026081,-0.098162,-0.290076
1205,-0.043182,-0.05963,-0.514437
1206,-0.043182,-0.021098,-0.664012
1207,-0.043182,-0.040364,-0.252683
1208,-0.026081,-0.040364,-0.065715
1209,-0.008979,-0.001832,-0.028322
1210,0.025223,0.0367,0.009072
1211,0.042325,0.094498,0.009072
1212,0.042325,0.055966,0.139949
1213,0.025223,0.0367,0.177343
1214,0.042325,0.075232,0.30822
1215,0.025223,0.055966,0.233433
1216,-0.026081,0.017434,-0.084412
1217,-0.026081,-0.040364,-0.196593
1218,-0.008979,0.017434,-0.047018
1219,0.008122,0.0367,0.065162
1220,-0.008979,-0.05963,0.139949
1221,0.008122,0.0367,0.121252
1222,0.008122,0.055966,-0.047018
1223,0.025223,0.055966,-0.252683
1224,-0.026081,-0.05963,-0.364863
1225,-0.043182,-0.136694,-0.047018
1226,0.025223,-0.040364,0.046465
1227,0.008122,-0.021098,0.046465
1228,-0.026081,-0.001832,0.158646
1229,-0.008979,-0.001832,0.046465
1230,0.008122,-0.001832,0.121252
1231,0.025223,-0.001832,0.046465
1232,0.008122,-0.040364,-0.028322
1233,0.008122,-0.05963,-0.065715
1234,-0.043182,0.017434,0.121252
1235,-0.008979,0.075232,0.233433
1236,0.008122,0.055966,0.30822
1237,0.008122,0.017434,0.196039
1238,-0.026081,-0.021098,-0.290076
1239,-0.043182,-0.040364,-0.589224
1240,-0.026081,-0.021098,-0.402257
1241,-0.043182,-0.078896,-0.308773
1242,0.025223,0.017434,-0.028322
1243,0.008122,0.055966,0.139949
1244,0.025223,0.0367,0.158646
1245,0.008122,0.055966,0.121252
1246,0.025223,0.075232,0.102556
1247,0.025223,0.017434,0.083859
1248,0.025223,0.017434,0.083859
1249,0.042325,0.0367,0.270826
1250,0.042325,0.055966,0.326917
1251,0.042325,0.094498,0.214736
1252,0.025223,0.055966,-0.084412
1253,0.008122,0.075232,0.121252
1254,0.008122,-0.001832,-0.159199
1255,-0.043182,-0.078896,-0.252683
1256,-0.077385,-0.117428,-0.065715
1257,-0.008979,-0.040364,0.121252
1258,0.025223,0.0367,0.027769
1259,0.008122,0.0367,-0.290076
1260,-0.008979,0.0367,-0.121806
1261,-0.043182,-0.040364,-0.177896
1262,-0.043182,-0.117428,-0.177896
1263,-0.008979,-0.098162,-0.103109
1264,0.042325,0.017434,0.102556
1265,0.008122,0.055966,0.233433
1266,0.008122,0.055966,0.046465
1267,0.008122,0.0367,-0.252683
1268,0.008122,-0.021098,-0.32747
1269,0.025223,-0.001832,-0.028322
1270,0.025223,0.0367,0.36431
1271,0.008122,0.055966,0.345613
1272,-0.008979,-0.001832,0.083859
1273,0.008122,0.055966,0.139949
1274,0.042325,0.075232,0.177343
1275,0.025223,0.0367,0.401704
1276,0.042325,0.0367,0.4204
1277,0.025223,-0.001832,0.233433
1278,-0.026081,-0.021098,-0.290076
1279,-0.043182,-0.040364,-0.402257
1280,-0.026081,0.017434,-0.32747
1281,-0.008979,-0.040364,-0.32747
1282,-0.060283,-0.098162,-0.028322
1283,-0.008979,-0.05963,0.046465
1284,-0.043182,-0.078896,0.046465
1285,-0.008979,-0.001832,0.214736
1286,-0.026081,-0.001832,0.027769
1287,0.008122,0.0367,0.214736
1288,-0.008979,0.017434,0.233433
1289,-0.026081,0.017434,0.158646
1290,0.008122,0.094498,0.214736
1291,0.025223,0.094498,0.046465
1292,0.008122,0.055966,0.046465
1293,0.042325,0.055966,-0.103109
1294,0.025223,0.017434,-0.177896
1295,-0.008979,-0.021098,-0.514437
1296,-0.060283,-0.078896,-0.589224
1297,-0.060283,-0.117428,-0.38356
1298,-0.026081,-0.078896,-0.103109
1299,0.008122,-0.021098,0.102556
1300,0.025223,0.0367,0.102556
1301,-0.026081,0.0367,0.196039
1302,0.008122,0.075232,0.457794
1303,0.008122,0.055966,0.25213
1304,0.025223,0.0367,-0.047018
1305,0.008122,-0.001832,-0.252683
1306,-0.008979,0.017434,-0.047018
1307,-0.026081,0.017434,-0.159199
1308,0.008122,-0.021098,0.046465
1309,0.025223,-0.040364,0.027769
1310,0.042325,0.0367,0.121252
1311,0.025223,0.0367,0.009072
1312,0.025223,0.0367,0.121252
1313,-0.026081,0.017434,0.25213
1314,-0.008979,-0.040364,0.009072
1315,-0.008979,-0.05963,0.139949
1316,-0.026081,-0.05963,0.121252
1317,-0.008979,0.0367,0.196039
1318,0.008122,0.113764,-0.140502
1319,0.008122,0.055966,-0.196593
1320,-0.026081,0.017434,-0.084412
1321,-0.026081,-0.05963,-0.084412
1322,-0.026081,-0.040364,-0.196593
1323,-0.026081,-0.05963,-0.233986
1324,-0.026081,-0.078896,-0.233986
1325,0.008122,-0.05963,0.121252
1326,0.042325,-0.040364,0.158646
1327,0.025223,-0.001832,0.196039
1328,0.025223,0.0367,0.233433
1329,-0.008979,0.017434,0.102556
1330,-0.008979,-0.05963,-0.196593
1331,-0.008979,-0.040364,-0.177896
1332,0.008122,-0.078896,-0.009625
1333,0.025223,-0.021098,0.196039
1334,0.008122,0.13303,0.326917
1335,0.059426,0.152296,0.139949
1336,0.025223,0.094498,-0.346167
1337,-0.077385,-0.098162,-0.664012
1338,-0.060283,-0.078896,-0.364863
1339,-0.043182,-0.078896,-0.009625
1340,-0.026081,0.094498,0.439097
1341,0.008122,0.055966,0.139949
1342,-0.008979,-0.021098,-0.047018
1343,-0.008979,-0.021098,0.158646
1344,-0.008979,-0.021098,0.009072
1345,0.025223,0.094498,-0.047018
1346,0.042325,0.094498,-0.047018
1347,0.059426,0.055966,-0.084412
1348,0.008122,-0.001832,0.196039
1349,0.008122,0.0367,0.326917
1350,0.025223,-0.001832,0.027769
1351,-0.008979,-0.021098,-0.177896
1352,-0.026081,-0.021098,-0.290076
1353,-0.026081,-0.040364,-0.140502
1354,0.008122,-0.040364,0.065162
1355,-0.008979,-0.05963,0.177343
1356,0.008122,-0.040364,0.027769
1357,-0.008979,-0.05963,-0.196593
1358,0.008122,-0.040364,-0.196593
1359,0.008122,0.017434,-0.028322
1360,0.008122,0.017434,-0.009625
1361,0.008122,-0.040364,0.102556
1362,0.025223,-0.05963,0.289523
1363,0.008122,-0.001832,0.495188
1364,0.008122,0.055966,0.383007
1365,0.025223,0.113764,0.270826
1366,0.025223,0.210094,-0.009625
1367,0.042325,0.152296,-0.177896
1368,0.008122,0.055966,-0.103109
1369,-0.043182,-0.05963,-0.27138
1370,-0.094486,-0.15596,-0.458347
1371,-0.043182,-0.136694,-0.290076
1372,-0.043182,-0.098162,-0.084412
1373,-0.026081,-0.05963,-0.009625
1374,-0.026081,0.017434,0.065162
1375,0.042325,0.055966,-0.065715
1376,0.042325,0.055966,0.083859
1377,0.093629,0.094498,0.046465
1378,0.059426,0.055966,0.457794
1379,0.042325,0.094498,0.4204
1380,-0.026081,-0.001832,0.158646
1381,-0.026081,0.055966,0.102556
1382,-0.026081,-0.021098,-0.346167
1383,-0.060283,-0.098162,-0.794889
1384,-0.043182,-0.136694,-0.551831
1385,-0.026081,-0.021098,-0.028322
1386,-0.008979,-0.001832,0.233433
1387,0.008122,0.0367,0.30822
1388,-0.008979,0.055966,-0.047018
1389,-0.026081,-0.021098,-0.084412
1390,-0.008979,-0.021098,0.009072
1391,-0.008979,-0.021098,0.083859
1392,0.008122,-0.021098,0.139949
1393,0.008122,-0.021098,0.25213
1394,0.042325,0.017434,0.345613
1395,-0.008979,-0.021098,0.083859
1396,-0.008979,-0.021098,0.046465
1397,0.025223,0.055966,-0.047018
1398,0.076527,0.13303,-0.028322
1399,0.025223,0.094498,-0.27138
1400,-0.043182,-0.098162,-0.047018
1401,-0.043182,-0.05963,0.738245
1402,-0.026081,0.017434,0.644762
1403,0.008122,0.0367,0.36431
1404,-0.026081,0.113764,-0.215289
1405,-0.026081,0.075232,-0.757495
1406,-0.026081,0.017434,-0.364863
1407,-0.008979,0.0367,-0.140502
1408,0.025223,0.0367,-0.140502
1409,-0.008979,0.017434,-0.252683
1410,-0.008979,0.0367,-0.103109
1411,-0.008979,-0.098162,-0.047018
1412,0.008122,-0.001832,0.083859
1413,0.025223,0.017434,0.196039
1414,0.076527,0.075232,0.326917
1415,0.008122,0.055966,0.065162
1416,-0.026081,-0.021098,-0.047018
1417,-0.026081,-0.001832,-0.065715
1418,-0.008979,-0.040364,-0.346167
1419,-0.043182,-0.05963,-0.38356
1420,-0.043182,-0.05963,-0.346167
1421,-0.043182,-0.021098,0.102556
1422,-0.008979,0.0367,0.326917
1423,-0.008979,0.055966,0.102556
1424,-0.008979,-0.001832,-0.084412
1425,-0.026081,-0.05963,-0.065715
1426,-0.026081,-0.05963,-0.103109
1427,0.008122,0.0367,0.083859
1428,0.025223,0.0367,0.214736
1429,0.025223,-0.001832,-0.028322
1430,-0.026081,-0.05963,-0.177896
1431,-0.008979,-0.001832,-0.140502
1432,-0.008979,-0.021098,-0.028322
1433,0.025223,-0.040364,-0.028322
1434,0.025223,-0.021098,0.083859
1435,0.025223,0.094498,0.30822
1436,0.042325,0.113764,0.476491
1437,0.025223,0.094498,0.36431
1438,0.025223,-0.021098,0.046465
1439,-0.008979,-0.078896,-0.177896
1440,-0.043182,-0.05963,-0.495741
1441,-0.043182,-0.040364,-0.140502
1442,-0.026081,-0.001832,0.065162
1443,-0.026081,0.055966,-0.159199
1444,0.008122,0.0367,-0.103109
1445,-0.008979,-0.021098,-0.084412
1446,-0.008979,0.0367,0.027769
1447,0.025223,0.017434,-0.103109
1448,-0.008979,-0.021098,-0.233986
1449,0.008122,0.0367,0.046465
1450,0.008122,-0.001832,0.177343
1451,0.008122,0.0367,0.083859
1452,0.008122,0.0367,-0.047018
1453,0.008122,-0.021098,-0.065715
1454,0.008122,-0.05963,-0.047018
1455,-0.026081,0.017434,0.009072
1456,0.008122,-0.021098,0.158646
1457,0.008122,-0.021098,0.139949
1458,-0.008979,-0.05963,-0.028322
1459,0.008122,-0.078896,-0.177896
1460,-0.008979,-0.021098,-0.364863
1461,0.008122,0.055966,-0.140502
1462,0.025223,0.0367,0.289523
1463,-0.008979,-0.001832,0.36431
1464,-0.008979,0.0367,0.177343
1465,-0.008979,0.017434,0.009072
1466,-0.026081,0.0367,-0.177896
1467,-0.008979,0.017434,-0.233986
1468,0.042325,0.0367,0.196039
1469,0.008122,0.0367,0.065162
1470,0.008122,0.017434,-0.009625
1471,-0.026081,0.017434,-0.159199
1472,-0.026081,-0.001832,0.046465
1473,-0.008979,-0.021098,0.046465
1474,0.008122,-0.001832,0.027769
1475,0.008122,-0.001832,-0.028322
1476,-0.008979,0.017434,-0.028322
1477,0.008122,-0.001832,-0.084412
1478,0.008122,-0.021098,-0.009625
1479,0.008122,0.017434,0.009072
1480,-0.008979,-0.05963,0.102556
1481,-0.026081,-0.040364,0.270826
1482,-0.026081,-0.040364,0.158646
1483,-0.008979,0.0367,0.121252
1484,0.025223,0.113764,-0.028322
1485,0.008122,0.0367,-0.159199
1486,0.008122,-0.001832,-0.346167
1487,0.008122,-0.040364,-0.009625
1488,-0.026081,-0.078896,0.102556
1489,-0.008979,0.0367,0.401704
1490,0.008122,0.0367,0.233433
1491,-0.008979,0.055966,-0.028322
1492,0.008122,0.055966,-0.103109
1493,-0.008979,-0.021098,-0.27138
1494,0.008122,-0.040364,-0.27138
1495,0.025223,0.017434,0.046465
1496,0.008122,0.017434,0.046465
1497,0.008122,0.0367,0.065162
1498,0.008122,0.017434,-0.084412
1499,-0.043182,-0.05963,-0.177896
1500,-0.008979,-0.05963,-0.159199
1501,-0.008979,-0.001832,-0.028322
1502,-0.008979,-0.001832,0.083859
1503,-0.008979,-0.021098,0.065162
1504,-0.008979,-0.040364,-0.084412
1505,-0.026081,-0.078896,-0.233986
1506,0.008122,-0.021098,-0.065715
1507,0.008122,-0.021098,-0.065715
1508,-0.008979,0.055966,0.102556
1509,-0.008979,0.055966,0.009072
1510,-0.008979,-0.021098,-0.047018
1511,0.008122,-0.021098,-0.065715
1512,0.025223,0.017434,-0.047018
1513,-0.026081,-0.001832,-0.047018
1514,-0.008979,-0.001832,0.139949
1515,0.008122,0.017434,0.214736
1516,0.008122,-0.001832,0.121252
1517,0.008122,0.017434,0.046465
1518,0.008122,0.017434,0.009072
1519,0.008122,0.017434,0.027769
1520,0.008122,-0.021098,0.027769
1521,0.008122,-0.001832,-0.103109
1522,-0.008979,-0.021098,-0.177896
1523,-0.026081,-0.040364,-0.084412
1524,-0.008979,-0.021098,0.233433
1525,-0.008979,-0.001832,0.177343
1526,-0.008979,-0.040364,-0.009625
1527,0.008122,0.017434,0.046465
1528,0.025223,0.017434,-0.028322
1529,0.008122,-0.001832,0.083859
1530,-0.008979,0.017434,0.027769
1531,0.008122,-0.001832,-0.084412
1532,0.025223,0.0367,-0.065715
1533,0.008122,-0.001832,-0.103109
1534,0.025223,0.0367,-0.009625
1535,0.008122,0.055966,0.046465
1536,0.008122,0.0367,0.065162
1537,-0.008979,-0.001832,0.065162
1538,-0.008979,0.017434,-0.047018
1539,-0.026081,-0.021098,-0.028322
1540,-0.008979,-0.021098,-0.065715
1541,-0.026081,-0.021098,0.009072
1542,-0.008979,-0.001832,0.102556
1543,0.008122,-0.001832,0.233433
1544,-0.008979,0.0367,0.233433
1545,-0.008979,-0.098162,-0.065715
1546,-0.026081,-0.213758,-0.252683
1547,-0.026081,-0.175226,-0.308773
1548,-0.008979,-0.05963,-0.028322
1549,0.025223,0.190828,0.326917
1550,0.042325,0.267892,0.027769
1551,0.042325,0.152296,-0.028322
1552,0.025223,0.094498,0.027769
1553,0.008122,0.055966,-0.047018
1554,-0.008979,0.017434,-0.140502
1555,-0.026081,-0.001832,0.027769
1556,-0.026081,0.017434,0.083859
1557,-0.008979,-0.001832,0.046465
1558,-0.008979,0.017434,0.009072
1559,0.025223,0.094498,-0.047018
1560,0.008122,-0.021098,-0.028322
1561,0.008122,-0.040364,-0.009625
1562,-0.026081,-0.05963,-0.047018
1563,-0.043182,-0.098162,-0.065715
1564,-0.026081,-0.098162,-0.028322
1565,-0.026081,-0.078896,-0.028322
1566,-0.026081,-0.040364,0.027769
1567,-0.026081,-0.021098,0.027769
1568,-0.008979,0.055966,0.027769
1569,-0.026081,0.017434,-0.028322
1570,-0.008979,0.0367,0.009072
1571,-0.008979,0.0367,-0.028322
1572,-0.008979,0.017434,-0.009625
1573,-0.026081,0.017434,0.027769
1574,-0.008979,0.017434,0.009072
1575,-0.008979,-0.021098,-0.028322
1576,0.008122,-0.05963,-0.065715
1577,0.042325,-0.078896,-0.121806
1578,0.059426,-0.040364,-0.084412
1579,0.042325,0.017434,-0.065715
1580,0.008122,0.0367,0.027769
1581,0.025223,0.055966,0.102556
1582,0.008122,0.075232,0.102556
1583,-0.008979,0.113764,0.027769
1584,-0.008979,0.0367,-0.084412
1585,-0.026081,-0.05963,0.083859
1586,-0.026081,-0.078896,0.083859
1587,-0.060283,-0.078896,0.102556
1588,-0.043182,-0.05963,0.102556
1589,-0.043182,-0.040364,-0.028322
1590,-0.008979,0.017434,-0.047018
1591,0.008122,0.0367,-0.065715
1592,0.042325,0.075232,-0.028322
1593,0.025223,0.13303,0.046465
1594,-0.060283,0.094498,0.139949
1595,0.008122,0.075232,0.139949
1596,0.059426,0.055966,0.196039
1597,0.042325,0.017434,0.046465
1598,0.042325,0.0367,-0.047018
1599,0.008122,0.055966,-0.233986
1600,0.008122,-0.001832,-0.215289
1601,-0.008979,0.017434,-0.047018
1602,0.008122,-0.001832,-0.009625
1603,0.008122,0.0367,-0.009625
1604,0.008122,-0.001832,-0.084412
1605,0.008122,-0.021098,-0.047018
1606,-0.008979,-0.040364,-0.028322
1607,0.008122,-0.05963,0.009072
1608,-0.008979,-0.05963,0.027769
1609,-0.026081,-0.05963,0.009072
1610,-0.043182,-0.021098,0.083859
1611,-0.026081,-0.040364,0.046465
1612,-0.008979,0.017434,0.065162
1613,0.008122,0.055966,0.083859
1614,0.008122,0.0367,-0.065715
1615,-0.008979,0.075232,-0.047018
1616,0.008122,0.055966,-0.009625
1617,0.008122,0.094498,0.027769
1618,0.025223,0.017434,-0.009625
1619,-0.008979,0.0367,0.027769
1620,-0.008979,0.017434,0.065162
1621,-0.008979,-0.021098,0.027769
1622,0.008122,-0.001832,-0.009625
1623,-0.008979,-0.021098,-0.252683
1624,0.008122,-0.021098,-0.177896
1625,0.008122,-0.040364,-0.009625
1626,0.025223,-0.05963,0.009072
1627,0.025223,-0.078896,-0.028322
1628,0.008122,-0.05963,0.121252
1629,0.025223,0.094498,0.214736
1630,0.025223,0.094498,0.139949
1631,0.008122,0.055966,0.027769
1632,0.008122,0.0367,-0.028322
1633,-0.008979,-0.021098,-0.121806
1634,-0.026081,-0.021098,-0.047018
1635,-0.008979,-0.021098,-0.065715
1636,-0.008979,0.017434,0.065162
1637,0.008122,0.017434,0.121252
1638,-0.043182,-0.021098,0.139949
1639,-0.043182,-0.040364,0.065162
1640,-0.026081,-0.05963,-0.140502
1641,-0.026081,-0.05963,-0.121806
1642,-0.008979,-0.021098,-0.084412
1643,0.008122,-0.040364,-0.047018
1644,0.008122,-0.040364,-0.065715
1645,0.008122,0.017434,0.009072
1646,0.025223,0.017434,0.027769
1647,0.025223,0.055966,-0.065715
1648,0.008122,0.017434,-0.159199
1649,0.008122,-0.040364,-0.084412
1650,-0.008979,-0.05963,-0.103109
1651,0.008122,-0.021098,0.009072
1652,0.042325,0.055966,0.102556
1653,0.025223,0.113764,-0.009625
1654,0.025223,0.075232,0.158646
1655,-0.008979,0.055966,0.289523
1656,-0.008979,0.017434,0.30822
1657,0.008122,0.017434,0.30822
1658,0.008122,-0.021098,0.196039
1659,-0.026081,-0.098162,-0.233986
1660,-0.026081,-0.078896,-0.233986
1661,-0.026081,-0.078896,-0.028322
1662,-0.008979,-0.001832,-0.009625
1663,0.025223,0.075232,-0.065715
1664,0.025223,-0.001832,-0.028322
1665,-0.008979,0.017434,-0.028322
1666,-0.026081,-0.040364,-0.065715
1667,-0.026081,-0.021098,-0.028322
1668,-0.043182,-0.078896,0.046465
1669,-0.060283,-0.078896,0.009072
1670,-0.094486,-0.021098,0.027769
1671,-0.111587,-0.078896,-0.009625
1672,-0.111587,-0.05963,0.009072
1673,-0.094486,-0.040364,0.027769
1674,-0.060283,-0.021098,-0.009625
1675,-0.026081,-0.001832,-0.028322
1676,0.025223,-0.001832,-0.028322
1677,0.076527,-0.040364,-0.009625
1678,0.11073,-0.136694,-0.028322
1679,0.093629,-0.194492,-0.009625
1680,0.059426,-0.117428,0.046465
1681,0.042325,-0.040364,0.027769
1682,-0.008979,-0.021098,0.027769
1683,-0.026081,-0.001832,0.009072
1684,-0.008979,0.094498,-0.028322
1685,0.059426,0.055966,-0.065715
1686,0.076527,0.0367,-0.084412
1687,0.059426,0.0367,-0.047018
1688,0.059426,0.055966,0.027769
1689,0.008122,0.017434,0.027769
1690,-0.077385,-0.021098,0.009072
1691,0.008122,-0.021098,0.027769
1692,0.076527,0.017434,0.027769
1693,0.059426,-0.040364,-0.009625
1694,0.008122,-0.021098,0.009072
1695,0.042325,0.017434,0.046465
1696,0.042325,0.0367,0.009072
1697,-0.026081,0.075232,0.027769
1698,-0.111587,0.017434,0.027769
1699,-0.214196,0.0367,-0.009625
1700,-0.060283,0.094498,0.009072
1701,-0.026081,0.152296,0.027769
1702,0.008122,0.094498,0.009072
1703,0.025223,0.094498,0.009072
1704,0.127831,0.055966,0.027769
1705,0.144933,0.055966,-0.028322
1706,0.025223,0.13303,-0.065715
1707,-0.026081,0.171562,0.027769
1708,0.008122,0.171562,0.139949
1709,0.076527,0.094498,0.214736
1710,0.11073,0.0367,0.196039
1711,0.025223,0.017434,0.009072
1712,0.008122,0.017434,-0.233986
1713,-0.008979,0.055966,-0.196593
1714,0.008122,0.017434,-0.121806
1715,0.008122,-0.001832,0.027769
1716,0.008122,-0.001832,0.027769
1717,0.008122,-0.001832,0.027769
1718,0.025223,-0.001832,0.009072
1719,0.008122,-0.001832,0.065162
1720,0.008122,-0.001832,0.121252
1721,0.008122,-0.021098,0.046465
1722,-0.008979,-0.040364,-0.065715
1723,0.008122,-0.021098,-0.103109
1724,0.025223,-0.001832,-0.065715
1725,-0.008979,-0.040364,-0.065715
1726,-0.026081,-0.05963,-0.065715
1727,-0.026081,-0.078896,-0.084412
1728,-0.008979,-0.078896,-0.009625
1729,-0.026081,-0.078896,0.065162
1730,-0.008979,-0.040364,0.046465
1731,0.008122,0.017434,0.083859
1732,0.008122,0.055966,0.177343
1733,0.008122,0.0367,0.196039
1734,0.008122,0.055966,0.214736
1735,0.008122,0.075232,0.046465
1736,0.025223,0.0367,-0.103109
1737,0.008122,0.017434,-0.084412
1738,-0.008979,-0.021098,-0.121806
1739,-0.026081,-0.098162,-0.140502
1740,-0.043182,-0.078896,-0.103109
1741,-0.008979,-0.078896,0.009072
1742,-0.008979,-0.001832,0.027769
1743,-0.008979,0.0367,-0.009625
1744,0.025223,0.017434,0.009072
1745,-0.008979,-0.001832,0.027769
1746,-0.008979,-0.021098,0.046465
1747,-0.008979,0.017434,0.083859
1748,-0.008979,-0.021098,0.027769
1749,0.008122,-0.001832,-0.084412
1750,0.008122,0.017434,-0.103109
1751,0.008122,-0.021098,-0.084412
1752,-0.026081,-0.040364,-0.047018
1753,0.008122,-0.001832,0.009072
1754,-0.008979,-0.021098,0.009072
1755,-0.008979,-0.001832,0.009072
1756,-0.008979,-0.001832,0.046465
1757,-0.008979,-0.001832,0.046465
1758,-0.008979,0.017434,0.009072
1759,0.008122,-0.021098,-0.047018
1760,0.008122,-0.001832,-0.121806
1761,0.008122,-0.001832,-0.103109
1762,-0.008979,-0.001832,-0.047018
1763,-0.008979,-0.021098,-0.028322
1764,-0.008979,-0.021098,0.046465
1765,-0.008979,-0.021098,0.046465
1766,-0.008979,-0.117428,0.046465
1767,-0.026081,-0.15596,0.027769
1768,-0.008979,-0.175226,0.027769
1769,-0.026081,-0.194492,0.009072
1770,-0.043182,-0.15596,0.027769
1771,-0.043182,-0.05963,0.065162
1772,-0.026081,-0.001832,0.065162
1773,-0.077385,0.0367,0.046465
1774,-0.077385,0.055966,0.009072
1775,-0.043182,0.017434,0.009072
1776,-0.060283,0.0367,-0.009625
1777,-0.060283,0.055966,-0.028322
1778,-0.043182,0.075232,-0.009625
1779,-0.008979,0.055966,-0.009625
1780,0.008122,0.094498,-0.028322
1781,0.025223,0.055966,-0.009625
1782,0.025223,0.075232,-0.028322
1783,0.042325,0.075232,-0.009625
1784,0.025223,0.017434,0.027769
1785,0.076527,-0.021098,0.046465
1786,0.127831,-0.040364,0.009072
1787,0.11073,0.055966,0.027769
1788,0.093629,0.13303,0.027769
1789,0.093629,0.152296,-0.009625
1790,0.076527,0.113764,-0.065715
1791,0.042325,0.075232,-0.047018
1792,0.008122,0.017434,-0.009625
1793,0.025223,0.017434,-0.009625
1794,0.008122,-0.001832,0.046465
1795,-0.026081,-0.001832,0.027769
1796,-0.008979,0.017434,0.065162
1797,0.042325,0.055966,0.046465
1798,0.059426,-0.001832,0.065162
1799,0.025223,-0.001832,0.027769
1800,-0.008979,-0.040364,-0.047018
1801,-0.060283,-0.098162,-0.065715
1802,-0.077385,-0.021098,-0.009625
1803,-0.077385,0.0367,0.027769
1804,-0.043182,0.055966,0.009072
1805,-0.026081,0.075232,0.009072
1806,0.008122,0.075232,0.009072
1807,0.042325,0.094498,0.009072
1808,0.093629,0.055966,-0.047018
1809,0.059426,-0.001832,-0.121806
1810,0.025223,-0.021098,-0.121806
1811,0.025223,-0.001832,-0.028322
1812,0.025223,0.055966,0.270826
1813,0.008122,0.055966,0.289523
1814,0.025223,0.0367,0.196039
1815,-0.026081,-0.001832,0.083859
1816,0.008122,-0.021098,-0.047018
1817,0.008122,0.017434,-0.009625
1818,0.008122,-0.021098,-0.084412
1819,0.008122,-0.021098,-0.103109
1820,-0.008979,-0.001832,-0.028322
1821,0.008122,-0.021098,-0.028322
1822,-0.008979,-0.040364,-0.084412
1823,-0.026081,-0.05963,0.009072
1824,0.008122,-0.040364,0.009072
1825,-0.008979,-0.021098,-0.047018
1826,-0.008979,-0.001832,0.027769
1827,-0.008979,-0.001832,-0.028322
1828,0.025223,-0.040364,-0.065715
1829,-0.008979,-0.001832,-0.009625
1830,-0.026081,-0.001832,0.065162
1831,-0.008979,-0.001832,0.009072
1832,0.025223,-0.021098,0.027769
1833,-0.008979,-0.001832,0.046465
1834,-0.008979,-0.001832,0.046465
1835,-0.008979,-0.001832,0.046465
1836,-0.008979,-0.040364,0.065162
1837,-0.008979,-0.001832,0.083859
1838,-0.008979,0.017434,0.009072
1839,0.008122,0.017434,-0.065715
1840,0.008122,0.017434,-0.140502
1841,0.008122,0.017434,-0.196593
1842,0.008122,0.017434,-0.103109
1843,0.008122,0.0367,-0.047018
1844,0.008122,0.017434,-0.009625
1845,-0.008979,-0.001832,0.009072
1846,-0.008979,-0.001832,-0.028322
1847,-0.008979,-0.040364,-0.028322
1848,-0.008979,-0.05963,0.009072
1849,0.008122,-0.078896,-0.009625
1850,-0.008979,-0.05963,-0.028322
1851,-0.008979,-0.05963,-0.009625
1852,-0.008979,-0.040364,-0.009625
1853,-0.008979,0.017434,0.009072
1854,-0.043182,0.017434,0.009072
1855,-0.008979,0.055966,0.027769
1856,0.008122,0.0367,0.027769
1857,0.008122,0.017434,0.027769
1858,-0.008979,-0.040364,0.009072
1859,0.008122,-0.021098,-0.009625
1860,-0.008979,-0.001832,0.009072
1861,0.025223,0.017434,-0.009625
1862,0.008122,0.017434,-0.009625
1863,0.025223,0.075232,0.027769
1864,-0.008979,0.075232,0.046465
1865,0.008122,0.075232,0.027769
1866,0.025223,-0.040364,0.046465
1867,0.042325,-0.117428,0.065162
1868,0.025223,-0.098162,0.027769
1869,0.008122,-0.098162,0.027769
1870,-0.008979,-0.078896,-0.028322
1871,-0.043182,-0.078896,-0.028322
1872,-0.060283,-0.001832,-0.009625
1873,-0.060283,-0.001832,-0.009625
1874,-0.043182,-0.001832,0.009072
1875,-0.060283,-0.136694,0.009072
1876,-0.128689,-0.194492,0.009072
1877,-0.094486,-0.290821,0.027769
1878,-0.043182,-0.310087,0.046465
1879,-0.008979,-0.15596,0.027769
1880,-0.026081,-0.05963,-0.009625
1881,-0.008979,0.113764,-0.047018
1882,-0.043182,0.190828,-0.028322
1883,-0.008979,0.306424,-0.028322
1884,0.230439,0.402754,0.009072
1885,0.230439,0.441286,0.009072
1886,0.247541,0.42202,0.027769
1887,0.213338,0.267892,0.009072
1888,0.11073,0.152296,0.027769
1889,0.059426,0.094498,-0.009625
1890,-0.043182,0.094498,-0.028322
1891,-0.026081,0.075232,-0.009625
1892,0.025223,0.075232,0.009072
1893,0.008122,0.0367,0.009072
1894,0.025223,0.017434,-0.009625
1895,0.025223,-0.001832,-0.028322
1896,0.025223,0.017434,0.046465
1897,0.008122,-0.001832,0.083859
1898,0.008122,-0.001832,0.121252
1899,-0.008979,0.017434,0.102556
1900,0.008122,-0.021098,0.083859
1901,0.008122,-0.021098,-0.047018
1902,0.008122,-0.05963,-0.103109
1903,-0.008979,-0.021098,-0.047018
1904,-0.043182,-0.021098,-0.028322
1905,-0.008979,-0.021098,0.027769
1906,0.008122,-0.040364,-0.009625
1907,-0.008979,-0.021098,-0.028322
1908,-0.008979,-0.040364,-0.065715
1909,-0.008979,-0.040364,-0.103109
1910,-0.026081,-0.05963,-0.103109
1911,-0.008979,-0.098162,0.027769
1912,-0.026081,-0.040364,0.121252
1913,-0.008979,-0.05963,0.065162
1914,-0.043182,-0.001832,0.027769
1915,-0.026081,-0.001832,0.083859
1916,0.008122,0.017434,0.083859
1917,0.008122,0.0367,-0.009625
1918,0.008122,0.0367,0.121252
1919,0.025223,-0.001832,0.065162
1920,0.025223,0.017434,-0.009625
1921,0.008122,-0.021098,-0.047018
1922,-0.008979,-0.001832,-0.065715
1923,-0.043182,-0.021098,-0.065715
1924,-0.008979,-0.021098,-0.103109
1925,-0.008979,-0.021098,-0.065715
1926,-0.008979,-0.021098,-0.047018
1927,0.008122,-0.021098,-0.121806
1928,-0.008979,-0.040364,-0.028322
1929,0.008122,-0.05963,-0.009625
1930,0.008122,-0.040364,0.046465
1931,0.008122,-0.001832,0.046465
1932,0.008122,-0.040364,0.009072
1933,0.008122,-0.021098,-0.028322
1934,0.008122,-0.021098,-0.009625
1935,-0.008979,-0.021098,-0.009625
1936,-0.008979,-0.001832,0.009072
1937,-0.008979,-0.021098,0.027769
1938,0.008122,-0.001832,-0.009625
1939,0.008122,-0.021098,-0.009625
1940,-0.026081,-0.001832,0.009072
1941,-0.008979,0.017434,-0.028322
1942,0.008122,0.017434,-0.028322
1943,0.008122,0.055966,-0.028322
1944,0.008122,0.0367,-0.028322
1945,-0.008979,0.0367,-0.028322
1946,0.008122,0.0367,-0.009625
1947,0.025223,0.017434,-0.047018
1948,0.008122,-0.05963,0.009072
1949,-0.008979,-0.040364,0.027769
1950,-0.026081,-0.021098,0.027769
1951,-0.043182,-0.040364,0.046465
1952,-0.008979,-0.098162,0.027769
1953,-0.008979,-0.098162,0.009072
1954,-0.008979,-0.117428,-0.047018
1955,0.008122,-0.233024,0.009072
1956,0.025223,-0.194492,0.027769
1957,-0.026081,-0.233024,0.027769
1958,-0.094486,-0.213758,0.027769
1959,-0.128689,-0.175226,0.027769
1960,-0.128689,-0.175226,-0.028322
1961,-0.077385,-0.136694,0.046465
1962,-0.162891,-0.001832,0.009072
1963,-0.094486,0.0367,-0.009625
1964,0.025223,0.075232,0.009072
1965,0.093629,0.113764,-0.028322
1966,0.127831,0.32569,-0.047018
1967,0.144933,0.51835,-0.009625
1968,0.127831,0.499084,0.009072
1969,0.127831,0.344956,-0.009625
1970,0.059426,0.152296,0.009072
1971,-0.008979,0.094498,-0.009625
1972,0.042325,0.113764,0.009072
1973,0.076527,0.094498,0.027769
1974,0.076527,0.075232,0.009072
1975,0.059426,0.055966,-0.028322
1976,0.025223,0.075232,-0.009625
1977,0.042325,0.055966,-0.009625
1978,0.059426,0.055966,-0.028322
1979,0.059426,0.017434,-0.009625
1980,0.059426,0.055966,0.027769
1981,0.059426,0.017434,0.027769
1982,-0.060283,-0.040364,0.027769
1983,-0.008979,-0.098162,0.027769
1984,-0.026081,-0.098162,0.009072
1985,-0.008979,-0.098162,-0.009625
1986,-0.026081,-0.117428,0.009072
1987,-0.060283,-0.098162,-0.009625
1988,-0.026081,-0.098162,-0.009625
1989,0.008122,-0.040364,0.009072
1990,-0.008979,-0.001832,-0.047018
1991,0.008122,0.094498,-0.009625
1992,0.008122,0.055966,0.027769
1993,0.025223,0.017434,0.027769
1994,0.008122,0.017434,0.027769
1995,0.025223,0.017434,0.102556
1996,0.008122,-0.001832,0.102556
1997,0.008122,0.0367,0.083859
1998,-0.008979,-0.021098,0.102556
1999,-0.008979,-0.021098,-0.009625
2000,0.008122,-0.021098,0.065162
2001,-0.008979,-0.021098,0.046465
2002,-0.008979,-0.021098,-0.065715
2003,-0.026081,-0.05963,-0.009625
2004,0.025223,-0.001832,0.009072
2005,0.008122,-0.021098,-0.084412
2006,0.008122,-0.021098,-0.065715
2007,-0.008979,-0.040364,0.027769
2008,-0.008979,-0.040364,0.065162
2009,0.008122,-0.021098,-0.028322
2010,-0.008979,-0.021098,-0.065715
2011,0.008122,-0.05963,-0.065715
2012,-0.026081,-0.05963,-0.159199
2013,-0.008979,-0.05963,-0.103109
2014,-0.008979,-0.021098,-0.047018
2015,0.008122,0.017434,0.083859
2016,0.008122,0.017434,0.196039
2017,0.008122,0.0367,0.027769
2018,0.025223,0.055966,-0.028322
2019,0.025223,0.075232,-0.009625
2020,0.008122,0.017434,-0.028322
2021,0.025223,0.0367,-0.028322
2022,0.008122,-0.021098,-0.028322
2023,0.008122,-0.05963,-0.103109
2024,-0.008979,-0.05963,-0.065715
2025,-0.026081,-0.001832,0.009072
2026,-0.008979,-0.021098,0.027769
2027,-0.008979,-0.021098,-0.028322
2028,0.008122,-0.021098,-0.047018
2029,-0.008979,-0.040364,-0.009625
2030,0.008122,-0.021098,0.009072
2031,-0.026081,-0.021098,-0.009625
2032,-0.008979,-0.001832,0.027769
2033,-0.008979,-0.021098,0.046465
2034,-0.008979,-0.001832,0.046465
2035,0.008122,-0.001832,0.083859
2036,-0.008979,0.0367,0.027769
2037,0.008122,0.017434,0.046465
2038,0.042325,0.017434,-0.009625
2039,0.042325,-0.001832,-0.047018
2040,0.025223,-0.021098,-0.084412
2041,0.008122,0.017434,-0.028322
2042,0.008122,0.017434,-0.028322
2043,-0.008979,0.017434,0.009072
2044,0.008122,-0.001832,0.027769
2045,0.008122,-0.021098,0.046465
2046,-0.008979,-0.021098,0.009072
2047,-0.008979,-0.040364,0.027769
2048,-0.008979,-0.040364,0.009072
2049,-0.008979,-0.021098,0.009072
2050,-0.026081,-0.15596,-0.009625
2051,-0.043182,-0.175226,0.009072
2052,-0.060283,-0.117428,0.009072
2053,-0.043182,-0.040364,0.009072
2054,-0.026081,-0.078896,-0.009625
2055,-0.026081,-0.098162,-0.009625
2056,-0.026081,-0.040364,-0.028322
2057,0.025223,0.094498,0.009072
2058,0.008122,0.152296,-0.009625
2059,-0.008979,0.075232,-0.009625
2060,-0.077385,0.0367,-0.028322
2061,-0.043182,0.113764,-0.028322
2062,0.11073,0.190828,0.009072
2063,0.162034,0.190828,0.009072
2064,0.144933,0.055966,-0.009625
2065,0.144933,0.017434,0.009072
2066,0.025223,0.017434,0.027769
2067,0.025223,-0.001832,0.046465
2068,0.025223,0.017434,0.027769
2069,-0.026081,-0.078896,0.009072
2070,-0.026081,-0.117428,-0.009625
2071,0.008122,-0.040364,-0.047018
2072,-0.008979,-0.001832,0.009072
2073,0.008122,0.055966,0.009072
2074,0.008122,0.094498,0.009072
2075,0.025223,0.113764,-0.009625
2076,0.025223,0.13303,0.009072
2077,0.008122,0.113764,0.009072
2078,-0.026081,0.075232,0.027769
2079,-0.026081,0.055966,0.009072
2080,-0.008979,0.055966,-0.009625
2081,-0.008979,0.017434,0.009072
2082,0.008122,0.0367,-0.009625
2083,0.042325,0.017434,0.027769
2084,0.025223,-0.001832,0.065162
2085,0.025223,0.017434,0.102556
2086,-0.008979,0.0367,0.083859
2087,-0.008979,-0.001832,0.046465
2088,-0.008979,-0.001832,-0.028322
2089,-0.008979,0.017434,-0.103109
2090,-0.008979,-0.001832,-0.009625
2091,0.025223,-0.021098,0.046465
2092,0.008122,-0.040364,0.046465
2093,-0.008979,-0.021098,0.009072
2094,0.008122,-0.001832,-0.028322
2095,0.008122,-0.021098,-0.065715
2096,0.042325,-0.001832,-0.009625
2097,0.025223,-0.001832,0.027769
2098,0.008122,-0.021098,-0.065715
2099,-0.008979,-0.021098,0.027769
2100,-0.026081,-0.001832,0.009072
2101,-0.008979,-0.021098,-0.028322
2102,-0.008979,-0.021098,-0.047018
2103,0.008122,-0.001832,0.009072
2104,0.008122,0.017434,-0.009625
2105,0.008122,-0.021098,0.046465
2106,0.025223,-0.001832,0.083859
2107,0.008122,-0.001832,0.083859
2108,0.008122,-0.021098,-0.028322
2109,-0.026081,-0.021098,-0.065715
2110,0.008122,-0.021098,-0.065715
2111,-0.008979,-0.001832,-0.028322
2112,0.008122,-0.001832,-0.028322
2113,0.025223,-0.001832,-0.009625
2114,-0.008979,-0.001832,0.027769
2115,0.008122,-0.001832,0.046465
2116,0.025223,0.017434,-0.009625
2117,-0.008979,-0.001832,0.009072
2118,-0.008979,-0.001832,0.009072
2119,-0.008979,-0.040364,-0.065715
2120,0.008122,-0.001832,-0.028322
2121,0.008122,-0.001832,-0.028322
2122,0.025223,-0.021098,-0.009625
2123,0.008122,-0.021098,-0.047018
2124,0.008122,-0.021098,-0.009625
2125,-0.008979,-0.021098,-0.047018
2126,-0.008979,-0.001832,-0.028322
2127,-0.008979,-0.040364,0.009072
2128,-0.008979,-0.040364,0.027769
2129,-0.008979,-0.021098,0.027769
2130,-0.008979,-0.040364,0.046465
2131,-0.026081,-0.001832,0.009072
2132,-0.008979,-0.021098,-0.028322
2133,-0.008979,-0.001832,0.009072
2134,0.008122,0.017434,0.009072
2135,-0.008979,-0.001832,-0.009625
2136,0.008122,-0.001832,0.046465
2137,-0.026081,0.017434,0.046465
2138,0.008122,-0.021098,0.027769
2139,0.008122,-0.040364,0.046465
2140,0.008122,-0.040364,0.046465
2141,-0.008979,-0.078896,-0.028322
2142,-0.026081,-0.040364,-0.047018
2143,-0.043182,-0.001832,-0.047018
2144,-0.060283,-0.040364,-0.047018
2145,-0.008979,-0.040364,-0.009625
2146,-0.026081,-0.098162,-0.028322
2147,-0.008979,-0.117428,0.009072
2148,0.042325,-0.15596,0.009072
2149,-0.026081,-0.15596,0.009072
2150,-0.026081,-0.001832,0.009072
2151,-0.026081,0.113764,0.027769
2152,0.025223,0.267892,-0.009625
2153,0.076527,0.306424,-0.009625
2154,0.076527,0.267892,-0.028322
2155,0.076527,0.210094,-0.009625
2156,0.042325,0.113764,-0.028322
2157,0.059426,0.075232,0.009072
2158,-0.026081,0.094498,0.046465
2159,-0.060283,0.094498,0.027769
2160,-0.008979,0.055966,0.027769
2161,0.025223,0.0367,0.027769
2162,0.076527,0.055966,-0.009625
2163,0.093629,0.075232,-0.028322
2164,-0.008979,0.017434,-0.009625
2165,0.008122,0.017434,-0.028322
2166,0.008122,0.017434,-0.009625
2167,0.025223,-0.001832,0.009072
2168,-0.008979,-0.001832,-0.028322
2169,0.008122,-0.021098,0.009072
2170,0.008122,-0.040364,0.046465
2171,-0.008979,-0.021098,-0.009625
2172,-0.008979,-0.021098,0.027769
2173,0.008122,-0.040364,0.009072
2174,-0.008979,-0.136694,-0.028322
2175,-0.008979,-0.117428,-0.028322
2176,0.008122,-0.021098,0.027769
2177,-0.008979,-0.021098,-0.009625
2178,-0.008979,-0.040364,-0.009625
2179,-0.008979,-0.040364,0.027769
2180,0.008122,0.0367,0.046465
2181,0.025223,0.094498,0.009072
2182,0.025223,0.075232,0.046465
2183,0.025223,0.017434,0.009072
2184,0.008122,0.017434,-0.009625
2185,-0.008979,0.075232,0.027769
2186,0.008122,0.075232,0.046465
2187,0.008122,-0.001832,0.046465
2188,-0.008979,0.017434,0.083859
2189,0.008122,-0.001832,0.083859
2190,-0.008979,-0.001832,0.083859
2191,0.008122,-0.001832,0.102556
2192,-0.008979,-0.021098,0.065162
2193,-0.026081,-0.001832,-0.065715
2194,-0.008979,-0.001832,-0.047018
2195,-0.008979,-0.001832,-0.009625
2196,-0.008979,0.017434,-0.065715
2197,0.008122,-0.001832,-0.140502
2198,0.008122,-0.001832,-0.103109
2199,0.008122,-0.001832,-0.009625
2200,0.008122,0.017434,-0.009625
2201,-0.008979,-0.001832,-0.009625
2202,-0.026081,-0.021098,-0.065715
2203,-0.008979,-0.021098,-0.084412
2204,-0.008979,-0.040364,-0.084412
2205,0.025223,-0.021098,-0.047018
2206,0.008122,-0.021098,-0.009625
2207,0.008122,-0.021098,-0.028322
2208,0.008122,-0.001832,-0.047018
2209,0.008122,0.017434,-0.009625
2210,-0.008979,-0.021098,-0.009625
2211,0.008122,-0.040364,0.009072
2212,0.008122,-0.021098,0.027769
2213,0.008122,-0.040364,0.027769
2214,0.008122,-0.040364,0.027769
2215,0.008122,0.017434,-0.009625
2216,-0.008979,0.0367,-0.065715
2217,-0.008979,0.055966,-0.047018
2218,0.008122,0.055966,-0.028322
2219,-0.008979,0.0367,0.027769
2220,-0.026081,-0.001832,-0.009625
2221,0.008122,-0.021098,-0.009625
2222,0.008122,-0.001832,-0.009625
2223,0.008122,-0.021098,0.027769
2224,0.008122,-0.040364,0.009072
2225,-0.026081,-0.078896,0.046465
2226,-0.026081,-0.117428,0.027769
2227,-0.026081,-0.05963,0.009072
2228,-0.008979,-0.040364,-0.009625
2229,-0.026081,-0.040364,-0.009625
2230,-0.043182,-0.021098,-0.028322
2231,-0.008979,-0.021098,-0.028322
2232,-0.026081,0.0367,0.009072
2233,0.042325,0.094498,-0.009625
2234,0.042325,0.113764,0.027769
2235,0.042325,0.055966,-0.009625
2236,0.025223,0.094498,-0.009625
2237,0.025223,0.055966,0.009072
2238,0.042325,-0.001832,0.009072
2239,0.025223,-0.040364,-0.009625
2240,0.042325,-0.001832,0.027769
2241,0.042325,-0.001832,0.027769
2242,0.025223,0.017434,-0.009625
2243,-0.008979,0.075232,0.027769
2244,-0.026081,0.017434,0.046465
2245,-0.008979,-0.021098,0.046465
2246,-0.008979,-0.001832,0.027769
2247,-0.008979,-0.05963,-0.009625
2248,-0.008979,-0.098162,-0.009625
2249,0.025223,-0.05963,-0.028322
2250,0.008122,-0.001832,0.009072
2251,-0.008979,0.017434,-0.009625
2252,-0.043182,0.017434,0.027769
2253,0.025223,-0.001832,0.027769
2254,0.093629,-0.021098,-0.009625
2255,0.076527,0.017434,0.009072
2256,-0.111587,-0.05963,0.009072
2257,-0.094486,-0.001832,-0.028322
2258,-0.043182,0.0367,0.009072
2259,0.042325,0.13303,-0.009625
2260,0.076527,0.075232,0.009072
2261,0.025223,0.0367,-0.009625
2262,-0.008979,0.075232,0.027769
2263,-0.026081,0.094498,-0.009625
2264,-0.008979,0.0367,0.009072
2265,-0.008979,-0.040364,0.009072
2266,0.008122,-0.001832,0.027769
2267,0.042325,-0.021098,0.009072
2268,0.025223,-0.021098,0.009072
2269,0.025223,0.017434,-0.009625
2270,0.025223,0.055966,-0.028322
2271,0.008122,0.075232,-0.009625
2272,-0.008979,0.055966,-0.028322
2273,0.008122,0.055966,-0.009625
2274,0.008122,-0.001832,0.027769
2275,0.008122,-0.001832,0.009072
2276,0.025223,0.0367,-0.009625
2277,0.008122,0.0367,0.027769
2278,0.008122,0.017434,0.009072
2279,0.008122,-0.001832,0.009072
2280,0.008122,0.017434,0.027769
2281,0.025223,-0.001832,0.046465
2282,0.008122,-0.001832,0.027769
2283,-0.008979,-0.040364,0.046465
2284,-0.008979,-0.001832,0.009072
2285,-0.008979,-0.021098,-0.009625
2286,0.008122,-0.021098,0.027769
2287,0.008122,-0.001832,0.009072
2288,0.008122,-0.001832,-0.009625
2289,0.008122,-0.001832,0.083859
2290,0.008122,0.017434,0.065162
2291,-0.026081,-0.021098,-0.009625
2292,-0.008979,-0.021098,-0.121806
2293,-0.008979,-0.021098,-0.047018
2294,0.008122,0.017434,-0.028322
2295,-0.008979,-0.001832,-0.047018
2296,-0.008979,-0.001832,0.009072
2297,-0.008979,0.017434,0.027769
2298,0.008122,-0.001832,0.009072
2299,-0.008979,-0.040364,-0.009625
2300,-0.008979,-0.021098,-0.028322
2301,0.008122,-0.021098,-0.028322
2302,0.008122,-0.001832,-0.009625
2303,0.008122,0.017434,-0.065715
2304,0.025223,0.017434,-0.084412
2305,0.008122,-0.001832,-0.047018
2306,0.008122,-0.001832,-0.009625
2307,0.025223,-0.001832,0.027769
2308,0.025223,-0.021098,0.009072
2309,-0.008979,-0.040364,-0.009625
2310,-0.008979,-0.05963,-0.047018
2311,0.008122,-0.040364,0.009072
2312,-0.008979,-0.098162,-0.009625
2313,-0.026081,-0.098162,0.009072
2314,-0.008979,-0.098162,0.027769
2315,-0.008979,-0.040364,0.009072
2316,-0.026081,-0.001832,0.009072
2317,-0.008979,0.055966,0.027769
2318,0.008122,0.075232,0.009072
2319,0.008122,0.13303,-0.009625
2320,0.008122,0.171562,0.027769
2321,0.042325,0.094498,-0.009625
2322,0.008122,0.055966,-0.028322
2323,0.025223,0.0367,0.009072
2324,0.025223,0.055966,-0.028322
2325,0.008122,0.017434,0.009072
2326,0.008122,0.017434,0.046465
2327,0.042325,0.0367,0.009072
2328,0.008122,0.017434,0.009072
2329,0.025223,-0.001832,0.009072
2330,0.025223,-0.001832,-0.009625
2331,0.008122,-0.001832,-0.009625
2332,-0.008979,-0.021098,-0.009625
2333,0.008122,-0.040364,-0.009625
2334,-0.008979,-0.040364,0.027769
2335,-0.008979,-0.021098,0.009072
2336,-0.008979,0.017434,0.046465
2337,-0.008979,-0.05963,0.009072
2338,-0.008979,-0.05963,0.027769
2339,-0.043182,-0.098162,0.009072
2340,-0.060283,-0.136694,-0.009625
2341,-0.060283,-0.117428,0.009072
2342,-0.060283,-0.098162,-0.009625
2343,-0.008979,-0.05963,-0.009625
2344,0.008122,0.017434,0.027769
2345,0.025223,-0.021098,0.009072
2346,0.025223,-0.021098,-0.009625
2347,0.025223,0.0367,0.027769
2348,0.008122,0.094498,0.009072
2349,0.008122,0.13303,0.009072
2350,-0.008979,0.13303,0.009072
2351,0.008122,0.171562,-0.028322
2352,0.059426,0.171562,-0.009625
2353,0.076527,0.113764,0.009072
2354,0.093629,0.0367,-0.009625
2355,0.025223,-0.001832,0.009072
2356,-0.008979,-0.040364,0.009072
2357,-0.008979,-0.001832,0.009072
2358,0.008122,0.055966,-0.009625
2359,0.008122,0.055966,0.027769
2360,0.008122,0.017434,0.027769
2361,-0.008979,0.0367,-0.009625
2362,0.008122,0.0367,0.009072
2363,-0.008979,-0.001832,0.027769
2364,-0.008979,-0.136694,0.009072
2365,-0.026081,-0.175226,0.009072
2366,-0.026081,-0.15596,0.009072
2367,-0.043182,-0.078896,0.009072
2368,-0.026081,0.0367,0.009072
2369,-0.026081,0.113764,0.009072
2370,0.008122,0.13303,-0.028322
2371,0.008122,0.190828,-0.028322
2372,0.059426,0.152296,-0.009625
2373,0.025223,0.075232,-0.028322
2374,0.008122,0.055966,-0.009625
2375,0.025223,0.055966,0.009072
2376,-0.008979,0.0367,0.009072
2377,-0.008979,0.055966,0.027769
2378,0.008122,-0.001832,0.065162
2379,0.008122,-0.001832,0.046465
2380,0.025223,0.017434,0.083859
2381,0.008122,-0.001832,0.065162
2382,-0.008979,0.0367,0.046465
2383,0.008122,-0.001832,0.009072
2384,0.008122,-0.021098,0.046465
2385,-0.008979,-0.021098,0.046465
2386,0.008122,-0.021098,0.046465
2387,0.025223,0.017434,0.065162
2388,0.025223,-0.021098,0.009072
2389,-0.008979,-0.021098,-0.177896
2390,-0.008979,-0.040364,-0.177896
2391,-0.008979,-0.021098,-0.065715
2392,-0.008979,-0.021098,-0.028322
2393,0.008122,-0.001832,-0.009625
2394,-0.008979,0.017434,-0.047018
2395,-0.026081,-0.021098,-0.028322
2396,-0.026081,-0.040364,-0.009625
2397,-0.008979,-0.021098,0.027769
2398,-0.008979,-0.001832,0.009072
2399,0.008122,-0.001832,0.027769
2400,-0.008979,-0.001832,0.027769
2401,-0.008979,-0.021098,0.009072
2402,0.025223,-0.001832,0.009072
2403,0.008122,-0.021098,-0.047018
2404,-0.008979,-0.001832,-0.047018
2405,-0.008979,-0.040364,-0.047018
2406,-0.008979,-0.021098,-0.065715
2407,-0.008979,-0.040364,-0.009625
2408,-0.008979,-0.001832,0.027769
2409,-0.026081,-0.021098,0.009072
2410,-0.008979,-0.021098,0.009072
2411,-0.008979,-0.001832,0.009072
2412,0.025223,0.017434,0.009072
2413,-0.008979,0.0367,0.009072
2414,0.008122,0.055966,0.009072
2415,0.008122,0.017434,-0.009625
2416,0.008122,-0.001832,-0.009625
2417,0.025223,0.055966,0.009072
2418,0.008122,0.017434,0.027769
2419,0.008122,-0.001832,0.009072
2420,0.008122,-0.001832,0.046465
2421,-0.008979,-0.021098,0.009072
2422,0.008122,-0.021098,-0.009625
2423,0.025223,-0.001832,0.009072
2424,-0.008979,-0.001832,-0.009625
2425,-0.008979,-0.021098,-0.009625
2426,-0.008979,-0.040364,0.009072
2427,-0.008979,-0.098162,0.027769
2428,-0.026081,-0.078896,0.009072
2429,-0.008979,-0.078896,0.027769
2430,-0.026081,-0.040364,0.027769
2431,0.008122,0.017434,-0.009625
2432,0.042325,0.094498,0.027769
2433,0.025223,0.113764,0.009072
2434,0.008122,0.113764,0.027769
2435,0.025223,-0.001832,-0.009625
2436,-0.008979,-0.040364,0.009072
2437,-0.008979,-0.021098,-0.009625
2438,0.008122,-0.001832,-0.009625
2439,-0.008979,-0.021098,-0.009625
2440,0.025223,0.017434,0.009072
2441,0.025223,0.0367,0.009072
2442,0.025223,0.055966,0.009072
2443,0.008122,-0.001832,-0.028322
2444,0.008122,0.017434,-0.009625
2445,-0.008979,-0.021098,0.009072
2446,-0.008979,-0.021098,-0.009625
2447,0.008122,-0.098162,0.009072
2448,-0.008979,-0.213758,0.027769
2449,-0.026081,-0.252289,0.027769
2450,-0.026081,-0.271555,0.046465
2451,-0.008979,-0.271555,0.046465
2452,-0.043182,-0.15596,0.027769
2453,-0.077385,-0.098162,-0.028322
2454,-0.094486,0.0367,-0.009625
2455,-0.043182,0.113764,-0.047018
2456,-0.008979,0.267892,-0.028322
2457,0.076527,0.383488,0.009072
2458,0.11073,0.344956,-0.009625
2459,0.11073,0.287158,-0.009625
2460,0.093629,0.267892,0.009072
2461,0.076527,0.306424,0.027769
2462,0.059426,0.152296,0.009072
2463,0.025223,0.075232,0.027769
2464,0.008122,0.0367,-0.028322
2465,0.008122,0.017434,-0.028322
2466,0.008122,0.017434,-0.009625
2467,0.008122,-0.001832,-0.009625
2468,0.008122,-0.021098,0.009072
2469,-0.008979,-0.001832,0.046465
2470,0.008122,-0.021098,0.046465
2471,-0.008979,0.0367,0.027769
2472,0.008122,-0.001832,0.083859
2473,0.008122,-0.021098,0.102556
2474,0.008122,-0.021098,0.027769
2475,0.008122,-0.021098,-0.028322
2476,0.008122,-0.021098,0.009072
2477,0.008122,-0.001832,-0.009625
2478,-0.008979,-0.021098,-0.009625
2479,-0.026081,-0.021098,-0.084412
2480,-0.026081,-0.040364,-0.065715
2481,-0.008979,-0.05963,-0.065715
2482,-0.008979,-0.040364,-0.009625
2483,-0.008979,-0.040364,-0.009625
2484,-0.008979,-0.001832,0.009072
2485,-0.043182,-0.021098,0.009072
2486,0.008122,-0.021098,0.009072
2487,0.008122,-0.001832,-0.009625
2488,0.008122,-0.001832,0.046465
2489,0.025223,0.017434,0.009072
2490,0.008122,-0.001832,0.009072
2491,-0.008979,-0.001832,0.027769
2492,0.008122,0.017434,0.009072
2493,-0.008979,-0.021098,-0.028322
2494,0.008122,-0.001832,-0.047018
2495,-0.026081,-0.001832,-0.047018
2496,0.008122,-0.001832,-0.028322
2497,-0.008979,0.017434,0.046465
2498,-0.008979,-0.021098,0.046465
2499,-0.008979,-0.001832,0.046465
2500,0.008122,-0.001832,0.046465
2501,0.008122,-0.05963,0.046465
2502,0.008122,-0.001832,0.009072
2503,0.008122,-0.001832,-0.009625
2504,-0.008979,-0.021098,-0.065715
2505,-0.008979,-0.021098,-0.065715
2506,-0.008979,-0.021098,-0.065715
2507,-0.008979,-0.001832,-0.047018
2508,-0.008979,-0.078896,-0.028322
2509,-0.008979,-0.040364,0.009072
2510,-0.008979,-0.021098,-0.009625
2511,0.008122,-0.040364,0.009072
2512,0.008122,-0.021098,0.027769
2513,0.025223,0.017434,0.027769
2514,0.025223,0.017434,0.009072
2515,-0.008979,0.055966,0.009072
2516,0.008122,0.075232,0.009072
2517,-0.008979,0.0367,-0.028322
2518,-0.026081,-0.001832,-0.028322
2519,-0.026081,-0.021098,-0.028322
2520,0.008122,0.017434,-0.009625
2521,-0.008979,0.017434,0.009072
2522,0.008122,-0.001832,0.009072
2523,-0.008979,-0.001832,0.009072
2524,0.008122,-0.021098,0.027769
2525,0.025223,0.017434,0.009072
2526,-0.008979,0.017434,-0.009625
2527,0.008122,-0.021098,-0.028322
2528,0.008122,-0.021098,0.027769
2529,0.008122,-0.021098,0.009072
2530,0.008122,-0.001832,0.027769
2531,0.008122,-0.021098,0.027769
2532,0.008122,-0.021098,0.027769
2533,-0.008979,-0.001832,0.009072
2534,-0.026081,0.017434,0.009072
2535,-0.008979,-0.001832,-0.028322
2536,-0.008979,-0.040364,-0.009625
2537,-0.008979,-0.05963,0.009072
2538,0.008122,-0.021098,-0.009625
2539,0.025223,-0.021098,0.009072
2540,0.008122,-0.040364,0.009072
2541,-0.008979,-0.040364,-0.028322
2542,-0.008979,-0.021098,-0.009625
2543,-0.008979,0.017434,0.027769
2544,-0.008979,0.094498,-0.009625
2545,0.008122,0.0367,0.027769
2546,0.025223,0.075232,0.009072
2547,0.042325,0.055966,-0.009625
2548,0.042325,0.017434,-0.009625
2549,0.042325,0.055966,0.009072
2550,0.008122,0.055966,-0.028322
2551,0.008122,0.017434,0.009072
2552,0.025223,0.017434,0.009072
2553,0.008122,-0.001832,0.027769
2554,0.008122,-0.001832,0.009072
2555,0.008122,-0.021098,0.046465
2556,0.025223,-0.001832,0.009072
2557,-0.008979,-0.001832,-0.028322
2558,0.008122,-0.040364,-0.009625
2559,-0.008979,-0.040364,-0.028322
2560,-0.026081,-0.021098,-0.009625
2561,-0.008979,0.017434,0.027769
2562,-0.043182,-0.040364,-0.009625
2563,-0.008979,0.017434,0.009072
2564,-0.008979,0.017434,0.009072
2565,-0.008979,0.0367,-0.028322
2566,-0.008979,0.017434,-0.047018
2567,-0.008979,-0.021098,-0.009625
2568,0.025223,0.094498,-0.009625
2569,0.042325,0.075232,-0.028322
2570,0.008122,0.094498,0.009072
2571,0.008122,0.0367,-0.009625
2572,0.008122,0.0367,0.027769
2573,0.008122,0.017434,0.046465
2574,-0.008979,-0.001832,0.046465
2575,0.008122,0.0367,0.046465
2576,0.008122,0.017434,0.046465
2577,-0.008979,-0.001832,0.046465
2578,-0.008979,-0.001832,0.046465
2579,-0.008979,-0.001832,0.046465
2580,0.008122,0.017434,0.065162
2581,0.008122,-0.001832,-0.009625
2582,-0.008979,0.017434,-0.009625
2583,-0.008979,-0.021098,-0.028322
2584,-0.008979,-0.021098,-0.084412
2585,0.008122,-0.001832,-0.121806
2586,0.008122,-0.040364,-0.084412
2587,-0.026081,-0.040364,-0.084412
2588,-0.008979,-0.05963,-0.028322
2589,-0.008979,-0.05963,-0.028322
2590,-0.008979,-0.05963,-0.028322
2591,0.008122,-0.05963,-0.028322
2592,0.008122,-0.021098,0.009072
2593,-0.008979,-0.040364,-0.028322
2594,0.008122,-0.001832,-0.009625
2595,0.008122,0.0367,0.027769
2596,0.008122,0.055966,0.027769
2597,0.025223,0.055966,0.065162
2598,-0.008979,0.0367,0.046465
2599,0.008122,-0.001832,0.027769
2600,-0.008979,-0.001832,-0.028322
2601,-0.008979,-0.021098,-0.028322
2602,-0.008979,0.017434,-0.028322
2603,0.008122,0.017434,0.009072
2604,0.008122,0.017434,0.009072
2605,-0.008979,-0.001832,-0.028322
2606,-0.008979,-0.001832,0.009072
2607,-0.008979,-0.021098,0.046465
2608,0.008122,0.017434,-0.028322
2609,0.008122,-0.021098,-0.047018
2610,0.008122,0.017434,-0.009625
2611,0.008122,-0.001832,-0.009625
2612,0.008122,-0.001832,0.009072
2613,-0.008979,-0.001832,0.009072
2614,0.008122,-0.001832,-0.028322
2615,0.008122,-0.040364,0.009072
2616,-0.008979,-0.001832,0.027769
2617,-0.008979,-0.001832,0.009072
2618,-0.008979,-0.021098,-0.009625
2619,0.025223,0.017434,0.027769
2620,0.008122,-0.021098,-0.009625
2621,0.008122,-0.001832,-0.047018
2622,0.008122,-0.001832,0.009072
2623,0.008122,-0.021098,-0.009625
2624,0.008122,-0.040364,0.027769
2625,0.008122,-0.021098,0.009072
2626,-0.008979,-0.001832,0.009072
2627,0.008122,-0.001832,0.027769
2628,-0.008979,-0.001832,0.027769
2629,-0.008979,0.055966,0.027769
2630,0.008122,0.0367,-0.009625
2631,-0.008979,-0.001832,-0.009625
2632,-0.008979,-0.021098,-0.009625
2633,-0.008979,-0.021098,-0.028322
2634,-0.008979,-0.001832,0.009072
2635,-0.043182,-0.021098,0.027769
2636,-0.026081,-0.05963,-0.009625
2637,-0.008979,0.017434,0.027769
2638,0.008122,0.094498,0.027769
2639,-0.008979,0.075232,-0.009625
2640,-0.026081,0.017434,0.046465
2641,-0.026081,0.017434,0.009072
2642,0.008122,0.0367,-0.028322
2643,0.025223,0.0367,-0.009625
2644,0.025223,0.017434,0.009072
2645,0.025223,-0.040364,0.009072
2646,0.025223,-0.05963,0.009072
2647,0.025223,-0.05963,0.027769
2648,0.008122,-0.078896,0.009072
2649,-0.026081,-0.040364,0.027769
2650,-0.026081,-0.021098,-0.009625
2651,0.025223,0.113764,-0.009625
2652,0.025223,0.171562,-0.028322
2653,0.025223,0.113764,0.009072
2654,0.008122,0.017434,-0.009625
2655,0.025223,-0.040364,0.027769
2656,0.008122,0.017434,0.027769
2657,-0.008979,0.017434,0.046465
2658,0.008122,0.0367,0.027769
2659,0.025223,0.094498,0.027769
2660,0.008122,0.13303,0.009072
2661,0.025223,0.113764,0.009072
2662,0.008122,0.055966,0.009072
2663,0.008122,0.017434,-0.009625
2664,0.025223,0.017434,-0.009625
2665,-0.008979,0.017434,-0.009625
2666,-0.008979,0.0367,-0.028322
2667,-0.008979,-0.001832,0.009072
2668,-0.008979,0.017434,0.046465
2669,0.008122,0.017434,0.046465
2670,-0.008979,-0.040364,0.009072
2671,-0.008979,-0.021098,0.027769
2672,-0.008979,-0.001832,0.009072
2673,-0.008979,-0.021098,0.009072
2674,-0.008979,-0.001832,0.009072
2675,0.025223,-0.021098,-0.047018
2676,0.008122,-0.001832,-0.047018
2677,-0.008979,-0.001832,0.027769
2678,-0.008979,0.017434,0.046465
2679,0.008122,0.0367,0.027769
2680,-0.008979,-0.001832,0.046465
2681,-0.008979,-0.021098,-0.009625
2682,-0.008979,-0.001832,-0.047018
2683,0.025223,-0.001832,-0.047018
2684,-0.008979,-0.001832,-0.009625
2685,0.008122,-0.001832,-0.009625
2686,0.008122,-0.001832,0.027769
2687,0.008122,-0.001832,0.065162
2688,0.008122,-0.021098,-0.084412
2689,0.008122,-0.001832,-0.065715
2690,0.008122,0.017434,-0.009625
2691,-0.008979,-0.001832,-0.009625
2692,0.008122,0.017434,0.027769
2693,0.008122,-0.021098,0.027769
2694,-0.008979,-0.001832,-0.009625
2695,-0.026081,0.017434,0.046465
2696,-0.008979,0.017434,0.009072
2697,0.008122,-0.001832,-0.009625
2698,-0.008979,-0.001832,0.027769
2699,0.008122,0.017434,0.027769
2700,0.008122,0.0367,0.009072
2701,-0.008979,-0.001832,0.027769
2702,-0.008979,-0.001832,-0.009625
2703,0.008122,-0.001832,-0.028322
2704,0.008122,-0.001832,-0.065715
2705,0.008122,-0.001832,-0.047018
2706,-0.008979,-0.040364,-0.028322
2707,-0.008979,-0.021098,-0.009625
2708,-0.008979,0.017434,-0.009625
2709,-0.008979,-0.021098,-0.009625
2710,0.008122,-0.001832,0.009072
2711,-0.008979,0.0367,0.009072
2712,0.008122,-0.001832,-0.009625
2713,-0.008979,-0.001832,-0.009625
2714,-0.008979,-0.001832,0.027769
2715,0.008122,0.017434,0.009072
2716,0.008122,-0.021098,0.027769
2717,-0.008979,-0.001832,0.046465
2718,0.008122,-0.001832,0.027769
2719,-0.008979,-0.001832,0.009072
2720,0.008122,-0.021098,-0.028322
2721,0.025223,-0.001832,-0.028322
2722,-0.008979,0.017434,-0.028322
2723,-0.008979,-0.001832,0.009072
2724,-0.008979,0.017434,0.009072
2725,0.008122,-0.001832,-0.047018
2726,-0.026081,-0.021098,-0.047018
2727,-0.026081,-0.040364,-0.103109
2728,-0.008979,-0.001832,-0.028322
2729,-0.026081,0.017434,0.009072
2730,0.008122,0.017434,0.027769
2731,0.025223,0.017434,0.009072
2732,0.025223,0.0367,0.046465
2733,0.025223,0.0367,0.009072
2734,0.025223,-0.001832,-0.009625
2735,0.008122,-0.040364,0.009072
2736,-0.008979,-0.001832,-0.028322
2737,0.008122,-0.040364,-0.028322
2738,0.008122,-0.021098,-0.009625
2739,-0.008979,-0.040364,0.027769
2740,0.008122,-0.001832,-0.009625
2741,0.008122,-0.021098,0.046465
2742,0.008122,-0.001832,0.027769
2743,0.008122,-0.001832,0.027769
2744,0.008122,0.0367,0.027769
2745,-0.008979,-0.021098,0.009072
2746,-0.008979,0.017434,-0.028322
2747,-0.008979,0.0367,0.009072
2748,-0.008979,0.113764,0.046465
2749,0.008122,0.094498,-0.009625
2750,-0.008979,0.017434,0.009072
2751,-0.008979,0.017434,0.046465
2752,0.042325,0.075232,0.009072
2753,0.025223,0.0367,0.027769
2754,0.042325,0.017434,0.009072
2755,0.008122,0.055966,-0.009625
2756,0.008122,0.0367,-0.028322
2757,0.008122,0.055966,-0.009625
2758,0.025223,0.017434,-0.028322
2759,-0.008979,0.0367,-0.028322
2760,-0.008979,-0.021098,0.009072
2761,0.008122,-0.001832,0.027769
2762,-0.008979,-0.001832,0.046465
2763,-0.026081,-0.021098,0.046465
2764,-0.008979,-0.021098,0.027769
2765,-0.008979,0.055966,0.027769
2766,-0.008979,0.017434,0.027769
2767,-0.008979,-0.021098,0.027769
2768,0.008122,-0.001832,-0.009625
2769,-0.008979,-0.001832,-0.009625
2770,-0.008979,0.0367,-0.065715
2771,0.008122,-0.001832,-0.028322
2772,-0.008979,0.017434,0.009072
2773,-0.008979,-0.021098,-0.009625
2774,-0.008979,-0.021098,-0.047018
2775,-0.008979,-0.001832,0.009072
2776,0.008122,-0.021098,0.009072
2777,-0.026081,-0.001832,-0.009625
2778,-0.008979,-0.021098,-0.009625
2779,-0.008979,-0.001832,-0.009625
2780,-0.008979,0.017434,0.027769
2781,-0.008979,-0.001832,0.027769
2782,0.008122,0.0367,0.046465
2783,0.008122,-0.001832,0.046465
2784,0.008122,-0.001832,0.009072
2785,0.025223,0.017434,0.027769
2786,0.008122,-0.021098,0.027769
2787,0.025223,-0.001832,0.009072
2788,0.008122,-0.001832,-0.009625
2789,-0.008979,-0.001832,-0.047018
2790,-0.008979,0.017434,-0.047018
2791,0.008122,-0.001832,-0.009625
2792,-0.008979,0.017434,-0.028322
2793,-0.008979,-0.001832,0.009072
2794,0.008122,-0.021098,0.009072
2795,-0.026081,-0.021098,-0.028322
2796,-0.026081,-0.021098,-0.009625
2797,-0.026081,-0.001832,0.009072
2798,0.025223,-0.001832,0.046465
2799,0.008122,-0.021098,-0.009625
2800,0.008122,-0.001832,-0.009625
2801,-0.026081,-0.05963,-0.103109
2802,-0.008979,-0.021098,-0.047018
2803,-0.008979,-0.021098,0.009072
2804,-0.026081,-0.001832,0.046465
2805,-0.008979,0.017434,0.046465
2806,0.008122,0.055966,0.046465
2807,0.008122,-0.001832,0.009072
2808,-0.008979,0.0367,-0.065715
2809,0.025223,-0.021098,-0.065715
2810,0.025223,0.0367,-0.047018
2811,0.008122,-0.001832,-0.047018
2812,-0.008979,-0.021098,0.009072
2813,-0.026081,-0.001832,0.046465
2814,-0.026081,-0.001832,0.009072
2815,-0.008979,-0.001832,0.009072
2816,-0.008979,-0.001832,0.009072
2817,0.008122,-0.021098,-0.028322
2818,-0.008979,0.017434,0.027769
2819,0.008122,-0.021098,-0.009625
2820,-0.008979,0.017434,-0.009625
2821,0.008122,0.017434,-0.028322
2822,-0.008979,0.017434,-0.009625
2823,-0.008979,-0.05963,0.009072
2824,-0.008979,-0.117428,0.027769
2825,0.008122,-0.098162,0.046465
2826,-0.008979,-0.05963,-0.009625
2827,0.008122,-0.040364,0.027769
2828,0.025223,0.0367,0.009072
2829,0.008122,0.0367,0.009072
2830,0.025223,0.094498,-0.009625
2831,0.008122,0.094498,0.009072
2832,-0.008979,0.075232,-0.009625
2833,-0.026081,0.0367,0.009072
2834,0.008122,0.0367,0.027769
2835,0.025223,-0.001832,0.009072
2836,0.008122,-0.021098,0.027769
2837,-0.008979,-0.021098,0.046465
2838,-0.008979,0.0367,0.009072
2839,0.008122,0.055966,-0.009625
2840,0.008122,0.0367,0.009072
2841,-0.008979,0.055966,-0.009625
2842,0.008122,0.0367,0.009072
2843,-0.008979,0.017434,0.065162
2844,-0.008979,0.017434,0.009072
2845,-0.008979,-0.001832,0.009072
2846,-0.008979,0.0367,-0.009625
2847,0.008122,-0.001832,-0.028322
2848,-0.008979,-0.001832,0.027769
2849,0.008122,0.017434,-0.009625
2850,0.008122,-0.001832,-0.028322
2851,0.008122,0.017434,-0.028322
2852,0.008122,0.017434,-0.009625
2853,0.008122,-0.021098,-0.028322
2854,0.025223,-0.001832,-0.009625
2855,0.008122,-0.001832,0.027769
2856,0.008122,-0.001832,0.046465
2857,0.008122,-0.001832,0.027769
2858,0.008122,-0.001832,0.009072
2859,0.008122,-0.001832,-0.009625
2860,0.008122,0.017434,-0.009625
2861,0.008122,0.017434,0.009072
2862,0.025223,-0.001832,-0.009625
2863,0.008122,0.017434,-0.028322
2864,-0.026081,-0.001832,0.009072
2865,-0.026081,-0.021098,0.027769
2866,-0.008979,-0.001832,-0.009625
2867,0.008122,-0.001832,0.009072
2868,0.008122,0.017434,-0.009625
2869,0.008122,0.017434,-0.047018
2870,0.008122,-0.001832,0.009072
2871,0.008122,-0.021098,0.009072
2872,-0.008979,-0.040364,0.009072
2873,0.008122,-0.021098,-0.009625
2874,0.008122,0.017434,0.009072
2875,0.008122,0.017434,0.027769
2876,0.008122,-0.001832,0.065162
2877,-0.008979,-0.078896,0.027769
2878,-0.008979,-0.040364,-0.028322
2879,-0.026081,-0.05963,-0.028322
2880,-0.008979,-0.021098,0.009072
2881,-0.008979,-0.021098,0.009072
2882,-0.008979,-0.001832,-0.009625
2883,-0.008979,0.017434,-0.009625
2884,-0.008979,0.017434,-0.028322
2885,0.008122,0.017434,-0.047018
2886,0.008122,0.0367,-0.028322
2887,0.025223,0.0367,0.009072
2888,0.008122,0.017434,0.009072
2889,-0.008979,0.017434,0.027769
2890,0.008122,-0.001832,0.009072
2891,0.025223,0.017434,-0.009625
2892,0.008122,0.0367,0.027769
2893,0.008122,0.0367,0.027769
2894,-0.008979,0.017434,0.027769
2895,0.008122,-0.001832,0.046465
2896,0.008122,-0.040364,0.009072
2897,0.008122,-0.021098,-0.028322
2898,0.008122,-0.001832,-0.028322
2899,0.008122,-0.021098,-0.009625
2900,-0.026081,-0.021098,0.027769
2901,0.008122,-0.001832,0.027769
2902,-0.008979,0.017434,0.009072
2903,0.008122,-0.021098,-0.028322
2904,0.008122,-0.021098,-0.028322
2905,-0.008979,-0.001832,-0.047018
2906,0.008122,-0.001832,-0.009625
2907,-0.008979,-0.001832,0.027769
2908,-0.008979,-0.021098,0.046465
2909,0.008122,-0.021098,0.009072
2910,-0.008979,-0.078896,0.046465
2911,0.008122,-0.078896,-0.009625
2912,-0.008979,-0.040364,-0.009625
2913,-0.008979,-0.078896,-0.009625
2914,-0.008979,-0.05963,-0.028322
2915,0.008122,-0.021098,0.009072
2916,0.008122,-0.001832,-0.009625
2917,0.008122,0.055966,-0.009625
2918,0.008122,-0.001832,-0.009625
2919,0.025223,-0.040364,0.027769
2920,0.008122,-0.040364,-0.009625
2921,-0.008979,-0.021098,-0.009625
2922,-0.008979,-0.001832,0.046465
2923,0.008122,0.075232,0.046465
2924,0.008122,0.094498,0.009072
2925,0.025223,0.13303,-0.009625
2926,0.042325,0.190828,-0.028322
2927,0.025223,0.094498,-0.065715
2928,-0.008979,0.0367,-0.047018
2929,-0.008979,0.0367,0.009072
2930,0.008122,0.0367,0.027769
2931,0.008122,0.017434,0.027769
2932,0.008122,0.017434,-0.028322
2933,-0.008979,-0.001832,-0.009625
2934,-0.008979,0.017434,-0.009625
2935,0.008122,-0.001832,-0.009625
2936,0.008122,-0.001832,-0.028322
2937,0.008122,-0.021098,-0.009625
2938,0.008122,-0.001832,0.027769
2939,-0.008979,-0.021098,0.009072
2940,0.008122,-0.021098,0.027769
2941,-0.008979,0.017434,0.009072
2942,-0.008979,-0.021098,0.009072
2943,0.008122,-0.021098,-0.009625
2944,-0.008979,-0.001832,0.009072
2945,0.008122,-0.040364,-0.009625
2946,-0.008979,-0.040364,0.009072
2947,0.008122,-0.05963,0.027769
2948,-0.008979,-0.05963,0.009072
2949,-0.008979,-0.040364,0.046465
2950,-0.008979,-0.001832,0.046465
2951,-0.008979,0.0367,0.027769
2952,0.008122,0.075232,0.009072
2953,-0.008979,0.075232,0.027769
2954,0.025223,0.055966,0.009072
2955,-0.008979,-0.001832,-0.065715
2956,0.025223,-0.001832,-0.065715
2957,0.008122,-0.021098,-0.065715
2958,0.008122,-0.001832,0.009072
2959,-0.008979,-0.001832,0.009072
2960,0.008122,-0.001832,0.009072
2961,-0.008979,-0.001832,0.027769
2962,0.008122,0.0367,0.009072
2963,0.008122,-0.001832,0.009072
2964,-0.026081,-0.021098,-0.028322
2965,0.008122,-0.021098,-0.009625
2966,-0.008979,-0.05963,-0.047018
2967,0.008122,-0.001832,0.009072
2968,0.008122,0.0367,0.027769
2969,0.008122,0.055966,0.027769
2970,0.008122,0.017434,0.065162
2971,-0.008979,-0.001832,0.046465
2972,-0.008979,-0.040364,-0.009625
2973,0.008122,-0.040364,-0.084412
2974,0.008122,-0.021098,-0.065715
2975,-0.008979,-0.001832,-0.065715
2976,-0.008979,0.017434,-0.009625
2977,-0.008979,-0.040364,0.009072
2978,-0.043182,-0.040364,0.009072
2979,0.008122,-0.078896,0.009072
2980,-0.008979,-0.098162,0.046465
2981,-0.008979,-0.117428,0.009072
2982,0.025223,-0.117428,0.009072
2983,-0.008979,-0.117428,-0.009625
2984,-0.026081,-0.078896,-0.028322
2985,-0.043182,-0.040364,-0.028322
2986,-0.043182,0.017434,-0.009625
2987,-0.008979,0.075232,0.009072
2988,0.025223,0.190828,0.027769
2989,0.059426,0.22936,0.027769
2990,0.059426,0.210094,-0.009625
2991,0.025223,0.171562,-0.028322
2992,0.008122,0.094498,-0.009625
2993,0.025223,0.0367,-0.047018
2994,0.025223,0.055966,-0.065715
2995,0.008122,0.017434,-0.028322
2996,0.025223,0.0367,-0.047018
2997,0.008122,-0.001832,-0.009625
2998,0.008122,-0.001832,0.027769
2999,0.008122,-0.001832,0.046465
3000,0.008122,0.017434,0.027769
3001,-0.008979,-0.001832,0.065162
3002,-0.008979,-0.040364,-0.028322
3003,0.008122,0.017434,-0.065715
3004,0.008122,-0.001832,-0.028322
3005,-0.008979,-0.001832,-0.009625
3006,-0.008979,-0.021098,-0.009625
3007,-0.008979,-0.021098,-0.009625
3008,0.008122,-0.040364,0.027769
3009,0.008122,-0.021098,-0.009625
3010,0.008122,-0.001832,0.027769
3011,-0.008979,-0.001832,0.027769
3012,0.008122,-0.001832,-0.009625
3013,-0.008979,-0.001832,0.027769
3014,-0.008979,0.017434,0.009072
3015,-0.008979,-0.001832,-0.028322
3016,-0.008979,-0.021098,0.027769
3017,0.008122,0.017434,0.027769
3018,-0.008979,-0.001832,0.027769
3019,0.008122,-0.021098,0.009072
3020,0.008122,-0.001832,0.009072
3021,-0.008979,-0.021098,-0.009625
3022,0.008122,-0.021098,0.046465
3023,0.008122,-0.021098,0.027769
3024,0.025223,0.0367,0.009072
3025,-0.026081,-0.001832,0.027769
3026,-0.008979,-0.021098,-0.028322
3027,-0.008979,0.0367,0.009072
3028,0.008122,-0.001832,0.065162
3029,0.008122,0.017434,0.083859
3030,-0.008979,-0.001832,0.046465
3031,0.008122,-0.001832,0.046465
3032,0.008122,0.017434,0.027769
3033,0.025223,-0.001832,-0.047018
3034,0.008122,-0.001832,-0.103109
3035,0.008122,-0.021098,-0.065715
3036,-0.008979,-0.001832,-0.065715
3037,-0.008979,-0.001832,-0.009625
3038,-0.008979,-0.021098,-0.009625
3039,0.008122,-0.001832,0.027769
3040,0.025223,-0.001832,0.046465
3041,-0.008979,-0.001832,0.046465
3042,-0.008979,-0.001832,0.009072
3043,0.008122,0.017434,-0.009625
3044,-0.008979,-0.001832,0.009072
3045,0.008122,-0.021098,-0.009625
3046,-0.008979,-0.001832,-0.009625
3047,0.008122,0.017434,0.009072
3048,0.025223,-0.021098,-0.009625
3049,-0.026081,-0.021098,-0.084412
3050,-0.008979,-0.021098,-0.009625
3051,-0.026081,-0.040364,0.009072
3052,-0.026081,-0.021098,0.046465
3053,0.008122,-0.040364,0.027769
3054,0.008122,-0.001832,0.027769
3055,0.008122,-0.001832,0.027769
3056,-0.008979,0.017434,0.009072
3057,0.025223,-0.001832,-0.028322
3058,0.025223,-0.001832,-0.009625
3059,0.008122,0.017434,-0.009625
3060,-0.008979,-0.001832,-0.009625
3061,-0.008979,0.0367,0.009072
3062,-0.008979,0.0367,-0.009625
3063,0.008122,0.113764,-0.028322
3064,0.008122,0.0367,-0.028322
3065,-0.008979,-0.001832,0.009072
3066,0.008122,-0.001832,-0.028322
3067,0.008122,-0.021098,0.009072
3068,0.008122,-0.021098,0.027769
3069,0.008122,-0.001832,0.009072
3070,-0.008979,-0.001832,0.027769
3071,-0.008979,0.017434,0.027769
3072,-0.008979,-0.001832,0.027769
3073,-0.008979,-0.021098,-0.028322
3074,-0.008979,-0.021098,-0.065715
3075,-0.008979,-0.021098,-0.047018
3076,0.008122,-0.021098,-0.009625
3077,-0.008979,-0.001832,0.027769
3078,-0.008979,-0.021098,-0.009625
3079,-0.008979,-0.040364,-0.009625
3080,-0.008979,-0.021098,0.027769
3081,0.008122,-0.021098,0.009072
3082,-0.008979,-0.098162,-0.009625
3083,-0.026081,-0.078896,0.009072
3084,-0.008979,-0.05963,-0.009625
3085,-0.026081,-0.001832,-0.028322
3086,-0.008979,0.075232,0.009072
3087,0.008122,0.094498,-0.009625
3088,0.025223,0.13303,0.009072
3089,0.008122,0.094498,0.065162
3090,0.025223,0.0367,0.027769
3091,0.008122,0.0367,0.009072
3092,-0.008979,0.017434,0.027769
3093,0.008122,0.0367,0.009072
3094,0.008122,-0.001832,0.009072
3095,0.008122,0.0367,0.027769
3096,-0.008979,0.0367,0.027769
3097,0.025223,0.017434,0.027769
3098,0.042325,0.0367,0.046465
3099,0.008122,-0.040364,0.046465
3100,0.025223,-0.021098,0.009072
3101,0.008122,-0.040364,-0.028322
3102,-0.026081,-0.021098,-0.047018
3103,0.008122,-0.040364,-0.047018
3104,0.008122,-0.001832,-0.028322
3105,0.008122,0.017434,-0.028322
3106,0.008122,0.0367,-0.009625
3107,-0.008979,0.017434,0.009072
3108,0.008122,-0.021098,0.046465
3109,0.008122,-0.021098,0.027769
3110,-0.008979,-0.040364,0.046465
3111,-0.008979,-0.021098,0.065162
3112,0.008122,-0.001832,0.027769
3113,0.008122,-0.001832,0.046465
3114,0.008122,-0.021098,0.009072
3115,0.008122,-0.05963,-0.103109
3116,0.008122,-0.001832,-0.028322
3117,0.008122,0.017434,-0.009625
3118,-0.008979,0.017434,0.009072
3119,-0.008979,0.0367,0.027769
3120,0.008122,0.055966,0.065162
3121,0.008122,0.055966,0.027769
3122,-0.008979,0.0367,-0.009625
3123,-0.008979,-0.001832,-0.047018
3124,-0.026081,0.017434,-0.047018
3125,0.008122,0.094498,-0.047018
3126,0.008122,0.0367,-0.047018
3127,-0.008979,-0.021098,-0.047018
3128,-0.026081,-0.05963,-0.047018
3129,0.008122,-0.040364,0.009072
3130,0.008122,-0.001832,0.009072
3131,0.008122,0.017434,0.027769
3132,0.008122,-0.021098,-0.009625
3133,-0.008979,-0.040364,-0.028322
3134,0.008122,-0.021098,-0.028322
3135,0.008122,-0.021098,0.009072
3136,-0.008979,-0.021098,-0.028322
3137,-0.026081,0.017434,-0.028322
3138,-0.026081,0.017434,0.009072
3139,0.008122,0.0367,0.009072
3140,0.008122,0.0367,0.027769
3141,-0.008979,-0.021098,-0.009625
3142,0.025223,-0.040364,0.009072
3143,0.008122,-0.001832,0.027769
3144,-0.008979,-0.040364,0.027769
3145,0.008122,-0.021098,0.009072
3146,0.008122,0.017434,0.009072
3147,0.008122,0.055966,0.046465
3148,0.025223,0.0367,0.009072
3149,-0.008979,0.0367,0.009072
3150,0.008122,0.017434,0.009072
3151,0.008122,0.0367,-0.028322
3152,-0.008979,0.0367,0.027769
3153,-0.008979,0.017434,0.027769
3154,0.008122,-0.001832,-0.009625
3155,-0.008979,-0.001832,0.009072
3156,-0.008979,-0.001832,0.009072
3157,-0.008979,0.017434,-0.009625
3158,0.008122,0.017434,0.027769
3159,0.008122,-0.021098,0.027769
3160,0.008122,-0.001832,-0.028322
3161,0.008122,0.017434,0.046465
3162,-0.008979,-0.001832,-0.028322
3163,-0.026081,-0.021098,-0.065715
3164,-0.008979,-0.05963,-0.065715
3165,-0.008979,-0.05963,-0.009625
3166,-0.026081,-0.040364,-0.028322
3167,-0.026081,-0.021098,-0.009625
3168,-0.008979,-0.001832,0.027769
3169,-0.008979,0.017434,-0.009625
3170,-0.008979,0.017434,0.009072
3171,0.008122,0.017434,0.009072
3172,0.025223,0.017434,0.009072
3173,0.042325,-0.021098,-0.047018
3174,0.008122,-0.078896,-0.028322
3175,0.008122,-0.040364,-0.009625
3176,0.008122,-0.040364,-0.028322
3177,-0.008979,-0.05963,-0.009625
3178,-0.043182,-0.021098,-0.028322
3179,-0.026081,-0.021098,0.027769
3180,0.008122,0.055966,0.046465
3181,0.008122,0.094498,0.046465
3182,0.042325,0.0367,0.065162
3183,0.008122,0.0367,-0.028322
3184,0.008122,0.0367,-0.103109
3185,-0.008979,0.0367,-0.065715
3186,0.008122,0.0367,-0.009625
3187,0.008122,0.017434,-0.028322
3188,0.008122,-0.001832,-0.009625
3189,-0.026081,-0.001832,0.027769
3190,-0.008979,-0.021098,0.009072
3191,0.008122,-0.001832,0.027769
3192,0.008122,-0.001832,0.009072
3193,-0.008979,0.0367,0.009072
3194,0.008122,0.017434,-0.009625
3195,-0.008979,0.017434,0.027769
3196,-0.026081,0.017434,0.009072
3197,0.008122,0.0367,0.027769
3198,-0.008979,-0.001832,0.009072
3199,-0.008979,0.017434,0.009072
3200,0.008122,-0.001832,-0.009625
3201,-0.008979,0.017434,-0.009625
3202,0.008122,-0.001832,-0.009625
3203,0.008122,0.017434,-0.009625
3204,0.025223,-0.001832,-0.028322
3205,0.008122,-0.001832,-0.009625
3206,0.008122,0.017434,-0.028322
3207,0.008122,-0.021098,0.009072
3208,-0.008979,-0.021098,-0.028322
3209,0.008122,-0.001832,0.009072
3210,-0.008979,-0.040364,0.046465
3211,-0.008979,-0.078896,0.009072
3212,-0.008979,-0.040364,0.009072
3213,-0.008979,-0.040364,0.046465
3214,-0.008979,0.017434,0.046465
3215,0.008122,0.0367,0.009072
3216,-0.008979,0.0367,0.027769
3217,0.008122,-0.001832,-0.028322
3218,0.008122,-0.001832,-0.028322
3219,0.008122,-0.040364,-0.028322
3220,-0.008979,-0.021098,-0.009625
3221,-0.008979,-0.040364,-0.009625
3222,-0.008979,-0.021098,0.009072
3223,-0.008979,-0.001832,-0.009625
3224,0.008122,0.017434,-0.028322
3225,-0.008979,0.0367,-0.009625
3226,-0.026081,0.0367,0.009072
3227,-0.008979,0.055966,-0.028322
3228,0.008122,0.055966,-0.009625
3229,-0.026081,0.055966,0.027769
3230,0.008122,0.075232,0.009072
3231,0.025223,0.0367,0.046465
3232,0.025223,0.0367,0.027769
3233,0.025223,0.075232,-0.009625
3234,0.008122,-0.001832,0.009072
3235,-0.008979,0.017434,-0.009625
3236,0.008122,-0.001832,-0.028322
3237,-0.008979,-0.001832,0.009072
3238,-0.026081,-0.001832,0.027769
3239,-0.008979,-0.001832,0.009072
3240,-0.008979,-0.001832,0.009072
3241,0.025223,0.017434,0.027769
3242,0.025223,0.017434,0.009072
3243,0.008122,-0.001832,0.027769
3244,-0.008979,-0.001832,-0.009625
3245,-0.008979,0.017434,-0.028322
3246,0.008122,0.017434,-0.009625
3247,-0.026081,-0.001832,-0.028322
3248,0.008122,-0.001832,-0.009625
3249,0.008122,-0.001832,0.009072
3250,0.008122,-0.001832,0.046465
3251,0.008122,0.017434,0.009072
3252,0.008122,0.017434,0.009072
3253,-0.008979,-0.021098,0.009072
3254,0.008122,-0.001832,-0.028322
3255,0.008122,-0.001832,0.009072
3256,0.008122,0.017434,0.046465
3257,0.008122,-0.021098,0.046465
3258,0.025223,-0.001832,0.065162
3259,0.025223,-0.001832,0.065162
3260,0.008122,0.017434,0.046465
3261,-0.008979,0.017434,0.009072
3262,0.008122,-0.021098,-0.028322
3263,0.008122,-0.021098,-0.084412
3264,-0.008979,-0.021098,-0.084412
3265,0.008122,-0.001832,-0.028322
3266,0.008122,0.0367,-0.065715
3267,-0.008979,0.017434,-0.028322
3268,0.008122,0.017434,0.009072
3269,0.008122,0.017434,-0.047018
3270,0.008122,0.017434,-0.028322
3271,0.025223,0.017434,-0.009625
3272,-0.008979,-0.001832,-0.028322
3273,0.008122,-0.001832,-0.009625
3274,-0.008979,-0.001832,0.009072
3275,-0.008979,-0.001832,-0.009625
3276,-0.008979,-0.001832,-0.009625
3277,0.008122,0.017434,0.009072
3278,-0.008979,0.017434,-0.028322
3279,0.008122,-0.001832,0.027769
3280,-0.008979,-0.001832,0.046465
3281,-0.008979,-0.040364,0.009072
3282,0.008122,-0.001832,0.046465
3283,0.008122,-0.021098,0.065162
3284,0.008122,-0.021098,0.027769
3285,-0.026081,-0.05963,0.027769
3286,-0.008979,-0.05963,0.009072
3287,0.008122,-0.021098,-0.009625
3288,-0.008979,-0.001832,-0.028322
3289,0.008122,0.017434,-0.047018
3290,-0.008979,0.0367,0.009072
3291,0.025223,0.0367,0.009072
3292,0.008122,0.075232,0.009072
3293,-0.008979,0.0367,-0.009625
3294,-0.008979,0.0367,-0.047018
3295,-0.026081,-0.021098,-0.028322
3296,0.008122,-0.001832,-0.028322
3297,-0.026081,0.017434,-0.028322
3298,-0.008979,-0.021098,0.027769
3299,-0.026081,-0.001832,-0.009625
3300,0.008122,-0.021098,0.009072
3301,0.008122,-0.021098,0.027769
3302,-0.008979,-0.021098,0.027769
3303,0.008122,-0.001832,0.009072
3304,-0.008979,-0.040364,0.009072
3305,-0.008979,-0.021098,-0.009625
3306,0.008122,-0.040364,-0.009625
3307,0.008122,-0.040364,-0.009625
3308,0.025223,-0.078896,0.009072
3309,-0.008979,-0.001832,-0.009625
3310,0.008122,-0.021098,0.027769
3311,0.008122,-0.001832,0.046465
3312,-0.008979,0.0367,0.027769
3313,-0.008979,-0.001832,0.009072
3314,0.008122,0.075232,0.027769
3315,-0.026081,0.094498,0.027769
3316,0.008122,0.017434,0.009072
3317,-0.008979,0.0367,0.009072
3318,0.008122,0.055966,-0.084412
3319,-0.008979,0.075232,-0.047018
3320,0.008122,0.075232,0.027769
3321,0.025223,-0.001832,-0.009625
3322,0.008122,0.017434,-0.047018
3323,0.025223,-0.021098,-0.009625
3324,0.008122,-0.001832,-0.009625
3325,-0.008979,-0.021098,0.009072
3326,0.008122,-0.021098,-0.028322
3327,-0.008979,0.017434,-0.028322
3328,-0.008979,0.0367,-0.009625
3329,-0.008979,-0.001832,0.009072
3330,0.008122,-0.001832,-0.009625
3331,0.008122,-0.001832,0.009072
3332,0.008122,-0.021098,0.027769
3333,0.008122,-0.001832,0.009072
3334,-0.008979,0.0367,0.009072
3335,0.008122,-0.021098,0.009072
3336,0.008122,-0.021098,-0.009625
3337,0.008122,0.017434,-0.009625
3338,0.008122,-0.001832,0.009072
3339,-0.008979,-0.001832,-0.009625
3340,0.025223,0.017434,0.027769
3341,0.008122,-0.021098,0.046465
3342,0.008122,-0.040364,0.027769
3343,-0.026081,-0.078896,0.027769
3344,-0.043182,-0.098162,0.009072
3345,0.008122,0.017434,-0.009625
3346,-0.008979,0.017434,-0.028322
3347,0.008122,0.017434,-0.028322
3348,0.008122,0.0367,-0.009625
3349,0.008122,0.0367,0.009072
3350,0.008122,0.055966,0.046465
3351,0.008122,0.075232,0.009072
3352,-0.008979,0.017434,0.027769
3353,0.025223,-0.001832,0.065162
3354,0.008122,-0.021098,-0.009625
3355,-0.008979,0.017434,-0.047018
3356,0.008122,-0.001832,0.027769
3357,0.008122,-0.001832,0.009072
3358,-0.008979,-0.040364,-0.084412
3359,0.025223,0.017434,-0.047018
3360,-0.008979,-0.001832,-0.028322
3361,0.008122,0.0367,-0.028322
3362,0.008122,0.017434,-0.028322
3363,-0.008979,0.017434,0.027769
3364,0.008122,0.017434,0.009072
3365,-0.008979,-0.001832,0.027769
3366,0.008122,0.017434,0.009072
3367,0.008122,-0.001832,-0.009625
3368,0.008122,0.017434,-0.028322
3369,-0.008979,-0.001832,-0.028322
3370,0.008122,-0.001832,-0.028322
3371,0.008122,-0.001832,-0.047018
3372,0.008122,0.017434,-0.009625
3373,0.008122,-0.001832,-0.028322
3374,0.008122,-0.001832,0.009072
3375,0.008122,-0.001832,0.027769
3376,-0.008979,-0.040364,0.009072
3377,-0.008979,0.017434,0.027769
3378,-0.008979,0.017434,-0.009625
3379,-0.008979,0.017434,-0.009625
3380,0.008122,-0.021098,0.009072
3381,-0.008979,-0.021098,0.046465
3382,0.025223,-0.040364,-0.028322
3383,-0.008979,-0.001832,0.027769
3384,0.008122,-0.021098,0.027769
3385,-0.008979,-0.001832,-0.009625
3386,-0.008979,-0.021098,0.027769
3387,0.008122,-0.05963,0.027769
3388,-0.008979,-0.05963,0.027769
3389,0.008122,-0.021098,0.009072
3390,0.008122,0.017434,-0.009625
3391,0.008122,0.055966,-0.009625
3392,-0.008979,-0.001832,0.009072
3393,0.025223,0.0367,-0.009625
3394,0.025223,0.0367,-0.009625
3395,0.025223,-0.040364,-0.009625
3396,0.008122,-0.001832,0.027769
3397,-0.008979,0.017434,-0.009625
3398,0.008122,0.094498,-0.009625
3399,-0.008979,0.0367,0.009072
3400,-0.008979,-0.001832,-0.028322
3401,-0.008979,-0.021098,-0.028322
3402,-0.008979,-0.021098,-0.009625
3403,-0.008979,-0.021098,-0.028322
3404,-0.008979,-0.021098,0.009072
3405,0.025223,0.0367,0.065162
3406,0.025223,-0.001832,0.009072
3407,0.025223,0.017434,-0.028322
3408,0.008122,-0.001832,0.027769
3409,0.008122,0.017434,-0.009625
3410,0.008122,0.0367,-0.009625
3411,0.008122,0.017434,-0.028322
3412,-0.008979,0.055966,-0.009625
3413,0.008122,0.017434,-0.009625
3414,-0.008979,0.017434,0.027769
3415,-0.008979,-0.001832,0.046465
3416,-0.008979,-0.021098,0.046465
3417,-0.008979,-0.040364,0.065162
3418,-0.026081,-0.040364,0.009072
3419,0.008122,-0.040364,0.027769
3420,-0.026081,-0.040364,0.009072
3421,-0.008979,-0.001832,-0.009625
3422,0.008122,0.017434,-0.028322
3423,0.008122,0.0367,-0.103109
3424,0.008122,0.0367,-0.103109
3425,0.008122,0.017434,-0.065715
3426,-0.008979,-0.021098,-0.028322
3427,-0.008979,-0.021098,0.009072
3428,0.008122,0.017434,0.009072
3429,0.008122,0.017434,0.027769
3430,0.008122,0.017434,-0.009625
3431,-0.008979,0.0367,0.009072
3432,0.008122,0.017434,0.009072
3433,0.008122,0.017434,0.027769
3434,-0.008979,-0.001832,-0.009625
3435,0.008122,-0.001832,-0.009625
3436,0.008122,-0.001832,0.027769
3437,0.008122,-0.001832,0.009072
3438,-0.008979,-0.021098,0.009072
3439,-0.026081,-0.001832,-0.009625
3440,-0.008979,-0.001832,-0.009625
3441,-0.008979,0.017434,-0.028322
3442,0.008122,0.017434,0.046465
3443,0.008122,-0.001832,0.009072
3444,-0.008979,-0.021098,0.027769
3445,0.008122,-0.001832,0.027769
3446,-0.008979,-0.001832,0.046465
3447,0.008122,-0.05963,0.027769
3448,0.008122,-0.021098,0.009072
3449,-0.026081,-0.040364,-0.009625
3450,-0.026081,-0.040364,-0.047018
3451,-0.008979,0.017434,-0.028322
3452,0.008122,-0.001832,-0.028322
3453,0.008122,0.0367,-0.047018
3454,-0.008979,0.0367,-0.028322
3455,0.025223,-0.021098,-0.028322
3456,0.008122,-0.021098,0.009072
3457,0.008122,-0.021098,0.027769
3458,-0.008979,0.017434,0.009072
3459,0.008122,0.017434,-0.009625
3460,-0.008979,-0.001832,0.027769
3461,-0.008979,0.055966,0.009072
3462,-0.008979,0.0367,-0.009625
3463,-0.008979,0.055966,0.009072
3464,-0.008979,-0.001832,-0.009625
3465,0.008122,-0.021098,0.009072
3466,-0.008979,-0.001832,0.065162
3467,-0.008979,-0.001832,0.065162
3468,0.008122,-0.001832,0.046465
3469,0.025223,-0.001832,0.046465
3470,-0.008979,-0.001832,0.027769
3471,0.008122,-0.001832,-0.028322
3472,0.008122,0.0367,-0.084412
3473,0.008122,-0.021098,-0.065715
3474,-0.008979,-0.040364,-0.047018
3475,-0.008979,0.017434,-0.028322
3476,0.008122,-0.001832,0.009072
3477,-0.008979,-0.001832,-0.028322
3478,-0.026081,-0.001832,0.009072
3479,0.025223,0.0367,0.046465
3480,0.008122,0.0367,0.009072
3481,0.025223,0.0367,-0.009625
3482,-0.008979,0.0367,0.027769
3483,0.008122,0.0367,0.009072
3484,-0.008979,0.017434,-0.009625
3485,-0.008979,0.017434,0.009072
3486,0.008122,0.017434,-0.047018
3487,0.008122,-0.001832,-0.009625
3488,0.008122,0.017434,0.027769
3489,0.008122,-0.021098,-0.009625
3490,-0.026081,-0.040364,-0.009625
3491,-0.008979,-0.021098,-0.009625
3492,-0.008979,0.017434,-0.009625
3493,0.008122,0.0367,-0.028322
3494,-0.008979,-0.001832,-0.009625
3495,-0.008979,-0.021098,-0.028322
3496,0.008122,-0.001832,-0.009625
3497,0.008122,-0.001832,0.009072
3498,-0.008979,-0.021098,0.027769
3499,-0.008979,-0.05963,0.009072
3500,0.008122,-0.040364,0.009072
3501,-0.026081,-0.001832,0.009072
3502,-0.008979,-0.021098,-0.009625
3503,0.008122,-0.001832,-0.009625
3504,0.008122,0.017434,0.009072
3505,0.008122,0.017434,0.027769
3506,-0.008979,-0.021098,0.046465
3507,0.008122,0.017434,0.046465
3508,0.008122,-0.021098,0.009072
3509,0.008122,0.017434,0.009072
3510,0.025223,-0.001832,0.027769
3511,-0.008979,-0.001832,-0.047018
3512,0.008122,0.017434,-0.028322
3513,0.008122,-0.001832,-0.009625
3514,-0.008979,0.017434,-0.009625
3515,-0.008979,0.017434,0.009072
3516,0.008122,-0.001832,-0.009625
3517,0.008122,0.017434,-0.009625
3518,-0.008979,-0.021098,-0.084412
3519,-0.008979,-0.040364,-0.047018
3520,0.008122,-0.05963,-0.009625
3521,0.008122,-0.021098,0.027769
3522,0.008122,-0.001832,-0.028322
3523,0.008122,-0.021098,-0.009625
3524,0.008122,-0.001832,-0.028322
3525,0.008122,0.055966,-0.009625
3526,0.008122,0.017434,-0.028322
3527,0.025223,0.017434,0.009072
3528,0.008122,0.017434,0.009072
3529,-0.008979,0.017434,0.009072
3530,-0.008979,-0.001832,0.027769
3531,-0.026081,-0.021098,0.027769
3532,-0.008979,-0.021098,0.009072
3533,-0.008979,0.017434,0.009072
3534,-0.008979,-0.05963,0.009072
3535,-0.008979,-0.001832,-0.009625
3536,-0.008979,-0.001832,0.009072
3537,0.008122,-0.001832,0.046465
3538,0.008122,-0.001832,-0.009625
3539,0.008122,-0.021098,0.009072
3540,0.008122,0.017434,0.009072
3541,0.008122,-0.021098,-0.065715
3542,0.025223,-0.021098,0.009072
3543,-0.008979,0.0367,-0.009625
3544,-0.008979,0.055966,-0.009625
3545,0.008122,0.094498,-0.009625
3546,0.008122,0.075232,-0.009625
3547,0.008122,0.055966,-0.009625
3548,-0.008979,-0.001832,0.009072
3549,-0.026081,-0.040364,0.027769
3550,0.008122,-0.040364,0.009072
3551,-0.008979,-0.001832,0.009072
3552,0.008122,-0.021098,0.009072
3553,-0.008979,0.0367,0.027769
3554,0.008122,0.017434,-0.009625
3555,0.008122,0.0367,0.009072
3556,0.025223,0.0367,0.009072
3557,0.008122,-0.001832,0.027769
3558,0.008122,-0.001832,0.009072
3559,0.008122,-0.001832,0.009072
3560,-0.008979,-0.021098,0.009072
3561,-0.008979,-0.021098,0.027769
3562,-0.008979,-0.001832,0.027769
3563,-0.008979,0.017434,0.027769
3564,-0.008979,-0.001832,0.046465
3565,-0.008979,0.017434,-0.028322
3566,0.008122,-0.001832,-0.103109
3567,0.008122,-0.001832,-0.047018
3568,0.008122,-0.001832,-0.065715
3569,-0.008979,-0.001832,-0.028322
3570,0.008122,-0.021098,0.009072
3571,0.008122,-0.021098,0.027769
3572,0.008122,-0.001832,0.009072
3573,0.025223,-0.021098,0.027769
3574,0.008122,-0.001832,0.027769
3575,0.008122,-0.021098,-0.028322
3576,-0.008979,-0.001832,-0.047018
3577,-0.008979,-0.021098,-0.047018
3578,-0.008979,0.017434,-0.028322
3579,0.008122,0.0367,0.027769
3580,0.025223,-0.001832,0.046465
3581,0.008122,0.055966,-0.009625
3582,0.008122,0.0367,0.027769
3583,0.008122,-0.001832,0.009072
3584,-0.026081,-0.001832,0.009072
3585,-0.008979,-0.001832,-0.009625
3586,-0.008979,-0.001832,-0.009625
3587,-0.008979,-0.040364,-0.009625
3588,-0.008979,-0.021098,0.009072
3589,-0.008979,-0.001832,-0.009625
3590,0.008122,-0.040364,-0.028322
3591,-0.008979,-0.098162,0.027769
3592,0.008122,-0.05963,0.083859
3593,0.008122,-0.001832,0.046465
3594,0.008122,0.017434,0.083859
3595,0.008122,0.075232,0.083859
3596,-0.008979,0.0367,0.027769
3597,-0.043182,0.055966,-0.065715
3598,-0.026081,0.075232,-0.065715
3599,-0.008979,0.075232,-0.065715
3600,0.025223,0.017434,-0.065715
3601,-0.008979,0.017434,-0.028322
3602,0.008122,0.055966,-0.028322
3603,0.025223,0.0367,0.009072
3604,0.008122,0.0367,0.009072
3605,0.008122,-0.001832,-0.009625
3606,0.008122,0.017434,-0.047018
3607,0.008122,0.0367,-0.028322
3608,-0.008979,0.017434,-0.047018
3609,0.008122,-0.001832,-0.009625
3610,0.008122,-0.021098,0.027769
3611,0.008122,-0.001832,0.009072
3612,0.008122,-0.021098,0.027769
3613,0.008122,-0.001832,0.009072
3614,-0.008979,-0.001832,0.027769
3615,-0.008979,0.017434,-0.009625
3616,-0.008979,-0.001832,0.009072
3617,-0.008979,0.0367,-0.009625
3618,0.008122,-0.001832,0.009072
3619,-0.008979,-0.021098,0.009072
3620,0.008122,-0.021098,-0.009625
3621,0.008122,-0.001832,0.027769
3622,0.025223,-0.021098,0.046465
3623,-0.008979,0.017434,0.046465
3624,-0.008979,-0.001832,-0.028322
3625,-0.008979,-0.001832,0.009072
3626,-0.008979,-0.001832,0.009072
3627,-0.008979,-0.040364,0.009072
3628,-0.008979,-0.05963,0.046465
3629,0.008122,-0.040364,-0.009625
3630,0.008122,-0.05963,-0.047018
