# Requested Sampling Rate (Hz):,1000
# Actual Sampling Rate (Hz):,1009.043
# Requested Duration (s):,5.0
# Actual Duration (s):,4.995
# REST Calibration:,831.5250689655151,832.0950689655182,831.5147931034478
# MAX Calibration:,890.0000,884.0000,885.0000
# Normalization: MVC-based  (x_norm = (x - REST) / (MAX - REST))
sample_idx,EMG1,EMG2,EMG3
0,0.008122,-0.021098,-0.028322
1,0.008122,-0.021098,-0.009625
2,0.008122,-0.021098,0.027769
3,0.008122,0.017434,0.065162
4,-0.008979,0.0367,0.065162
5,-0.008979,0.055966,0.046465
6,0.008122,0.075232,0.027769
7,0.008122,0.0367,-0.065715
8,0.008122,0.0367,-0.084412
9,-0.008979,0.017434,-0.047018
10,0.008122,0.017434,0.009072
11,0.008122,-0.021098,-0.028322
12,0.008122,0.017434,-0.009625
13,-0.026081,-0.001832,0.009072
14,0.008122,-0.001832,-0.047018
15,0.008122,0.017434,0.009072
16,-0.008979,-0.021098,0.027769
17,-0.008979,-0.05963,0.009072
18,0.008122,-0.021098,0.009072
19,0.008122,-0.078896,0.027769
20,-0.008979,-0.078896,-0.009625
21,-0.008979,-0.040364,-0.028322
22,0.025223,-0.021098,0.009072
23,-0.008979,0.075232,0.009072
24,0.008122,0.0367,-0.009625
25,-0.008979,0.017434,-0.009625
26,0.025223,0.075232,0.009072
27,0.042325,0.113764,0.009072
28,0.025223,0.055966,0.046465
29,0.008122,-0.040364,0.009072
30,-0.008979,-0.021098,0.027769
31,-0.008979,-0.040364,0.009072
32,-0.008979,-0.021098,0.027769
33,-0.008979,0.017434,0.027769
34,-0.008979,0.055966,-0.028322
35,-0.008979,0.055966,-0.028322
36,0.008122,0.055966,-0.028322
37,0.008122,0.055966,-0.009625
38,-0.008979,0.017434,0.009072
39,0.008122,-0.021098,-0.009625
40,-0.008979,-0.05963,-0.009625
41,0.008122,-0.040364,0.027769
42,0.025223,-0.021098,0.009072
43,0.008122,-0.05963,-0.009625
44,0.008122,-0.001832,-0.009625
45,-0.008979,-0.001832,-0.009625
46,0.008122,-0.001832,-0.028322
47,-0.008979,-0.001832,0.027769
48,-0.008979,0.017434,0.027769
49,-0.008979,0.055966,0.027769
50,0.008122,0.075232,0.027769
51,0.025223,0.094498,0.027769
52,0.008122,-0.001832,-0.009625
53,0.008122,-0.001832,-0.028322
54,0.008122,-0.040364,-0.009625
55,0.008122,-0.021098,0.009072
56,-0.008979,-0.021098,-0.009625
57,0.008122,-0.001832,-0.009625
58,0.008122,-0.001832,-0.028322
59,-0.008979,-0.021098,-0.028322
60,-0.008979,-0.001832,-0.009625
61,-0.008979,0.017434,0.009072
62,-0.008979,-0.021098,0.009072
63,0.008122,-0.040364,-0.009625
64,0.008122,-0.001832,-0.009625
65,0.008122,0.055966,-0.009625
66,-0.008979,0.0367,-0.028322
67,0.008122,0.0367,-0.028322
68,0.008122,0.055966,-0.009625
69,0.008122,0.0367,-0.009625
70,-0.008979,-0.021098,0.009072
71,-0.026081,-0.021098,0.009072
72,-0.008979,-0.040364,-0.009625
73,0.025223,-0.021098,0.009072
74,-0.008979,-0.001832,0.009072
75,-0.008979,-0.05963,0.009072
76,-0.008979,-0.078896,-0.009625
77,-0.026081,-0.021098,-0.009625
78,0.008122,-0.021098,-0.009625
79,-0.026081,-0.021098,-0.009625
80,-0.026081,0.055966,0.027769
81,-0.026081,-0.021098,0.027769
82,-0.043182,-0.001832,0.027769
83,0.025223,0.0367,0.027769
84,0.008122,0.075232,0.009072
85,0.025223,0.055966,0.009072
86,0.025223,0.0367,-0.009625
87,0.025223,0.055966,-0.009625
88,-0.008979,0.0367,-0.009625
89,0.008122,0.075232,-0.047018
90,-0.008979,0.017434,-0.047018
91,0.008122,-0.001832,-0.009625
92,-0.008979,0.094498,0.027769
93,0.008122,0.075232,0.046465
94,0.008122,0.094498,0.027769
95,0.008122,0.055966,0.046465
96,-0.008979,-0.001832,0.027769
97,0.008122,0.0367,0.009072
98,0.008122,-0.001832,-0.047018
99,0.008122,-0.001832,-0.065715
100,-0.008979,-0.021098,-0.047018
101,0.008122,-0.001832,-0.028322
102,0.025223,-0.05963,-0.009625
103,0.008122,-0.040364,-0.009625
104,0.008122,-0.040364,-0.009625
105,0.008122,-0.05963,0.009072
106,-0.008979,-0.078896,0.027769
107,-0.008979,-0.021098,-0.009625
108,0.008122,0.0367,-0.028322
109,0.025223,0.075232,0.027769
110,0.025223,0.075232,0.009072
111,0.042325,0.017434,0.009072
112,0.008122,-0.001832,-0.047018
113,-0.008979,-0.021098,0.009072
114,-0.026081,-0.040364,0.027769
115,-0.008979,0.017434,0.027769
116,0.008122,-0.021098,0.027769
117,-0.026081,-0.05963,0.046465
118,-0.043182,-0.040364,0.046465
119,-0.060283,-0.078896,0.027769
120,-0.026081,-0.078896,0.009072
121,-0.008979,-0.078896,-0.065715
122,-0.008979,-0.05963,-0.084412
123,0.008122,0.017434,-0.103109
124,0.008122,0.017434,-0.028322
125,0.042325,0.017434,-0.009625
126,0.008122,-0.001832,0.009072
127,0.025223,-0.021098,0.046465
128,0.042325,-0.021098,0.046465
129,-0.008979,0.017434,0.027769
130,-0.060283,-0.001832,0.009072
131,-0.043182,-0.021098,0.009072
132,-0.026081,0.017434,0.009072
133,-0.043182,-0.040364,0.009072
134,-0.026081,-0.078896,-0.028322
135,0.008122,-0.001832,-0.028322
136,0.025223,0.055966,-0.009625
137,0.059426,0.152296,0.009072
138,0.042325,0.13303,0.027769
139,0.042325,0.13303,0.046465
140,0.059426,0.113764,0.046465
141,0.042325,0.017434,0.009072
142,0.025223,-0.001832,0.027769
143,0.008122,0.017434,0.027769
144,-0.008979,-0.001832,-0.028322
145,0.008122,0.017434,0.009072
146,0.008122,0.017434,-0.028322
147,0.008122,-0.040364,0.046465
148,-0.026081,-0.021098,0.027769
149,-0.026081,-0.040364,-0.009625
150,-0.026081,-0.05963,-0.009625
151,-0.008979,-0.040364,-0.028322
152,-0.008979,-0.021098,-0.028322
153,-0.008979,-0.001832,-0.009625
154,0.008122,0.055966,-0.009625
155,-0.008979,0.0367,-0.009625
156,-0.008979,-0.021098,-0.009625
157,-0.008979,-0.021098,-0.028322
158,0.008122,0.017434,0.009072
159,-0.026081,-0.040364,0.009072
160,-0.026081,-0.040364,0.009072
161,-0.008979,-0.078896,0.027769
162,-0.026081,-0.078896,0.046465
163,-0.026081,-0.040364,0.009072
164,-0.026081,-0.040364,-0.009625
165,-0.026081,-0.021098,0.009072
166,0.008122,0.017434,0.009072
167,-0.008979,-0.021098,-0.009625
168,0.025223,0.055966,-0.009625
169,0.042325,0.017434,0.046465
170,0.025223,0.0367,0.065162
171,0.008122,0.055966,0.027769
172,-0.008979,0.075232,0.009072
173,-0.008979,0.055966,0.009072
174,-0.008979,-0.040364,-0.047018
175,0.008122,-0.040364,-0.084412
176,0.008122,-0.05963,-0.028322
177,-0.043182,-0.040364,-0.028322
178,-0.008979,-0.021098,-0.009625
179,-0.008979,0.0367,-0.009625
180,0.008122,0.055966,0.009072
181,-0.008979,0.055966,0.009072
182,-0.008979,0.055966,0.009072
183,0.008122,0.0367,0.027769
184,0.008122,-0.021098,0.027769
185,-0.008979,0.017434,-0.009625
186,0.008122,0.0367,-0.009625
187,0.008122,0.017434,0.009072
188,0.025223,0.055966,-0.009625
189,0.025223,-0.001832,-0.028322
190,0.025223,-0.001832,-0.028322
191,0.008122,-0.001832,-0.009625
192,0.008122,-0.001832,0.027769
193,-0.008979,-0.001832,0.009072
194,0.008122,-0.001832,0.009072
195,0.008122,-0.001832,0.009072
196,-0.008979,-0.021098,0.009072
197,0.008122,-0.040364,0.027769
198,-0.008979,-0.021098,0.027769
199,0.008122,-0.040364,0.027769
200,-0.008979,-0.05963,0.009072
201,-0.008979,-0.078896,0.009072
202,-0.008979,-0.05963,-0.028322
203,0.025223,-0.040364,-0.009625
204,0.025223,-0.05963,-0.028322
205,0.042325,-0.05963,-0.028322
206,0.025223,-0.078896,-0.009625
207,0.008122,-0.078896,0.009072
208,-0.008979,-0.040364,0.009072
209,-0.026081,0.017434,-0.009625
210,-0.026081,0.055966,-0.028322
211,-0.008979,0.075232,-0.028322
212,0.008122,0.171562,0.009072
213,-0.008979,0.171562,-0.009625
214,-0.026081,0.113764,0.009072
215,-0.008979,0.0367,0.027769
216,0.008122,-0.001832,0.027769
217,0.025223,-0.001832,0.046465
218,0.025223,0.017434,0.046465
219,0.008122,0.017434,0.027769
220,-0.008979,-0.001832,0.027769
221,0.008122,0.017434,0.009072
222,0.008122,0.0367,0.009072
223,0.025223,0.017434,-0.009625
224,0.008122,-0.001832,0.009072
225,0.008122,-0.021098,0.009072
226,-0.043182,-0.05963,-0.009625
227,-0.043182,-0.098162,0.009072
228,-0.026081,-0.040364,0.009072
229,-0.008979,-0.078896,-0.009625
230,0.025223,-0.078896,-0.009625
231,0.076527,-0.040364,0.009072
232,0.025223,0.0367,-0.009625
233,-0.14579,-0.001832,-0.047018
234,-0.026081,0.055966,-0.047018
235,0.025223,0.094498,-0.009625
236,0.025223,0.113764,0.009072
237,0.042325,0.094498,0.027769
238,0.025223,0.055966,0.009072
239,0.093629,0.094498,0.027769
240,0.008122,0.055966,-0.009625
241,0.025223,0.075232,0.027769
242,0.059426,0.055966,0.009072
243,0.042325,0.0367,0.027769
244,0.025223,0.0367,0.027769
245,0.025223,0.0367,0.027769
246,0.025223,-0.001832,0.027769
247,0.008122,-0.040364,0.046465
248,-0.026081,-0.05963,0.009072
249,0.008122,-0.05963,-0.028322
250,-0.026081,-0.098162,-0.047018
251,-0.026081,-0.098162,-0.047018
252,-0.008979,-0.098162,0.009072
253,-0.026081,-0.05963,-0.028322
254,0.008122,0.017434,-0.009625
255,0.008122,0.017434,-0.065715
256,-0.008979,0.017434,-0.047018
257,-0.008979,0.0367,-0.028322
258,0.008122,0.075232,-0.009625
259,0.008122,0.075232,0.009072
260,0.025223,0.055966,0.046465
261,0.008122,-0.001832,0.065162
262,0.025223,0.017434,0.083859
263,0.008122,-0.001832,0.121252
264,0.008122,0.017434,0.102556
265,0.025223,0.017434,0.027769
266,0.008122,-0.021098,-0.047018
267,-0.008979,-0.021098,-0.103109
268,0.008122,-0.021098,-0.065715
269,0.025223,-0.001832,-0.065715
270,-0.008979,-0.021098,-0.103109
271,-0.008979,-0.040364,-0.028322
272,-0.026081,-0.040364,0.065162
273,-0.008979,-0.040364,0.046465
274,-0.008979,-0.040364,-0.009625
275,0.008122,-0.078896,-0.047018
276,-0.008979,-0.040364,-0.065715
277,-0.026081,-0.040364,-0.047018
278,-0.026081,-0.078896,-0.047018
279,-0.008979,-0.040364,-0.047018
280,0.008122,0.0367,-0.028322
281,-0.008979,0.055966,-0.009625
282,0.025223,0.055966,0.027769
283,0.025223,0.017434,0.027769
284,-0.008979,-0.001832,-0.009625
285,0.008122,0.075232,-0.009625
286,0.008122,0.0367,0.009072
287,-0.008979,0.055966,0.009072
288,-0.008979,-0.001832,-0.028322
289,-0.043182,-0.021098,-0.028322
290,-0.026081,-0.001832,-0.028322
291,0.008122,0.017434,0.027769
292,0.025223,0.0367,0.009072
293,0.008122,0.055966,0.046465
294,0.025223,0.055966,0.065162
295,0.008122,-0.001832,0.065162
296,-0.008979,0.017434,0.046465
297,-0.008979,-0.040364,-0.028322
298,-0.026081,-0.078896,-0.047018
299,0.008122,-0.078896,-0.028322
300,0.093629,-0.098162,-0.028322
301,0.093629,-0.078896,-0.028322
302,-0.043182,-0.078896,-0.009625
303,0.025223,-0.040364,-0.028322
304,0.042325,0.017434,-0.009625
305,0.008122,0.017434,0.027769
306,-0.094486,0.0367,0.046465
307,-0.094486,-0.001832,0.027769
308,-0.077385,0.017434,0.009072
309,-0.060283,0.0367,-0.009625
310,-0.043182,0.0367,0.009072
311,-0.026081,0.017434,-0.009625
312,-0.026081,0.0367,-0.028322
313,0.025223,0.0367,-0.009625
314,0.042325,0.0367,0.009072
315,0.025223,0.017434,0.009072
316,0.025223,0.075232,0.046465
317,0.042325,0.0367,0.065162
318,0.025223,0.017434,0.046465
319,-0.008979,0.0367,0.027769
320,-0.043182,-0.001832,0.027769
321,-0.077385,0.0367,0.027769
322,-0.111587,0.0367,-0.009625
323,-0.077385,0.017434,-0.028322
324,-0.026081,0.017434,-0.028322
325,0.042325,0.0367,-0.065715
326,0.042325,0.017434,-0.028322
327,0.127831,0.017434,0.027769
328,0.298845,0.055966,0.046465
329,0.230439,0.0367,0.083859
330,-0.043182,0.017434,0.027769
331,-0.043182,-0.001832,0.009072
332,-0.026081,-0.001832,-0.009625
333,0.008122,-0.021098,-0.009625
334,-0.008979,-0.040364,-0.028322
335,-0.008979,-0.05963,-0.047018
336,-0.008979,-0.05963,-0.028322
337,0.008122,-0.05963,-0.009625
338,-0.026081,-0.040364,-0.009625
339,-0.008979,-0.078896,0.009072
340,-0.008979,-0.136694,-0.009625
341,-0.026081,-0.05963,0.009072
342,-0.008979,-0.040364,0.027769
343,-0.026081,-0.021098,-0.009625
344,-0.043182,-0.040364,-0.028322
345,-0.043182,-0.001832,-0.047018
346,-0.008979,0.075232,-0.028322
347,0.008122,0.13303,0.009072
348,0.025223,0.113764,0.009072
349,0.025223,0.113764,0.027769
350,0.025223,0.017434,0.027769
351,0.025223,0.017434,0.027769
352,0.008122,-0.001832,0.009072
353,0.008122,-0.021098,-0.009625
354,-0.008979,-0.001832,-0.028322
355,0.008122,0.0367,0.009072
356,-0.008979,0.055966,0.009072
357,-0.026081,0.075232,-0.009625
358,-0.008979,0.075232,0.027769
359,-0.008979,0.075232,0.027769
360,0.025223,0.0367,0.046465
361,0.042325,-0.001832,0.009072
362,0.042325,0.017434,-0.009625
363,0.025223,-0.021098,0.009072
364,0.008122,-0.021098,-0.009625
365,0.008122,-0.040364,-0.009625
366,0.008122,-0.021098,-0.028322
367,0.008122,-0.040364,-0.009625
368,0.025223,-0.021098,-0.009625
369,0.042325,-0.040364,-0.009625
370,0.042325,-0.040364,-0.009625
371,-0.026081,-0.05963,-0.009625
372,-0.111587,-0.040364,-0.009625
373,-0.060283,-0.040364,-0.009625
374,-0.043182,-0.05963,0.009072
375,-0.026081,-0.040364,-0.009625
376,-0.026081,-0.001832,0.009072
377,-0.026081,0.055966,-0.009625
378,-0.026081,0.055966,0.009072
379,-0.008979,0.055966,-0.009625
380,-0.008979,0.075232,0.009072
381,0.025223,0.0367,0.046465
382,0.025223,0.075232,0.046465
383,0.042325,0.0367,0.027769
384,0.008122,-0.040364,-0.047018
385,-0.008979,-0.021098,-0.028322
386,-0.008979,-0.040364,-0.028322
387,-0.026081,-0.040364,-0.009625
388,-0.060283,-0.117428,-0.028322
389,-0.060283,-0.078896,-0.009625
390,-0.043182,-0.05963,-0.009625
391,-0.026081,-0.040364,0.009072
392,-0.026081,-0.040364,0.009072
393,-0.008979,-0.040364,-0.009625
394,0.042325,0.0367,0.027769
395,0.025223,0.094498,0.027769
396,0.008122,0.075232,0.027769
397,0.025223,0.055966,0.009072
398,0.059426,0.055966,0.009072
399,0.042325,0.075232,-0.009625
400,0.025223,0.0367,-0.047018
401,-0.077385,0.017434,-0.028322
402,-0.043182,-0.001832,-0.028322
403,0.127831,-0.040364,-0.009625
404,0.196237,-0.021098,0.009072
405,0.162034,0.055966,0.009072
406,0.11073,0.0367,0.009072
407,0.093629,0.094498,0.046465
408,0.042325,0.055966,0.046465
409,-0.128689,-0.001832,0.027769
410,-0.060283,-0.001832,-0.009625
411,-0.026081,-0.021098,-0.009625
412,-0.008979,-0.040364,-0.009625
413,-0.008979,-0.040364,-0.047018
414,-0.026081,-0.040364,-0.009625
415,-0.026081,-0.021098,0.009072
416,-0.008979,-0.040364,0.009072
417,-0.043182,-0.040364,0.027769
418,-0.043182,-0.05963,0.046465
419,-0.060283,-0.098162,0.009072
420,-0.077385,-0.078896,-0.028322
421,-0.026081,-0.078896,-0.009625
422,0.025223,-0.040364,-0.009625
423,0.008122,-0.05963,-0.028322
424,0.025223,0.017434,-0.009625
425,0.042325,0.094498,-0.009625
426,0.076527,0.171562,0.009072
427,0.025223,0.152296,0.027769
428,-0.008979,0.094498,0.027769
429,0.042325,0.094498,0.046465
430,0.059426,0.055966,0.046465
431,0.076527,-0.021098,0.027769
432,0.059426,0.017434,-0.009625
433,-0.094486,-0.021098,-0.047018
434,-0.077385,-0.001832,-0.047018
435,-0.026081,0.0367,-0.028322
436,-0.008979,0.017434,0.009072
437,0.008122,0.0367,0.027769
438,0.025223,-0.001832,0.046465
439,0.008122,-0.078896,0.009072
440,-0.008979,-0.078896,0.027769
441,0.008122,-0.078896,0.009072
442,-0.008979,-0.078896,0.027769
443,0.008122,-0.05963,0.009072
444,-0.008979,-0.05963,-0.047018
445,-0.060283,-0.040364,-0.065715
446,-0.094486,-0.136694,-0.028322
447,-0.026081,-0.175226,0.009072
448,0.025223,-0.213758,0.027769
449,0.076527,-0.175226,0.009072
450,0.093629,-0.117428,0.009072
451,-0.060283,-0.05963,-0.009625
452,-0.043182,0.113764,-0.028322
453,-0.077385,0.267892,-0.009625
454,0.127831,0.306424,-0.009625
455,0.11073,0.248626,-0.009625
456,0.042325,0.190828,0.009072
457,-0.008979,0.171562,-0.009625
458,-0.043182,0.13303,-0.028322
459,-0.077385,0.075232,-0.009625
460,-0.008979,0.055966,-0.009625
461,0.025223,-0.001832,0.009072
462,0.025223,-0.001832,0.046465
463,-0.094486,-0.05963,0.065162
464,-0.094486,-0.098162,0.046465
465,-0.026081,-0.098162,0.027769
466,0.008122,-0.117428,0.009072
467,0.025223,-0.194492,-0.009625
468,0.008122,-0.15596,-0.047018
469,0.042325,-0.001832,-0.028322
470,0.093629,0.017434,0.009072
471,0.025223,0.0367,0.009072
472,0.008122,0.094498,0.027769
473,-0.008979,0.13303,-0.028322
474,0.008122,0.094498,0.009072
475,0.059426,-0.001832,0.046465
476,0.11073,-0.040364,0.009072
477,-0.008979,-0.05963,-0.009625
478,-0.008979,-0.001832,-0.009625
479,-0.026081,0.0367,0.027769
480,-0.026081,0.055966,0.027769
481,-0.060283,0.094498,0.046465
482,-0.060283,0.171562,0.046465
483,-0.026081,0.113764,0.009072
484,-0.008979,0.017434,0.027769
485,0.008122,0.017434,-0.009625
486,0.008122,-0.021098,-0.084412
487,0.059426,0.0367,-0.047018
488,0.179135,0.075232,0.027769
489,0.162034,0.055966,0.046465
490,0.093629,-0.021098,0.009072
491,0.059426,-0.05963,-0.009625
492,-0.077385,-0.040364,0.009072
493,-0.060283,-0.117428,-0.009625
494,-0.060283,-0.252289,-0.028322
495,0.008122,-0.310087,-0.065715
496,-0.043182,-0.348619,-0.047018
497,-0.128689,-0.252289,-0.009625
498,0.008122,-0.117428,-0.009625
499,0.093629,-0.040364,-0.028322
500,0.093629,0.075232,-0.047018
501,0.025223,0.306424,0.009072
502,-0.128689,0.364222,-0.028322
503,-0.026081,0.306424,0.009072
504,-0.008979,0.152296,-0.009625
505,0.042325,0.171562,0.027769
506,0.008122,0.152296,0.046465
507,-0.008979,0.171562,0.009072
508,-0.043182,0.075232,0.027769
509,-0.060283,-0.001832,0.009072
510,-0.043182,-0.021098,-0.028322
511,-0.060283,-0.021098,-0.009625
512,-0.026081,-0.05963,-0.009625
513,0.008122,-0.040364,-0.047018
514,0.008122,-0.021098,-0.009625
515,0.059426,0.017434,0.009072
516,0.059426,-0.001832,0.009072
517,0.042325,-0.040364,0.027769
518,0.059426,0.017434,0.046465
519,0.042325,0.075232,0.027769
520,0.093629,0.075232,0.009072
521,0.093629,0.017434,0.027769
522,0.059426,-0.05963,-0.028322
523,-0.077385,-0.078896,-0.009625
524,-0.060283,-0.078896,-0.028322
525,-0.111587,-0.078896,-0.009625
526,-0.14579,-0.078896,-0.009625
527,-0.14579,-0.098162,-0.009625
528,-0.043182,-0.021098,0.027769
529,0.127831,-0.021098,0.046465
530,0.162034,-0.040364,0.009072
531,0.144933,-0.001832,0.009072
532,0.076527,0.0367,-0.009625
533,-0.008979,-0.021098,-0.009625
534,-0.111587,-0.098162,-0.028322
535,-0.008979,-0.078896,-0.047018
536,-0.026081,0.075232,0.009072
537,0.025223,0.113764,0.046465
538,0.059426,0.113764,0.027769
539,0.008122,0.075232,0.009072
540,0.042325,0.075232,-0.009625
541,0.093629,0.075232,-0.028322
542,0.076527,-0.001832,-0.065715
543,-0.14579,-0.001832,-0.028322
544,-0.248398,-0.078896,-0.009625
545,-0.179993,-0.136694,-0.009625
546,-0.060283,-0.15596,-0.028322
547,0.025223,-0.098162,-0.009625
548,0.025223,-0.078896,0.027769
549,0.076527,-0.021098,0.083859
550,0.144933,0.017434,0.083859
551,0.093629,0.017434,0.046465
552,0.076527,-0.001832,-0.047018
553,0.025223,0.0367,-0.047018
554,-0.077385,0.094498,-0.009625
555,-0.2655,0.171562,-0.009625
556,-0.128689,0.13303,-0.009625
557,0.025223,-0.021098,-0.009625
558,0.127831,-0.078896,0.009072
559,0.264642,-0.098162,0.046465
560,0.298845,-0.078896,0.027769
561,0.162034,-0.021098,0.009072
562,0.076527,-0.001832,0.027769
563,-0.026081,0.0367,0.009072
564,-0.214196,0.055966,-0.028322
565,-0.14579,0.017434,-0.028322
566,-0.14579,-0.05963,-0.009625
567,-0.094486,-0.15596,-0.028322
568,0.008122,-0.175226,-0.028322
569,0.042325,-0.078896,-0.009625
570,0.042325,-0.021098,0.009072
571,0.093629,0.075232,0.027769
572,-0.043182,0.13303,0.046465
573,-0.128689,0.210094,0.046465
574,-0.14579,0.113764,0.046465
575,0.076527,-0.001832,0.027769
576,0.144933,0.0367,0.009072
577,0.059426,0.075232,-0.047018
578,-0.026081,-0.001832,-0.084412
579,-0.231297,-0.15596,-0.047018
580,-0.179993,-0.15596,-0.028322
581,-0.111587,-0.098162,-0.009625
582,-0.077385,-0.136694,-0.009625
583,0.093629,-0.078896,-0.028322
584,0.162034,0.017434,-0.009625
585,0.162034,0.13303,0.027769
586,0.093629,0.22936,0.027769
587,0.076527,0.075232,0.009072
588,0.11073,0.0367,0.009072
589,0.144933,0.13303,-0.009625
590,0.093629,0.13303,-0.028322
591,-0.008979,0.113764,-0.028322
592,-0.077385,0.017434,0.046465
593,-0.094486,0.017434,0.046465
594,-0.026081,-0.021098,0.046465
595,-0.060283,-0.05963,0.046465
596,-0.026081,-0.117428,0.046465
597,-0.026081,-0.194492,0.046465
598,-0.026081,-0.252289,-0.009625
599,0.008122,-0.213758,-0.084412
600,0.008122,-0.098162,-0.103109
601,0.093629,-0.021098,-0.084412
602,-0.060283,-0.040364,-0.065715
603,-0.077385,0.0367,0.009072
604,-0.111587,0.094498,0.027769
605,-0.214196,0.017434,0.009072
606,-0.043182,-0.021098,0.009072
607,0.281743,-0.001832,0.009072
608,0.504061,0.113764,0.027769
609,0.504061,0.171562,0.027769
610,0.162034,0.017434,0.027769
611,-0.231297,0.017434,0.009072
612,-0.231297,0.0367,-0.009625
613,-0.214196,0.094498,-0.009625
614,-0.162891,0.075232,-0.028322
615,-0.026081,0.0367,-0.028322
616,0.025223,-0.001832,0.027769
617,0.093629,-0.001832,0.027769
618,0.144933,0.055966,0.027769
619,0.076527,0.094498,0.027769
620,-0.043182,0.075232,0.009072
621,-0.077385,-0.021098,0.009072
622,-0.026081,-0.040364,-0.009625
623,0.144933,-0.136694,-0.009625
624,0.247541,-0.117428,-0.028322
625,0.298845,0.017434,-0.009625
626,0.144933,0.113764,-0.009625
627,0.042325,0.0367,-0.028322
628,-0.231297,0.017434,-0.009625
629,-0.179993,0.0367,0.027769
630,-0.197094,-0.098162,0.027769
631,-0.179993,-0.117428,0.027769
632,-0.2655,-0.098162,0.046465
633,-0.162891,-0.05963,-0.009625
634,0.127831,-0.040364,-0.065715
635,0.162034,-0.05963,-0.084412
636,0.127831,0.075232,-0.028322
637,0.179135,0.152296,0.009072
638,-0.026081,0.248626,0.027769
639,-0.111587,0.22936,0.027769
640,-0.179993,0.055966,0.046465
641,-0.111587,-0.136694,0.027769
642,-0.077385,-0.252289,0.046465
643,-0.128689,-0.310087,0.027769
644,0.093629,-0.348619,0.009072
645,0.230439,-0.541279,-0.065715
646,0.059426,-0.425683,-0.028322
647,0.298845,-0.252289,0.009072
648,-0.008979,-0.194492,-0.084412
649,-0.248398,-0.098162,-0.084412
650,0.127831,0.248626,-0.047018
651,-0.077385,0.51835,0.065162
652,-0.162891,0.633946,0.065162
653,-0.026081,0.691744,0.027769
654,-0.008979,0.441286,-0.009625
655,0.042325,0.267892,0.009072
656,0.127831,0.13303,0.009072
657,0.196237,0.055966,-0.047018
658,0.093629,-0.001832,-0.009625
659,-0.128689,-0.05963,-0.009625
660,-0.128689,-0.021098,0.009072
661,-0.128689,0.075232,0.009072
662,-0.094486,0.017434,0.065162
663,-0.026081,-0.001832,0.065162
664,-0.008979,-0.05963,0.009072
665,-0.043182,-0.021098,0.009072
666,-0.008979,-0.040364,-0.009625
667,0.008122,0.0367,-0.047018
668,0.059426,0.113764,-0.028322
669,0.333048,-0.098162,0.009072
670,0.555365,-0.233024,-0.009625
671,0.36725,-0.310087,-0.047018
672,0.059426,-0.387151,-0.028322
673,-0.231297,-0.290821,-0.009625
674,-0.282601,-0.05963,-0.009625
675,-0.008979,0.306424,-0.009625
676,-0.214196,0.441286,0.009072
677,-0.14579,0.306424,-0.028322
678,-0.077385,0.113764,-0.047018
679,-0.077385,-0.098162,-0.047018
680,-0.2655,-0.271555,-0.009625
681,-0.282601,-0.252289,0.009072
682,-0.179993,-0.136694,0.027769
683,-0.077385,-0.252289,-0.009625
684,-0.008979,-0.194492,-0.047018
685,-0.026081,-0.117428,-0.028322
686,0.127831,-0.117428,-0.009625
687,0.196237,-0.329353,-0.009625
688,0.11073,0.113764,-0.009625
689,0.008122,0.152296,-0.028322
690,-0.060283,0.075232,-0.009625
691,-0.111587,0.306424,0.009072
692,0.008122,0.402754,0.027769
693,0.144933,0.287158,0.046465
694,0.127831,-0.040364,0.046465
695,0.213338,-0.194492,0.083859
696,-0.060283,-0.252289,0.046465
697,-0.179993,-0.387151,-0.009625
698,-0.060283,-0.252289,-0.028322
699,0.213338,-0.15596,-0.047018
700,0.298845,-0.310087,-0.028322
701,-0.248398,-0.522013,-0.028322
702,-0.316804,-0.733939,-0.047018
703,-0.060283,-0.656875,-0.028322
704,0.435656,-0.618343,-0.028322
705,0.640872,-0.310087,-0.028322
706,0.538264,0.094498,-0.028322
707,0.093629,0.922936,-0.047018
708,-0.231297,1.211926,0.046465
709,-0.179993,1.057798,0.046465
710,0.025223,0.961468,0.027769
711,-0.043182,0.595414,0.009072
712,-0.162891,0.210094,-0.028322
713,-0.333905,0.287158,0.009072
714,-0.043182,0.267892,0.046465
715,0.076527,0.13303,0.065162
716,0.025223,-0.05963,0.065162
717,0.042325,-0.271555,0.009072
718,0.076527,-0.444949,-0.028322
719,-0.043182,-0.310087,-0.047018
720,-0.026081,0.0367,-0.028322
721,-0.162891,0.0367,-0.009625
722,-0.282601,0.113764,0.009072
723,-0.231297,0.171562,0.009072
724,-0.026081,-0.001832,0.009072
725,0.042325,-0.078896,0.027769
726,0.042325,-0.406417,0.027769
727,0.196237,-0.483481,0.027769
728,0.230439,-0.310087,0.009072
729,0.247541,-0.367885,0.009072
730,-0.14579,-0.637609,-0.084412
731,0.196237,-0.367885,0.009072
732,0.11073,-0.098162,-0.047018
733,-0.026081,0.094498,-0.140502
734,-0.453614,0.61468,-0.103109
735,-0.231297,1.077064,0.027769
736,-0.060283,1.0,0.065162
737,-0.026081,0.556882,0.065162
738,0.11073,0.364222,0.046465
739,0.162034,0.210094,0.027769
740,0.127831,0.13303,0.009072
741,0.213338,0.13303,0.009072
742,0.230439,-0.040364,0.027769
743,0.298845,-0.15596,-0.009625
744,0.281743,-0.194492,-0.065715
745,-0.094486,-0.367885,-0.047018
746,0.11073,-0.348619,0.065162
747,0.059426,-0.252289,0.027769
748,-0.351006,-0.290821,-0.028322
749,-0.008979,-0.425683,-0.065715
750,-0.077385,-0.329353,0.046465
751,0.144933,-0.252289,0.046465
752,0.076527,-0.656875,-0.047018
753,0.025223,-0.406417,-0.103109
754,-0.316804,0.383488,-0.028322
755,-0.368108,0.460552,-0.009625
756,-0.162891,0.479818,-0.009625
757,0.350149,0.306424,0.009072
758,0.418554,-0.271555,0.046465
759,0.469858,-0.830269,0.102556
760,0.008122,-1.080727,0.046465
761,-0.14579,-0.811003,-0.009625
762,-0.539121,-0.406417,-0.103109
763,-0.214196,0.499084,-0.009625
764,0.127831,0.730276,0.065162
765,0.914493,0.248626,0.009072
766,0.880291,-0.252289,-0.121806
767,-0.14579,-0.233024,-0.140502
768,-0.846945,0.537616,0.009072
769,-0.248398,1.19266,0.083859
770,-0.14579,1.077064,-0.009625
771,0.042325,0.768808,-0.009625
772,-0.316804,0.576148,0.046465
773,-0.197094,0.287158,0.009072
774,-0.197094,0.113764,0.009072
775,-0.128689,-0.001832,0.027769
776,-0.060283,-0.021098,0.009072
777,-0.026081,-0.001832,-0.009625
778,0.247541,-0.05963,0.009072
779,0.401453,-0.05963,0.083859
780,0.281743,-0.406417,0.083859
781,0.11073,-0.849535,0.009072
782,-0.282601,-0.945865,-0.009625
783,-0.487817,-1.022929,-0.047018
784,-0.624628,-1.003663,-0.047018
785,-0.077385,-0.483481,-0.065715
786,0.315946,-0.522013,-0.084412
787,0.401453,-0.637609,-0.065715
788,0.504061,0.267892,-0.009625
789,0.606669,0.13303,-0.009625
790,0.48696,0.13303,-0.028322
791,0.144933,0.537616,-0.047018
792,-0.624628,1.269724,0.009072
793,-0.470716,1.154128,0.046465
794,-0.179993,1.09633,0.046465
795,0.247541,0.479818,0.083859
796,0.401453,0.210094,0.065162
797,-0.40231,0.22936,0.065162
798,-0.299702,-0.175226,0.009072
799,0.213338,-0.271555,-0.028322
800,0.213338,-0.464215,0.009072
801,-0.333905,-0.984397,0.009072
802,-0.094486,-0.926599,0.009072
803,-0.128689,-0.907333,-0.084412
804,-0.197094,-0.387151,-0.047018
805,0.042325,0.287158,0.009072
806,0.127831,0.441286,0.046465
807,-0.14579,0.22936,0.009072
808,-0.248398,-0.329353,-0.009625
809,-0.2655,0.248626,-0.028322
810,-0.094486,0.749542,-0.028322
811,0.042325,0.61468,-0.009625
812,0.144933,0.653212,-0.009625
813,-0.060283,0.441286,0.027769
814,0.127831,0.32569,0.083859
815,0.162034,-0.040364,0.065162
816,0.059426,-0.348619,0.027769
817,-0.026081,-0.348619,-0.047018
818,0.144933,-0.252289,-0.028322
819,0.333048,-0.271555,-0.028322
820,0.264642,-0.425683,-0.065715
821,0.333048,-0.483481,-0.103109
822,0.315946,-0.175226,0.027769
823,-0.197094,0.113764,0.065162
824,0.452757,0.61468,0.009072
825,0.504061,0.576148,0.009072
826,0.264642,0.267892,0.009072
827,-0.590425,0.499084,0.009072
828,-0.333905,0.441286,0.046465
829,-0.52202,0.248626,0.027769
830,-0.761439,-0.001832,-0.028322
831,-0.368108,-0.098162,-0.009625
832,-0.128689,-0.078896,-0.009625
833,0.025223,-0.001832,-0.009625
834,-0.026081,0.017434,0.027769
835,-0.077385,-0.117428,0.046465
836,-0.111587,-0.387151,0.083859
837,-0.008979,-0.560545,0.083859
838,0.384352,-0.811003,0.027769
839,0.504061,-0.637609,-0.065715
840,0.230439,-0.522013,-0.140502
841,-0.094486,-0.387151,-0.140502
842,0.11073,0.267892,-0.009625
843,0.008122,0.922936,0.046465
844,-0.231297,0.90367,0.009072
845,-0.368108,0.267892,-0.009625
846,-0.368108,-0.078896,0.009072
847,-0.043182,-0.05963,0.027769
848,0.093629,0.22936,0.046465
849,0.059426,0.556882,0.046465
850,-0.008979,0.383488,0.027769
851,0.196237,0.113764,0.009072
852,0.213338,-0.15596,0.027769
853,0.11073,-0.425683,-0.028322
854,-0.128689,-0.849535,-0.047018
855,-0.077385,-1.157791,-0.028322
856,-0.060283,-0.907333,-0.009625
857,-0.231297,-0.579811,-0.103109
858,0.11073,-0.001832,-0.028322
859,0.74348,0.556882,0.083859
860,1.068405,0.980734,0.083859
861,0.093629,0.22936,0.009072
862,-0.675932,0.248626,-0.009625
863,-0.419412,0.51835,-0.009625
864,-0.214196,0.576148,-0.009625
865,-0.299702,0.402754,-0.009625
866,-0.214196,0.075232,-0.009625
867,0.025223,-0.387151,0.046465
868,0.213338,-0.714673,0.027769
869,0.418554,-0.945865,-0.047018
870,0.144933,-0.541279,-0.009625
871,0.059426,-0.233024,0.046465
872,0.179135,-0.753205,0.027769
873,0.144933,-1.215589,-0.028322
874,0.247541,-0.714673,-0.047018
875,-0.111587,-0.271555,-0.084412
876,-0.008979,0.961468,-0.009625
877,-0.14579,1.366054,-0.009625
878,-0.333905,1.19266,-0.009625
879,-0.607526,0.845872,0.027769
880,-0.179993,1.211926,0.083859
881,0.469858,1.09633,0.102556
882,0.657973,0.42202,0.009072
883,-0.179993,-0.021098,-0.009625
884,-0.214196,-0.213758,0.009072
885,-0.40231,-0.271555,-0.047018
886,0.025223,-0.252289,-0.047018
887,-0.077385,-0.175226,0.009072
888,-0.214196,0.13303,-0.009625
889,-0.060283,-0.05963,0.009072
890,0.179135,-0.233024,-0.028322
891,0.093629,-0.175226,0.027769
892,-0.111587,-0.483481,0.027769
893,-0.52202,-0.733939,0.027769
894,0.059426,-0.656875,0.027769
895,0.48696,-0.791737,0.027769
896,0.657973,-0.502747,-0.047018
897,0.230439,-0.136694,-0.140502
898,0.230439,0.22936,-0.084412
899,-0.248398,1.077064,0.009072
900,-0.333905,0.865138,0.009072
901,-0.487817,0.210094,0.027769
902,-0.52202,0.0367,0.027769
903,-0.214196,0.017434,0.046465
904,0.281743,-0.522013,-0.028322
905,0.606669,-0.522013,-0.028322
906,0.025223,-0.233024,-0.047018
907,-0.026081,0.22936,0.027769
908,-0.008979,0.190828,0.083859
909,-0.14579,-0.098162,0.027769
910,-0.504918,-0.136694,-0.103109
911,0.264642,0.537616,-0.047018
912,1.324926,0.42202,-0.009625
913,0.692176,0.22936,0.027769
914,-0.179993,-0.05963,0.027769
915,-0.641729,-0.040364,0.027769
916,-0.128689,0.248626,0.046465
917,-0.094486,0.210094,0.065162
918,-0.453614,-0.252289,0.046465
919,-0.40231,-0.791737,-0.028322
920,-0.333905,-0.483481,-0.084412
921,0.042325,-0.021098,-0.065715
922,0.025223,-0.001832,-0.047018
923,0.11073,0.287158,0.046465
924,0.247541,0.51835,0.046465
925,-0.299702,0.267892,0.027769
926,-0.111587,0.22936,-0.009625
927,0.076527,0.267892,0.027769
928,0.230439,0.248626,0.046465
929,0.093629,-0.021098,0.027769
930,0.315946,-0.15596,-0.065715
931,0.298845,-0.136694,-0.065715
932,0.162034,-0.348619,-0.084412
933,-0.026081,-0.348619,-0.028322
934,-0.316804,-0.329353,0.009072
935,-0.026081,-0.310087,0.027769
936,-0.214196,-0.098162,0.027769
937,-0.2655,-0.001832,0.027769
938,-0.179993,-0.05963,0.083859
939,-0.14579,-0.136694,0.046465
940,-0.111587,-0.695407,-0.009625
941,-0.077385,-0.406417,-0.009625
942,0.025223,0.383488,-0.009625
943,0.076527,1.154128,0.027769
944,0.076527,0.826606,0.046465
945,0.042325,0.402754,0.009072
946,0.162034,0.075232,-0.009625
947,0.401453,0.094498,-0.009625
948,0.076527,0.094498,0.046465
949,-0.128689,0.0367,0.027769
950,-0.2655,-0.001832,-0.009625
951,-0.14579,-0.001832,0.009072
952,-0.060283,-0.040364,-0.009625
953,-0.043182,-0.233024,-0.009625
954,-0.111587,-0.271555,-0.009625
955,0.008122,-0.271555,0.009072
956,0.093629,-0.425683,-0.009625
957,0.230439,-0.213758,0.009072
958,0.008122,-0.233024,0.046465
959,-0.026081,-0.290821,0.083859
960,-0.282601,-0.348619,0.009072
961,0.281743,-0.078896,-0.103109
962,0.333048,-0.05963,-0.103109
963,0.11073,-0.15596,-0.065715
964,-0.214196,-0.252289,0.009072
965,-0.128689,-0.15596,0.009072
966,-0.162891,0.171562,-0.028322
967,-0.077385,0.691744,-0.047018
968,-0.060283,0.884404,-0.047018
969,0.144933,0.460552,-0.028322
970,0.025223,0.248626,0.009072
971,0.162034,0.171562,0.046465
972,0.36725,0.152296,0.009072
973,0.333048,0.075232,0.027769
974,-0.14579,0.017434,-0.009625
975,-0.351006,-0.021098,-0.009625
976,-0.043182,0.0367,0.027769
977,-0.128689,-0.001832,0.009072
978,-0.2655,-0.001832,0.046465
979,-0.026081,-0.05963,0.009072
980,0.076527,-0.194492,-0.009625
981,0.076527,-0.213758,0.027769
982,-0.248398,-0.406417,0.065162
983,-0.111587,-0.387151,0.027769
984,-0.043182,-0.175226,-0.047018
985,-0.094486,-0.136694,-0.047018
986,0.042325,0.22936,-0.028322
987,0.144933,0.364222,-0.009625
988,0.059426,0.267892,-0.028322
989,-0.026081,0.075232,-0.028322
990,-0.008979,-0.021098,-0.047018
991,-0.043182,0.017434,-0.009625
992,-0.060283,0.017434,0.009072
993,0.093629,-0.040364,0.046465
994,0.247541,-0.098162,0.027769
995,0.144933,-0.15596,-0.009625
996,-0.14579,-0.271555,-0.009625
997,-0.077385,-0.310087,-0.065715
998,0.025223,-0.406417,-0.047018
999,0.059426,-0.271555,-0.028322
1000,0.008122,-0.175226,-0.028322
1001,-0.094486,-0.040364,-0.009625
1002,-0.026081,0.075232,0.009072
1003,0.093629,0.22936,0.065162
1004,0.315946,0.075232,0.046465
1005,0.264642,-0.136694,0.046465
1006,-0.179993,-0.194492,0.009072
1007,-0.197094,0.171562,0.046465
1008,-0.214196,0.479818,0.046465
1009,0.008122,0.441286,0.046465
1010,0.298845,0.441286,0.027769
1011,0.247541,0.22936,0.009072
1012,-0.128689,-0.117428,0.027769
1013,-0.385209,-0.348619,-0.009625
1014,-0.248398,-0.367885,0.027769
1015,-0.14579,-0.252289,0.027769
1016,-0.077385,-0.078896,0.027769
1017,0.059426,0.094498,0.027769
1018,0.11073,0.190828,0.027769
1019,0.11073,0.210094,-0.009625
1020,0.025223,0.22936,-0.028322
1021,0.025223,0.267892,-0.047018
1022,0.025223,0.344956,-0.047018
1023,0.008122,0.152296,-0.065715
1024,-0.008979,-0.040364,-0.084412
1025,-0.026081,-0.078896,-0.065715
1026,-0.026081,-0.117428,-0.028322
1027,-0.008979,-0.15596,-0.009625
1028,-0.060283,-0.367885,-0.009625
1029,-0.111587,-0.483481,-0.028322
1030,-0.162891,-0.271555,-0.028322
1031,0.008122,0.248626,0.009072
1032,0.025223,0.537616,0.009072
1033,0.025223,0.306424,-0.028322
1034,0.127831,-0.040364,0.027769
1035,0.11073,-0.194492,0.027769
1036,0.179135,-0.271555,-0.009625
1037,0.333048,-0.194492,0.027769
1038,0.025223,0.075232,0.083859
1039,0.093629,0.287158,0.009072
1040,-0.179993,0.267892,0.027769
1041,-0.197094,0.248626,0.027769
1042,-0.026081,0.248626,0.046465
1043,-0.043182,0.13303,0.009072
1044,-0.060283,-0.001832,0.046465
1045,0.059426,-0.021098,0.102556
1046,0.11073,-0.040364,0.083859
1047,0.093629,0.017434,0.083859
1048,-0.077385,0.0367,0.065162
1049,-0.111587,-0.040364,0.065162
1050,-0.060283,-0.021098,0.046465
1051,-0.026081,-0.021098,0.027769
1052,-0.008979,-0.05963,-0.028322
1053,-0.008979,-0.194492,-0.065715
1054,-0.043182,-0.233024,-0.159199
1055,-0.008979,-0.15596,-0.177896
1056,-0.026081,-0.136694,-0.121806
1057,0.008122,0.171562,-0.084412
1058,0.008122,0.094498,0.009072
1059,-0.008979,0.075232,0.046465
1060,0.008122,0.075232,0.027769
1061,0.042325,0.075232,0.027769
1062,0.059426,0.017434,0.065162
1063,-0.008979,-0.001832,0.009072
1064,0.093629,-0.001832,0.009072
1065,-0.060283,-0.021098,0.065162
1066,-0.060283,-0.021098,0.083859
1067,-0.060283,-0.05963,0.102556
1068,-0.008979,-0.098162,0.046465
1069,-0.008979,-0.117428,-0.009625
1070,0.008122,-0.021098,0.009072
1071,-0.008979,-0.021098,0.083859
1072,0.025223,0.13303,0.046465
1073,0.008122,0.094498,0.027769
1074,-0.026081,-0.001832,0.009072
1075,-0.008979,-0.021098,-0.009625
1076,-0.008979,-0.05963,0.009072
1077,-0.008979,-0.021098,0.009072
1078,-0.008979,-0.021098,0.046465
1079,-0.026081,0.017434,0.009072
1080,-0.026081,0.055966,-0.065715
1081,-0.026081,-0.001832,-0.028322
1082,-0.008979,-0.098162,0.046465
1083,-0.008979,-0.175226,0.046465
1084,-0.060283,-0.387151,-0.009625
1085,-0.043182,-0.444949,-0.028322
1086,-0.008979,-0.637609,-0.084412
1087,-0.008979,-0.599077,-0.103109
1088,-0.026081,-0.618343,-0.159199
1089,0.008122,-0.329353,-0.140502
1090,0.059426,0.383488,-0.103109
1091,0.144933,0.537616,-0.047018
1092,0.093629,0.402754,-0.009625
1093,0.076527,0.51835,0.009072
1094,-0.077385,0.537616,-0.009625
1095,0.042325,0.441286,-0.028322
1096,0.162034,0.653212,-0.009625
1097,0.179135,0.537616,-0.009625
1098,-0.026081,0.287158,0.027769
1099,-0.111587,0.094498,0.009072
1100,0.008122,-0.136694,0.027769
1101,0.025223,-0.175226,0.065162
1102,-0.026081,-0.117428,0.065162
1103,-0.094486,-0.098162,0.046465
1104,-0.008979,0.017434,0.027769
1105,-0.060283,0.344956,0.009072
1106,0.025223,0.152296,0.027769
1107,0.127831,0.113764,0.065162
1108,0.093629,0.075232,0.083859
1109,-0.077385,-0.001832,0.065162
1110,-0.128689,-0.05963,0.027769
1111,-0.077385,-0.001832,0.027769
1112,-0.043182,-0.021098,0.046465
1113,0.008122,-0.040364,0.027769
1114,0.059426,-0.001832,0.027769
1115,0.008122,-0.05963,0.009072
1116,-0.008979,-0.136694,-0.028322
1117,-0.026081,-0.15596,-0.103109
1118,-0.026081,-0.194492,-0.103109
1119,-0.008979,-0.15596,-0.028322
1120,-0.008979,-0.040364,-0.028322
1121,0.059426,0.13303,-0.047018
1122,0.008122,0.094498,-0.065715
1123,0.025223,0.017434,-0.009625
1124,-0.008979,-0.021098,0.065162
1125,0.008122,-0.078896,0.083859
1126,-0.008979,-0.021098,0.065162
1127,0.008122,0.0367,0.102556
1128,-0.008979,-0.001832,0.065162
1129,-0.026081,-0.001832,0.102556
1130,0.008122,-0.001832,0.102556
1131,-0.008979,-0.021098,0.102556
1132,-0.008979,0.017434,0.065162
1133,0.025223,0.017434,0.027769
1134,0.008122,0.017434,0.027769
1135,0.008122,-0.040364,0.027769
1136,-0.008979,-0.001832,0.046465
1137,-0.008979,0.017434,0.027769
1138,-0.043182,-0.05963,-0.084412
1139,0.008122,-0.194492,-0.065715
1140,-0.026081,-0.444949,-0.103109
1141,-0.008979,-0.541279,-0.121806
1142,-0.026081,-0.483481,-0.084412
1143,-0.008979,-0.310087,-0.103109
1144,0.008122,0.075232,-0.103109
1145,0.059426,0.267892,-0.121806
1146,0.008122,0.210094,-0.121806
1147,-0.026081,0.171562,-0.028322
1148,-0.008979,0.32569,0.065162
1149,-0.026081,0.267892,0.065162
1150,0.059426,0.267892,0.065162
1151,0.059426,0.210094,0.083859
1152,0.042325,0.171562,0.102556
1153,-0.008979,0.171562,0.139949
1154,-0.008979,0.210094,0.102556
1155,-0.008979,0.094498,0.102556
1156,-0.060283,-0.021098,0.196039
1157,-0.008979,0.017434,0.214736
1158,0.008122,0.075232,0.158646
1159,0.008122,0.0367,0.083859
1160,-0.026081,-0.05963,0.027769
1161,-0.043182,-0.040364,-0.009625
1162,-0.008979,-0.040364,-0.121806
1163,-0.008979,-0.05963,-0.215289
1164,0.025223,0.017434,-0.252683
1165,0.025223,0.017434,-0.290076
1166,0.025223,-0.001832,-0.252683
1167,0.025223,-0.15596,-0.121806
1168,-0.008979,-0.252289,-0.084412
1169,-0.026081,-0.290821,-0.009625
1170,-0.026081,-0.213758,0.027769
1171,-0.043182,-0.021098,0.046465
1172,-0.008979,0.13303,0.083859
1173,0.025223,0.13303,0.102556
1174,0.025223,0.22936,0.139949
1175,0.008122,0.075232,0.177343
1176,-0.008979,0.017434,0.139949
1177,-0.008979,-0.078896,0.102556
1178,-0.008979,-0.021098,0.102556
1179,0.008122,0.075232,0.083859
1180,-0.008979,-0.175226,0.009072
1181,-0.008979,-0.194492,-0.159199
1182,0.008122,-0.098162,-0.215289
1183,0.025223,-0.001832,-0.177896
1184,0.008122,0.32569,-0.065715
1185,0.008122,0.13303,-0.065715
1186,0.025223,-0.05963,-0.028322
1187,0.008122,-0.098162,-0.065715
1188,-0.026081,-0.001832,-0.047018
1189,-0.026081,0.0367,0.009072
1190,0.025223,0.094498,0.009072
1191,0.076527,0.13303,0.027769
1192,0.059426,0.055966,0.009072
1193,0.042325,0.017434,0.027769
1194,0.042325,0.017434,0.027769
1195,0.008122,0.055966,-0.009625
1196,0.059426,0.094498,-0.047018
1197,0.059426,-0.078896,-0.047018
1198,-0.008979,-0.233024,-0.047018
1199,-0.094486,-0.271555,-0.009625
1200,-0.214196,-0.252289,0.046465
1201,-0.026081,-0.175226,0.083859
1202,0.076527,-0.194492,0.065162
1203,0.008122,-0.213758,0.065162
1204,-0.008979,0.017434,0.102556
1205,0.008122,0.113764,0.009072
1206,-0.008979,0.075232,-0.047018
1207,-0.008979,0.152296,-0.047018
1208,0.025223,0.383488,-0.009625
1209,0.008122,0.306424,0.009072
1210,-0.026081,0.055966,0.027769
1211,-0.026081,-0.001832,0.065162
1212,0.025223,0.075232,0.027769
1213,0.008122,0.075232,0.046465
1214,-0.008979,0.075232,0.065162
1215,0.008122,0.113764,0.046465
1216,0.025223,0.094498,0.046465
1217,0.025223,0.055966,-0.009625
1218,-0.008979,-0.021098,-0.065715
1219,0.008122,-0.040364,-0.065715
1220,0.025223,0.017434,-0.121806
1221,0.008122,-0.040364,-0.065715
1222,-0.008979,-0.136694,-0.009625
1223,-0.008979,-0.15596,-0.028322
1224,-0.008979,-0.117428,0.009072
1225,-0.008979,-0.05963,0.009072
1226,0.025223,0.094498,0.009072
1227,0.025223,0.248626,0.027769
1228,0.008122,0.13303,0.046465
1229,0.008122,0.0367,-0.009625
1230,0.008122,-0.001832,-0.009625
1231,-0.008979,-0.098162,-0.047018
1232,-0.008979,-0.15596,0.009072
1233,-0.026081,-0.175226,0.046465
1234,-0.026081,-0.05963,0.102556
1235,-0.026081,0.0367,0.083859
1236,-0.008979,0.210094,-0.028322
1237,0.008122,0.075232,-0.047018
1238,0.008122,0.017434,-0.084412
1239,-0.008979,-0.021098,-0.065715
1240,0.025223,-0.040364,-0.009625
1241,0.025223,0.075232,-0.009625
1242,0.025223,0.055966,-0.047018
1243,0.008122,-0.021098,-0.028322
1244,0.008122,-0.001832,0.027769
1245,-0.008979,-0.001832,0.083859
1246,-0.026081,0.017434,0.121252
1247,0.008122,0.017434,0.102556
1248,-0.008979,-0.078896,0.102556
1249,0.008122,-0.040364,0.121252
1250,-0.008979,-0.040364,0.102556
1251,-0.026081,-0.040364,-0.009625
1252,-0.008979,-0.001832,-0.084412
1253,-0.008979,-0.040364,-0.065715
1254,-0.008979,-0.136694,-0.028322
1255,-0.043182,-0.194492,-0.028322
1256,-0.043182,-0.136694,-0.084412
1257,-0.026081,-0.117428,-0.065715
1258,-0.008979,-0.040364,-0.028322
1259,0.008122,0.075232,-0.009625
1260,0.042325,0.113764,0.009072
1261,0.042325,0.152296,0.102556
1262,-0.008979,0.113764,0.083859
1263,-0.008979,0.094498,0.046465
1264,0.008122,0.075232,0.009072
1265,0.008122,-0.001832,-0.065715
1266,0.025223,-0.078896,-0.103109
1267,-0.026081,-0.271555,-0.177896
1268,-0.026081,-0.599077,-0.196593
1269,-0.026081,-0.676141,-0.159199
1270,-0.043182,-0.522013,-0.028322
1271,-0.026081,-0.175226,0.046465
1272,0.025223,0.576148,0.046465
1273,0.059426,0.865138,0.065162
1274,0.076527,0.653212,0.102556
1275,0.008122,0.306424,0.158646
1276,0.025223,0.22936,0.196039
1277,0.025223,0.248626,0.177343
1278,-0.008979,0.210094,0.102556
1279,0.008122,0.171562,0.009072
1280,0.025223,0.113764,-0.028322
1281,0.008122,0.0367,-0.103109
1282,0.008122,0.055966,-0.140502
1283,0.008122,-0.001832,-0.121806
1284,0.008122,-0.040364,-0.103109
1285,0.008122,-0.001832,-0.047018
1286,-0.008979,-0.098162,-0.028322
1287,-0.043182,-0.233024,-0.009625
1288,-0.026081,-0.290821,-0.009625
1289,-0.026081,-0.252289,-0.009625
1290,-0.043182,-0.252289,-0.084412
1291,-0.043182,-0.078896,-0.047018
1292,-0.008979,0.171562,-0.047018
1293,0.008122,0.190828,-0.047018
1294,0.025223,0.22936,-0.047018
1295,-0.008979,0.13303,0.027769
1296,-0.008979,0.075232,-0.028322
1297,-0.008979,-0.001832,-0.028322
1298,-0.026081,-0.05963,0.009072
1299,0.008122,-0.040364,0.027769
1300,-0.008979,-0.098162,0.027769
1301,-0.008979,-0.040364,0.065162
1302,-0.008979,0.075232,0.102556
1303,0.008122,0.0367,0.083859
1304,0.025223,0.055966,0.046465
1305,0.008122,0.017434,0.027769
1306,0.008122,-0.05963,0.102556
1307,-0.026081,-0.05963,0.139949
1308,-0.008979,-0.040364,0.139949
1309,-0.026081,-0.05963,0.102556
1310,-0.026081,-0.040364,0.009072
1311,0.008122,-0.040364,0.009072
1312,0.008122,0.017434,0.009072
1313,-0.008979,-0.021098,-0.028322
1314,0.008122,-0.05963,-0.009625
1315,0.025223,-0.05963,0.027769
1316,0.042325,-0.040364,0.065162
1317,0.025223,-0.021098,0.083859
1318,0.008122,0.0367,0.065162
1319,0.008122,0.113764,0.065162
1320,0.042325,0.13303,0.046465
1321,0.008122,0.075232,-0.065715
1322,0.008122,0.0367,-0.159199
1323,0.008122,-0.001832,-0.103109
1324,0.008122,-0.098162,0.046465
1325,-0.026081,-0.098162,0.196039
1326,-0.008979,-0.078896,0.196039
1327,-0.026081,-0.05963,0.102556
1328,-0.026081,-0.040364,-0.009625
1329,-0.008979,0.017434,-0.103109
1330,0.008122,0.075232,-0.140502
1331,0.008122,0.0367,-0.159199
1332,0.008122,0.017434,-0.177896
1333,0.025223,-0.040364,-0.177896
1334,0.008122,-0.078896,-0.177896
1335,0.025223,-0.040364,-0.065715
1336,-0.008979,-0.078896,-0.028322
1337,0.008122,-0.117428,-0.065715
1338,-0.008979,-0.233024,-0.084412
1339,-0.060283,-0.233024,-0.121806
1340,-0.026081,-0.05963,-0.065715
1341,0.008122,0.13303,-0.065715
1342,0.093629,0.190828,-0.028322
1343,0.025223,0.210094,0.009072
1344,0.025223,0.113764,0.046465
1345,0.008122,0.13303,0.139949
1346,0.008122,0.113764,0.177343
1347,0.008122,0.22936,0.196039
1348,0.025223,0.152296,0.158646
1349,0.025223,-0.021098,0.102556
1350,-0.008979,-0.098162,-0.009625
1351,-0.008979,-0.098162,-0.121806
1352,-0.008979,-0.078896,-0.159199
1353,-0.008979,-0.001832,-0.103109
1354,0.025223,0.113764,-0.028322
1355,0.008122,0.113764,0.046465
1356,0.008122,0.0367,0.083859
1357,0.008122,0.0367,0.083859
1358,0.025223,0.055966,0.065162
1359,0.008122,0.017434,0.046465
1360,-0.008979,0.0367,0.027769
1361,-0.008979,0.055966,-0.028322
1362,-0.008979,0.017434,-0.047018
1363,-0.008979,-0.021098,-0.047018
1364,-0.026081,-0.021098,0.009072
1365,-0.008979,-0.021098,0.102556
1366,-0.008979,-0.021098,0.102556
1367,0.008122,-0.021098,0.065162
1368,-0.008979,-0.040364,0.046465
1369,-0.008979,-0.098162,0.065162
1370,0.008122,-0.117428,0.009072
1371,0.008122,-0.194492,-0.065715
1372,0.008122,-0.233024,-0.159199
1373,-0.043182,-0.175226,-0.177896
1374,-0.043182,-0.098162,-0.121806
1375,0.008122,0.152296,-0.047018
1376,0.025223,0.22936,0.009072
1377,0.025223,0.248626,0.009072
1378,0.008122,0.113764,0.027769
1379,0.008122,0.094498,0.065162
1380,0.025223,0.075232,0.027769
1381,-0.008979,-0.001832,-0.028322
1382,-0.008979,-0.001832,-0.009625
1383,0.008122,0.075232,-0.009625
1384,0.008122,0.0367,-0.047018
1385,-0.008979,-0.001832,-0.028322
1386,0.008122,-0.001832,-0.028322
1387,-0.008979,-0.021098,-0.009625
1388,-0.008979,0.055966,-0.065715
1389,0.008122,0.0367,-0.065715
1390,0.008122,-0.040364,-0.009625
1391,0.008122,-0.194492,0.027769
1392,-0.026081,-0.175226,0.046465
1393,-0.008979,-0.098162,0.046465
1394,-0.043182,-0.040364,0.027769
1395,-0.026081,0.094498,0.009072
1396,-0.008979,0.210094,0.009072
1397,0.025223,0.190828,-0.009625
1398,-0.008979,0.094498,0.027769
1399,0.008122,-0.001832,0.046465
1400,-0.008979,-0.021098,0.046465
1401,-0.008979,-0.001832,0.139949
1402,0.008122,-0.05963,0.233433
1403,-0.008979,-0.021098,0.25213
1404,0.008122,-0.021098,0.30822
1405,0.008122,-0.001832,0.30822
1406,-0.008979,0.017434,0.139949
1407,-0.008979,0.055966,-0.047018
1408,-0.008979,0.075232,-0.177896
1409,0.008122,0.055966,-0.252683
1410,0.042325,-0.021098,-0.215289
1411,0.008122,-0.175226,-0.140502
1412,-0.008979,-0.194492,-0.121806
1413,-0.043182,-0.175226,-0.140502
1414,-0.026081,-0.213758,-0.140502
1415,-0.008979,-0.05963,-0.159199
1416,0.008122,0.055966,-0.121806
1417,0.008122,0.13303,-0.103109
1418,0.008122,0.22936,-0.121806
1419,0.008122,0.190828,-0.140502
1420,0.008122,0.13303,-0.047018
1421,0.008122,0.075232,0.046465
1422,-0.008979,0.0367,0.139949
1423,-0.008979,0.0367,0.196039
1424,0.008122,-0.001832,0.233433
1425,-0.008979,-0.021098,0.270826
1426,-0.008979,-0.021098,0.233433
1427,-0.008979,-0.021098,0.102556
1428,-0.008979,0.017434,-0.009625
1429,0.008122,0.075232,-0.065715
1430,0.008122,0.094498,-0.084412
1431,-0.008979,0.0367,-0.177896
1432,-0.008979,-0.001832,-0.159199
1433,-0.008979,-0.001832,-0.065715
1434,0.025223,-0.001832,0.065162
1435,0.025223,-0.040364,0.102556
1436,0.008122,-0.040364,0.121252
1437,-0.008979,-0.021098,0.065162
1438,0.008122,-0.021098,-0.028322
1439,-0.008979,0.017434,-0.084412
1440,-0.008979,-0.001832,-0.159199
1441,-0.026081,-0.05963,-0.121806
1442,-0.008979,-0.098162,-0.065715
1443,0.008122,-0.136694,-0.047018
1444,-0.008979,-0.136694,-0.065715
1445,-0.026081,-0.078896,-0.047018
1446,-0.026081,0.0367,0.046465
1447,-0.008979,0.113764,0.083859
1448,0.008122,0.171562,0.102556
1449,-0.008979,0.0367,0.158646
1450,-0.008979,0.055966,0.102556
1451,-0.008979,0.075232,0.027769
1452,0.008122,0.094498,-0.047018
1453,0.008122,0.055966,-0.065715
1454,0.042325,0.075232,-0.028322
1455,0.025223,0.017434,-0.009625
1456,0.008122,0.0367,-0.028322
1457,0.008122,0.017434,-0.009625
1458,0.008122,-0.021098,-0.028322
1459,0.008122,-0.021098,-0.103109
1460,-0.008979,-0.05963,-0.159199
1461,0.008122,-0.078896,-0.159199
1462,-0.043182,-0.040364,-0.103109
1463,-0.026081,-0.001832,-0.047018
1464,-0.026081,0.055966,0.009072
1465,-0.008979,0.0367,0.027769
1466,-0.008979,-0.001832,0.027769
1467,0.008122,-0.021098,0.027769
1468,0.008122,0.017434,0.083859
1469,-0.008979,-0.021098,0.102556
1470,-0.008979,0.017434,0.065162
1471,0.008122,0.0367,0.083859
1472,-0.008979,0.017434,0.027769
1473,0.008122,-0.001832,0.009072
1474,-0.008979,-0.001832,0.009072
1475,0.008122,0.017434,-0.009625
1476,-0.008979,0.017434,-0.009625
1477,-0.008979,0.017434,0.027769
1478,0.008122,-0.021098,0.027769
1479,-0.008979,-0.001832,0.083859
1480,-0.008979,-0.001832,0.102556
1481,-0.008979,0.017434,0.065162
1482,0.008122,-0.001832,0.046465
1483,-0.008979,-0.05963,-0.047018
1484,-0.026081,-0.05963,-0.121806
1485,-0.008979,-0.136694,-0.159199
1486,-0.008979,-0.117428,-0.121806
1487,0.008122,-0.098162,-0.047018
1488,0.025223,-0.021098,-0.065715
1489,0.008122,0.017434,-0.065715
1490,0.008122,0.017434,-0.028322
1491,-0.008979,0.094498,0.046465
1492,-0.008979,0.075232,0.009072
1493,0.008122,0.017434,0.009072
1494,0.008122,0.075232,0.046465
1495,0.008122,0.075232,0.065162
1496,-0.008979,0.055966,0.027769
1497,0.008122,0.055966,0.009072
1498,-0.008979,0.055966,0.046465
1499,-0.008979,0.017434,0.046465
1500,0.008122,0.017434,0.027769
1501,0.008122,0.0367,0.046465
1502,0.008122,-0.001832,0.027769
1503,0.008122,-0.001832,-0.009625
1504,0.025223,0.017434,0.009072
1505,0.008122,-0.021098,0.046465
1506,-0.008979,-0.021098,-0.028322
1507,-0.026081,-0.040364,-0.009625
1508,-0.026081,-0.001832,0.009072
1509,-0.026081,0.017434,0.102556
1510,0.025223,0.017434,0.158646
1511,0.008122,-0.001832,0.196039
1512,0.008122,0.0367,0.158646
1513,0.025223,0.0367,-0.047018
1514,0.008122,0.0367,-0.121806
1515,0.025223,0.0367,-0.121806
1516,0.008122,-0.021098,-0.140502
1517,-0.026081,-0.001832,-0.103109
1518,0.008122,-0.001832,-0.103109
1519,-0.026081,0.017434,-0.215289
1520,-0.008979,-0.040364,-0.159199
1521,-0.008979,-0.040364,-0.028322
1522,-0.008979,-0.001832,0.027769
1523,0.025223,-0.040364,0.065162
1524,0.008122,-0.001832,0.083859
1525,-0.026081,-0.078896,-0.009625
1526,-0.008979,-0.117428,-0.009625
1527,0.008122,-0.040364,-0.047018
1528,-0.008979,-0.021098,-0.103109
1529,-0.008979,-0.040364,-0.084412
1530,0.008122,-0.021098,0.027769
1531,0.025223,-0.040364,0.009072
1532,-0.026081,-0.136694,0.009072
1533,-0.026081,-0.15596,0.027769
1534,-0.008979,-0.117428,0.065162
1535,0.008122,-0.078896,0.046465
1536,0.008122,0.0367,0.009072
1537,0.008122,0.113764,-0.028322
1538,0.025223,0.210094,-0.028322
1539,-0.008979,0.210094,-0.028322
1540,-0.008979,0.094498,-0.065715
1541,0.008122,0.113764,-0.047018
1542,0.008122,0.152296,0.009072
1543,0.025223,0.13303,0.139949
1544,0.008122,0.13303,0.214736
1545,0.025223,0.094498,0.214736
1546,0.008122,0.017434,0.196039
1547,0.008122,0.017434,0.102556
1548,0.008122,0.0367,-0.028322
1549,0.008122,0.0367,-0.121806
1550,0.025223,-0.001832,-0.196593
1551,0.025223,0.017434,-0.177896
1552,0.008122,-0.021098,-0.084412
1553,-0.043182,-0.040364,-0.047018
1554,-0.008979,-0.001832,0.027769
1555,-0.008979,0.017434,0.027769
1556,-0.008979,-0.001832,0.027769
1557,0.025223,-0.001832,0.027769
1558,0.008122,-0.001832,0.046465
1559,0.008122,0.017434,0.009072
1560,0.008122,-0.021098,-0.028322
1561,-0.008979,-0.021098,-0.065715
1562,-0.008979,-0.040364,-0.065715
1563,-0.008979,-0.05963,-0.047018
1564,-0.008979,-0.05963,-0.047018
1565,0.008122,-0.05963,-0.009625
1566,-0.026081,-0.05963,-0.028322
1567,-0.008979,0.017434,0.046465
1568,0.008122,-0.001832,0.102556
1569,0.025223,0.017434,0.083859
1570,0.008122,0.0367,0.065162
1571,-0.008979,0.017434,0.139949
1572,0.008122,0.0367,0.196039
1573,0.008122,0.0367,0.065162
1574,0.008122,0.055966,-0.009625
1575,-0.008979,0.017434,-0.065715
1576,-0.008979,0.0367,-0.084412
1577,-0.008979,0.0367,-0.028322
1578,-0.008979,-0.001832,0.009072
1579,0.008122,-0.021098,-0.009625
1580,0.008122,-0.001832,0.027769
1581,0.008122,-0.001832,-0.028322
1582,-0.008979,0.017434,-0.065715
1583,0.008122,0.017434,-0.047018
1584,0.008122,-0.001832,-0.047018
1585,0.025223,-0.021098,-0.084412
1586,-0.026081,-0.021098,-0.121806
1587,-0.008979,-0.021098,-0.177896
1588,0.008122,-0.040364,-0.103109
1589,-0.008979,0.017434,-0.009625
1590,-0.008979,-0.001832,0.046465
1591,-0.008979,-0.021098,0.102556
1592,-0.008979,0.017434,0.102556
1593,-0.008979,0.017434,0.083859
1594,-0.026081,-0.021098,0.046465
1595,-0.008979,-0.001832,-0.028322
1596,-0.008979,-0.001832,-0.047018
1597,0.025223,0.055966,-0.009625
1598,0.025223,0.017434,-0.028322
1599,0.025223,-0.001832,-0.103109
1600,0.008122,-0.001832,-0.047018
1601,0.008122,-0.040364,-0.028322
1602,0.008122,-0.001832,0.009072
1603,-0.008979,-0.001832,0.027769
1604,0.025223,-0.001832,0.102556
1605,0.008122,-0.040364,0.083859
1606,-0.008979,-0.175226,0.009072
1607,0.008122,-0.233024,0.009072
1608,0.008122,-0.213758,-0.009625
1609,-0.026081,-0.175226,-0.047018
1610,-0.060283,-0.078896,-0.009625
1611,-0.043182,-0.136694,-0.009625
1612,-0.043182,-0.15596,0.009072
1613,-0.008979,-0.078896,0.046465
1614,0.042325,0.075232,0.027769
1615,0.008122,0.0367,-0.047018
1616,-0.008979,-0.021098,-0.047018
1617,0.008122,0.210094,-0.028322
1618,0.042325,0.344956,-0.028322
1619,0.042325,0.42202,-0.009625
1620,0.042325,0.383488,0.009072
1621,0.025223,0.267892,0.027769
1622,0.008122,0.210094,0.027769
1623,0.042325,0.113764,0.046465
1624,0.042325,0.0367,0.065162
1625,0.025223,0.0367,0.046465
1626,-0.008979,-0.001832,0.027769
1627,0.008122,-0.040364,0.009072
1628,-0.008979,-0.021098,0.009072
1629,0.008122,-0.040364,0.009072
1630,-0.008979,-0.021098,0.027769
1631,0.008122,-0.040364,0.046465
1632,-0.008979,-0.001832,0.083859
1633,-0.008979,0.0367,0.046465
1634,-0.008979,0.0367,-0.009625
1635,0.008122,-0.021098,-0.084412
1636,-0.008979,-0.040364,-0.065715
1637,0.008122,-0.05963,-0.047018
1638,-0.008979,-0.021098,-0.065715
1639,0.008122,-0.021098,-0.028322
1640,0.025223,0.017434,-0.028322
1641,0.008122,0.0367,-0.009625
1642,-0.026081,0.017434,-0.028322
1643,-0.008979,-0.040364,-0.028322
1644,-0.008979,-0.021098,-0.065715
1645,0.008122,-0.001832,-0.047018
1646,0.008122,-0.001832,0.009072
1647,-0.008979,-0.021098,0.046465
1648,-0.008979,-0.001832,0.046465
1649,-0.008979,-0.021098,0.027769
1650,0.008122,-0.040364,0.027769
1651,-0.008979,-0.001832,-0.009625
1652,0.008122,-0.040364,0.009072
1653,0.008122,-0.001832,0.009072
1654,0.008122,-0.001832,-0.028322
1655,-0.008979,-0.001832,-0.009625
1656,-0.008979,-0.001832,-0.009625
1657,-0.008979,-0.021098,-0.065715
1658,-0.008979,-0.021098,-0.047018
1659,-0.008979,-0.021098,0.027769
1660,-0.008979,-0.001832,0.083859
1661,-0.008979,-0.021098,0.065162
1662,0.008122,-0.021098,0.046465
1663,0.008122,-0.001832,0.027769
1664,-0.008979,-0.021098,0.027769
1665,-0.008979,-0.001832,0.009072
1666,-0.008979,0.017434,0.009072
1667,0.008122,0.017434,0.027769
1668,0.025223,-0.001832,0.065162
1669,0.008122,-0.021098,0.083859
1670,-0.026081,-0.021098,0.027769
1671,0.008122,-0.001832,-0.028322
1672,0.008122,0.017434,-0.047018
1673,0.008122,0.055966,-0.047018
1674,0.008122,0.0367,-0.028322
1675,-0.008979,0.055966,-0.028322
1676,0.008122,0.017434,0.009072
1677,0.008122,0.017434,0.046465
1678,0.008122,0.017434,0.027769
1679,0.025223,-0.021098,-0.028322
1680,-0.008979,-0.021098,0.027769
1681,-0.008979,-0.021098,0.009072
1682,-0.008979,-0.040364,-0.047018
1683,-0.008979,-0.040364,-0.028322
1684,0.008122,-0.001832,0.009072
1685,0.008122,-0.021098,-0.047018
1686,0.008122,-0.021098,-0.047018
1687,0.008122,-0.040364,-0.103109
1688,-0.008979,-0.05963,-0.084412
1689,0.008122,-0.117428,-0.065715
1690,-0.026081,-0.136694,-0.009625
1691,-0.026081,-0.175226,0.027769
1692,-0.026081,-0.078896,0.083859
1693,-0.008979,-0.001832,0.102556
1694,0.008122,0.017434,0.065162
1695,-0.008979,0.113764,0.027769
1696,0.025223,0.13303,-0.047018
1697,0.008122,0.094498,-0.084412
1698,0.025223,0.094498,-0.028322
1699,0.042325,-0.001832,-0.028322
1700,0.008122,-0.040364,0.009072
1701,-0.026081,-0.040364,0.009072
1702,-0.008979,-0.001832,0.065162
1703,-0.008979,-0.001832,0.046465
1704,0.008122,0.094498,0.065162
1705,0.008122,0.075232,0.046465
1706,0.042325,0.055966,0.009072
1707,0.042325,-0.078896,-0.084412
1708,-0.008979,-0.175226,-0.047018
1709,-0.008979,-0.271555,-0.009625
1710,-0.008979,-0.252289,0.027769
1711,-0.008979,-0.05963,0.046465
1712,-0.008979,0.055966,0.027769
1713,0.008122,0.22936,0.046465
1714,0.008122,0.364222,0.009072
1715,0.025223,0.32569,0.027769
1716,0.008122,0.22936,0.009072
1717,0.025223,-0.021098,-0.009625
1718,-0.026081,-0.252289,-0.084412
1719,-0.043182,-0.290821,-0.065715
1720,-0.026081,-0.213758,0.009072
1721,-0.026081,-0.098162,0.027769
1722,-0.008979,0.0367,0.065162
1723,0.025223,0.152296,0.065162
1724,0.042325,0.364222,-0.009625
1725,0.042325,0.383488,0.009072
1726,0.042325,0.306424,-0.028322
1727,0.042325,0.13303,0.009072
1728,-0.008979,0.075232,-0.009625
1729,0.008122,0.0367,0.009072
1730,-0.008979,-0.001832,-0.009625
1731,-0.008979,-0.021098,-0.065715
1732,-0.008979,-0.040364,-0.047018
1733,0.008122,-0.021098,-0.009625
1734,0.008122,-0.021098,-0.028322
1735,0.008122,-0.040364,-0.065715
1736,-0.008979,-0.05963,0.046465
1737,-0.008979,-0.001832,0.027769
1738,0.008122,0.017434,0.027769
1739,0.008122,-0.040364,0.009072
1740,0.008122,-0.040364,-0.028322
1741,0.008122,-0.040364,-0.047018
1742,-0.008979,-0.05963,-0.047018
1743,-0.008979,-0.040364,0.009072
1744,-0.008979,-0.040364,0.046465
1745,-0.008979,-0.021098,0.065162
1746,-0.026081,-0.040364,0.065162
1747,-0.008979,-0.021098,0.046465
1748,0.008122,0.017434,-0.009625
1749,0.008122,-0.040364,-0.009625
1750,0.025223,-0.040364,0.009072
1751,-0.008979,-0.021098,0.009072
1752,0.025223,-0.040364,-0.009625
1753,0.008122,-0.001832,-0.009625
1754,0.008122,0.017434,0.046465
1755,0.008122,-0.001832,0.083859
1756,0.008122,-0.040364,0.065162
1757,0.008122,-0.001832,0.027769
1758,-0.008979,-0.021098,-0.009625
1759,-0.008979,-0.021098,0.083859
1760,-0.008979,-0.001832,0.139949
1761,0.008122,-0.05963,0.158646
1762,0.008122,-0.040364,0.009072
1763,-0.008979,-0.021098,-0.009625
1764,-0.008979,-0.001832,-0.084412
1765,0.008122,0.017434,-0.177896
1766,0.008122,0.0367,-0.121806
1767,-0.008979,0.017434,-0.103109
1768,0.008122,0.0367,-0.065715
1769,0.025223,0.0367,0.009072
1770,0.025223,0.055966,0.027769
1771,0.025223,0.055966,-0.009625
1772,0.025223,0.017434,-0.009625
1773,0.008122,-0.001832,-0.047018
1774,0.008122,-0.001832,-0.121806
1775,-0.008979,-0.040364,-0.065715
1776,-0.026081,-0.040364,-0.009625
1777,-0.008979,-0.021098,-0.028322
1778,-0.008979,-0.021098,-0.028322
1779,-0.008979,-0.001832,0.027769
1780,-0.008979,-0.001832,0.009072
1781,0.008122,-0.040364,0.046465
1782,-0.043182,0.017434,-0.009625
1783,-0.008979,-0.021098,-0.009625
1784,-0.008979,-0.05963,-0.028322
1785,-0.008979,-0.05963,-0.028322
1786,-0.008979,-0.098162,-0.009625
1787,0.008122,-0.040364,0.027769
1788,0.008122,-0.021098,0.009072
1789,0.008122,0.017434,0.046465
1790,0.008122,0.094498,0.027769
1791,0.008122,0.094498,0.046465
1792,-0.008979,0.094498,0.027769
1793,-0.008979,-0.001832,-0.009625
1794,-0.026081,-0.078896,-0.028322
1795,0.008122,-0.078896,-0.009625
1796,-0.008979,-0.098162,-0.009625
1797,-0.008979,-0.078896,-0.009625
1798,-0.026081,-0.05963,0.009072
1799,-0.026081,-0.040364,0.046465
1800,-0.026081,-0.021098,0.027769
1801,0.008122,0.017434,0.009072
1802,0.008122,0.017434,0.027769
1803,0.008122,0.075232,0.027769
1804,-0.008979,0.055966,-0.009625
1805,0.025223,0.094498,-0.047018
1806,0.042325,0.094498,-0.009625
1807,0.008122,0.094498,0.046465
1808,0.008122,0.017434,0.046465
1809,0.008122,-0.040364,0.065162
1810,0.008122,-0.021098,-0.009625
1811,0.025223,-0.040364,-0.047018
1812,0.008122,0.017434,0.009072
1813,-0.008979,0.113764,-0.047018
1814,0.008122,0.113764,-0.009625
1815,-0.008979,0.017434,0.009072
1816,0.008122,-0.001832,-0.009625
1817,0.008122,0.055966,0.009072
1818,0.008122,0.017434,-0.009625
1819,0.008122,-0.021098,-0.028322
1820,0.008122,-0.040364,0.009072
1821,-0.008979,0.0367,0.009072
1822,0.008122,0.055966,0.009072
1823,0.008122,-0.001832,0.046465
1824,-0.008979,0.055966,0.065162
1825,0.008122,0.113764,0.046465
1826,0.025223,0.055966,0.065162
1827,-0.008979,0.094498,0.046465
1828,-0.008979,0.113764,0.046465
1829,-0.026081,0.055966,-0.028322
1830,0.008122,0.0367,-0.084412
1831,0.008122,-0.021098,-0.065715
1832,0.008122,-0.001832,-0.028322
1833,-0.008979,-0.040364,-0.084412
1834,-0.008979,-0.040364,-0.028322
1835,-0.008979,-0.040364,0.027769
1836,0.008122,-0.001832,0.009072
1837,0.008122,-0.001832,0.027769
1838,0.008122,-0.001832,0.009072
1839,-0.008979,-0.021098,-0.065715
1840,-0.008979,-0.040364,-0.009625
1841,-0.008979,-0.021098,-0.028322
1842,0.008122,-0.040364,-0.028322
1843,-0.026081,-0.040364,-0.047018
1844,-0.008979,-0.021098,-0.047018
1845,-0.008979,-0.021098,0.009072
1846,-0.026081,-0.021098,0.046465
1847,0.025223,0.0367,0.083859
1848,0.025223,-0.001832,0.009072
1849,0.008122,-0.040364,-0.047018
1850,0.008122,-0.021098,0.046465
1851,0.025223,-0.021098,0.065162
1852,0.025223,-0.001832,-0.009625
1853,0.025223,-0.001832,-0.009625
1854,-0.008979,-0.021098,-0.009625
1855,0.008122,-0.001832,0.027769
1856,-0.008979,-0.001832,0.046465
1857,-0.026081,0.017434,0.139949
1858,-0.008979,-0.001832,0.158646
1859,0.025223,0.017434,0.083859
1860,0.025223,0.0367,0.027769
1861,0.008122,0.017434,-0.159199
1862,-0.026081,0.017434,-0.140502
1863,-0.008979,-0.001832,-0.159199
1864,0.008122,-0.001832,-0.103109
1865,-0.008979,-0.040364,0.027769
1866,-0.008979,-0.040364,0.027769
1867,-0.008979,-0.001832,0.083859
1868,0.008122,0.017434,0.158646
1869,0.008122,-0.021098,0.102556
1870,0.008122,0.017434,0.027769
1871,0.025223,-0.001832,-0.065715
1872,-0.008979,-0.021098,-0.028322
1873,0.008122,-0.001832,-0.065715
1874,-0.008979,-0.001832,-0.047018
1875,0.008122,0.0367,-0.028322
1876,0.008122,-0.001832,0.046465
1877,-0.008979,-0.040364,0.027769
1878,0.008122,-0.078896,0.027769
1879,-0.008979,-0.05963,0.065162
1880,-0.026081,-0.078896,0.083859
1881,-0.008979,-0.078896,-0.009625
1882,0.008122,-0.098162,-0.065715
1883,-0.008979,-0.040364,-0.047018
1884,0.008122,-0.001832,-0.065715
1885,0.008122,0.075232,-0.028322
1886,-0.008979,0.0367,-0.028322
1887,0.008122,-0.001832,0.009072
1888,0.008122,0.055966,-0.047018
1889,0.008122,-0.001832,-0.065715
1890,-0.026081,-0.001832,-0.047018
1891,-0.008979,-0.040364,-0.028322
1892,-0.026081,-0.117428,-0.009625
1893,-0.026081,-0.05963,-0.028322
1894,0.008122,0.017434,0.009072
1895,0.025223,-0.001832,-0.009625
1896,0.008122,-0.078896,-0.009625
1897,-0.026081,-0.098162,-0.028322
1898,-0.026081,-0.021098,0.009072
1899,0.008122,0.075232,0.009072
1900,0.059426,0.13303,0.027769
1901,0.025223,0.113764,0.065162
1902,0.008122,0.13303,0.027769
1903,0.008122,0.075232,0.009072
1904,0.008122,0.094498,-0.009625
1905,0.025223,0.22936,-0.009625
1906,0.025223,0.152296,-0.009625
1907,0.008122,0.152296,0.009072
1908,0.042325,0.113764,0.009072
1909,0.008122,0.055966,0.009072
1910,0.008122,0.094498,0.009072
1911,-0.008979,0.0367,0.027769
1912,-0.008979,-0.040364,0.027769
1913,0.008122,-0.001832,0.009072
1914,-0.008979,-0.021098,0.009072
1915,0.025223,-0.021098,-0.028322
1916,0.008122,-0.021098,-0.009625
1917,-0.008979,0.017434,-0.009625
1918,-0.008979,-0.001832,-0.009625
1919,-0.008979,-0.001832,-0.009625
1920,0.008122,0.017434,0.009072
1921,0.025223,0.017434,0.046465
1922,0.008122,-0.021098,0.065162
1923,-0.008979,-0.021098,0.065162
1924,0.008122,-0.001832,0.027769
1925,-0.008979,-0.021098,0.009072
1926,-0.008979,-0.05963,-0.009625
1927,0.008122,-0.021098,-0.028322
1928,-0.008979,-0.001832,0.009072
1929,-0.026081,-0.021098,-0.009625
1930,-0.008979,-0.040364,-0.047018
1931,0.008122,-0.078896,-0.009625
1932,0.025223,-0.021098,-0.028322
1933,0.008122,-0.021098,-0.047018
1934,-0.026081,-0.040364,-0.028322
1935,-0.008979,-0.001832,-0.009625
1936,0.008122,-0.021098,0.027769
1937,0.008122,-0.021098,-0.009625
1938,-0.026081,-0.040364,-0.028322
1939,0.008122,-0.021098,-0.065715
1940,0.008122,-0.021098,-0.047018
1941,-0.008979,-0.021098,-0.028322
1942,0.008122,-0.021098,-0.009625
1943,0.008122,-0.021098,-0.009625
1944,0.008122,-0.021098,0.009072
1945,-0.008979,-0.001832,0.065162
1946,-0.008979,0.017434,0.083859
1947,-0.008979,-0.021098,0.046465
1948,-0.008979,-0.001832,0.027769
1949,0.008122,-0.001832,0.009072
1950,0.008122,-0.001832,-0.009625
1951,-0.008979,-0.021098,-0.084412
1952,0.008122,0.017434,-0.065715
1953,0.008122,0.017434,-0.047018
1954,0.008122,-0.021098,-0.009625
1955,0.025223,0.017434,0.065162
1956,-0.008979,-0.040364,0.083859
1957,0.008122,-0.040364,0.083859
1958,0.008122,-0.021098,0.083859
1959,0.008122,-0.021098,0.065162
1960,0.008122,-0.001832,-0.009625
1961,-0.008979,0.017434,-0.047018
1962,-0.026081,0.017434,-0.047018
1963,0.008122,0.055966,-0.009625
1964,-0.026081,0.0367,0.009072
1965,0.008122,0.0367,0.046465
1966,0.008122,-0.021098,-0.028322
1967,-0.008979,-0.001832,-0.009625
1968,-0.008979,-0.001832,-0.028322
1969,0.025223,0.0367,0.027769
1970,0.008122,0.0367,0.027769
1971,0.008122,0.017434,0.009072
1972,0.008122,-0.001832,0.009072
1973,-0.008979,0.017434,0.027769
1974,0.008122,0.0367,-0.047018
1975,0.008122,-0.001832,-0.121806
1976,-0.008979,-0.001832,-0.028322
1977,-0.008979,-0.001832,-0.009625
1978,-0.008979,-0.001832,0.009072
1979,-0.008979,-0.001832,-0.047018
1980,0.008122,0.017434,-0.009625
1981,0.008122,-0.001832,0.027769
1982,0.008122,-0.001832,0.009072
1983,0.008122,-0.001832,-0.009625
1984,-0.008979,-0.05963,0.009072
1985,-0.026081,-0.098162,-0.028322
1986,-0.008979,-0.05963,-0.028322
1987,-0.008979,-0.040364,0.009072
1988,0.008122,-0.021098,-0.065715
1989,-0.008979,-0.021098,-0.065715
1990,-0.008979,0.0367,-0.009625
1991,0.008122,0.017434,0.027769
1992,0.008122,0.0367,0.009072
1993,-0.008979,0.017434,-0.009625
1994,-0.008979,-0.040364,-0.028322
1995,0.008122,-0.05963,-0.009625
1996,-0.026081,-0.078896,0.009072
1997,-0.043182,-0.021098,0.009072
1998,0.008122,-0.040364,0.027769
1999,-0.008979,-0.001832,0.027769
2000,0.025223,0.055966,0.065162
2001,0.008122,0.055966,0.046465
2002,0.025223,0.0367,0.009072
2003,0.008122,0.0367,-0.009625
2004,0.008122,0.017434,-0.009625
2005,0.025223,0.094498,-0.009625
2006,0.042325,0.055966,0.009072
2007,0.025223,0.017434,0.009072
2008,0.008122,0.055966,0.027769
2009,0.025223,0.075232,0.046465
2010,-0.026081,0.075232,0.009072
2011,-0.008979,0.055966,-0.009625
2012,0.008122,-0.021098,0.046465
2013,-0.008979,-0.040364,0.046465
2014,0.008122,-0.05963,-0.009625
2015,-0.008979,-0.040364,-0.028322
2016,0.025223,-0.001832,-0.047018
2017,0.008122,0.055966,-0.047018
2018,-0.008979,0.094498,-0.028322
2019,0.025223,0.190828,0.027769
2020,0.025223,0.113764,0.009072
2021,0.008122,0.017434,-0.009625
2022,-0.008979,0.017434,-0.009625
2023,0.025223,0.017434,0.027769
2024,-0.008979,-0.001832,0.046465
2025,-0.008979,-0.001832,0.009072
2026,-0.008979,-0.001832,0.009072
2027,0.025223,-0.040364,-0.028322
2028,-0.008979,-0.021098,-0.028322
2029,-0.008979,-0.001832,-0.047018
2030,-0.026081,-0.001832,-0.009625
2031,0.008122,-0.021098,0.009072
2032,-0.008979,-0.021098,0.009072
2033,0.008122,-0.001832,0.009072
2034,0.008122,-0.001832,0.027769
2035,-0.008979,-0.001832,0.009072
2036,-0.008979,0.017434,-0.028322
2037,0.008122,-0.021098,0.027769
2038,0.008122,-0.001832,-0.009625
2039,0.025223,-0.001832,-0.028322
2040,-0.008979,-0.001832,-0.047018
2041,-0.008979,-0.021098,0.009072
2042,-0.008979,-0.001832,0.027769
2043,0.008122,-0.021098,0.027769
2044,-0.008979,0.017434,0.027769
2045,-0.008979,0.017434,0.046465
2046,0.008122,-0.021098,0.046465
2047,-0.008979,-0.001832,0.027769
2048,-0.008979,-0.040364,0.027769
2049,0.025223,-0.021098,0.009072
2050,0.008122,0.0367,0.027769
2051,0.025223,-0.001832,-0.009625
2052,0.008122,0.017434,0.046465
2053,0.025223,-0.001832,0.083859
2054,-0.008979,-0.021098,0.046465
2055,0.008122,0.017434,-0.047018
2056,0.008122,-0.001832,-0.047018
2057,0.008122,-0.021098,-0.028322
2058,0.008122,-0.021098,-0.140502
2059,0.008122,-0.001832,-0.103109
2060,0.008122,-0.001832,-0.009625
2061,-0.008979,-0.001832,0.009072
2062,0.008122,-0.040364,0.009072
2063,-0.026081,-0.040364,0.046465
2064,-0.008979,-0.001832,-0.009625
2065,0.025223,0.017434,0.027769
2066,0.008122,0.017434,-0.009625
2067,0.008122,0.017434,-0.028322
2068,-0.008979,0.055966,-0.009625
2069,0.008122,0.0367,-0.028322
2070,-0.008979,0.0367,0.009072
2071,-0.008979,0.017434,0.009072
2072,0.008122,-0.001832,-0.009625
2073,0.008122,-0.001832,0.009072
2074,0.008122,-0.001832,0.027769
2075,-0.008979,0.055966,0.009072
2076,0.008122,0.017434,-0.009625
2077,-0.008979,0.017434,0.009072
2078,-0.008979,-0.001832,-0.009625
2079,-0.008979,-0.001832,0.046465
2080,0.025223,-0.021098,-0.009625
2081,0.008122,-0.021098,-0.009625
2082,-0.008979,-0.001832,0.046465
2083,-0.008979,-0.040364,0.046465
2084,0.008122,-0.040364,0.009072
2085,0.008122,-0.021098,-0.028322
2086,0.008122,-0.001832,-0.065715
2087,0.025223,0.017434,-0.009625
2088,0.025223,-0.021098,-0.028322
2089,-0.008979,-0.001832,-0.009625
2090,0.008122,-0.001832,0.065162
2091,0.008122,-0.021098,0.065162
2092,0.008122,-0.040364,0.027769
2093,-0.008979,-0.05963,-0.009625
2094,-0.008979,-0.078896,0.009072
2095,-0.008979,-0.05963,0.027769
2096,-0.008979,-0.001832,-0.047018
2097,0.008122,0.055966,-0.009625
2098,-0.008979,0.13303,-0.028322
2099,0.008122,0.13303,-0.047018
2100,0.025223,0.113764,-0.009625
2101,0.025223,0.094498,0.009072
2102,0.008122,0.017434,0.009072
2103,0.008122,-0.001832,-0.009625
2104,-0.008979,-0.05963,-0.028322
2105,-0.008979,-0.040364,0.009072
2106,-0.008979,-0.05963,-0.009625
2107,-0.026081,-0.136694,-0.009625
2108,0.008122,-0.117428,0.065162
2109,0.008122,-0.15596,0.009072
2110,-0.008979,-0.078896,0.027769
2111,-0.008979,-0.021098,0.046465
2112,-0.008979,0.0367,0.009072
2113,-0.008979,0.055966,0.009072
2114,-0.008979,0.171562,-0.028322
2115,0.025223,0.190828,0.009072
2116,0.042325,0.171562,0.009072
2117,0.025223,0.190828,0.009072
2118,0.025223,0.13303,-0.047018
2119,0.025223,0.0367,0.009072
2120,0.025223,0.0367,0.009072
2121,0.008122,-0.001832,-0.028322
2122,0.008122,0.017434,-0.065715
2123,0.008122,0.017434,-0.009625
2124,0.008122,0.017434,0.009072
2125,0.008122,-0.001832,-0.009625
2126,-0.008979,-0.001832,-0.009625
2127,0.008122,-0.021098,0.009072
2128,-0.008979,-0.001832,0.046465
2129,0.008122,-0.021098,0.009072
2130,0.008122,-0.021098,0.009072
2131,-0.008979,-0.001832,0.027769
2132,0.008122,-0.05963,0.009072
2133,0.008122,-0.05963,0.027769
2134,-0.008979,-0.040364,0.009072
2135,0.025223,-0.021098,0.027769
2136,0.008122,-0.001832,0.009072
2137,0.025223,-0.001832,-0.028322
2138,0.025223,0.017434,-0.028322
2139,-0.008979,0.0367,-0.065715
2140,0.008122,0.0367,-0.028322
2141,0.008122,0.017434,-0.009625
2142,-0.008979,-0.021098,0.009072
2143,-0.008979,-0.021098,0.027769
2144,0.008122,-0.05963,-0.009625
2145,-0.008979,-0.040364,-0.028322
2146,0.008122,-0.040364,0.027769
2147,-0.008979,-0.001832,0.046465
2148,0.008122,-0.001832,0.009072
2149,0.008122,0.017434,0.009072
2150,-0.008979,0.017434,-0.047018
2151,0.025223,-0.001832,-0.084412
2152,-0.008979,-0.021098,-0.047018
2153,0.008122,-0.001832,0.046465
2154,-0.008979,-0.021098,0.009072
2155,-0.008979,-0.040364,0.009072
2156,-0.008979,-0.021098,0.027769
2157,0.025223,-0.040364,0.027769
2158,0.008122,-0.021098,0.009072
2159,0.008122,-0.078896,0.009072
2160,0.008122,-0.040364,0.009072
2161,0.008122,-0.021098,0.009072
2162,0.008122,-0.021098,0.046465
2163,-0.008979,-0.021098,0.027769
2164,-0.008979,-0.040364,0.027769
2165,0.008122,0.055966,0.046465
2166,0.025223,0.094498,0.027769
2167,0.008122,0.055966,-0.009625
2168,0.008122,0.0367,0.027769
2169,0.025223,-0.021098,0.046465
2170,-0.008979,-0.021098,-0.009625
2171,0.008122,-0.001832,-0.028322
2172,-0.008979,-0.05963,-0.047018
2173,-0.008979,-0.021098,-0.028322
2174,0.008122,-0.021098,-0.103109
2175,0.008122,0.017434,-0.047018
2176,-0.008979,0.0367,-0.028322
2177,0.008122,0.0367,-0.009625
2178,0.008122,0.0367,0.046465
2179,0.008122,0.0367,0.046465
2180,-0.008979,0.075232,0.065162
2181,-0.008979,-0.001832,0.046465
2182,-0.008979,0.017434,0.027769
2183,0.008122,-0.001832,0.027769
2184,0.025223,-0.001832,-0.028322
2185,0.008122,-0.001832,-0.065715
2186,-0.008979,-0.021098,-0.084412
2187,-0.008979,-0.001832,-0.047018
2188,0.025223,-0.001832,-0.009625
2189,0.008122,-0.001832,0.009072
2190,-0.008979,-0.001832,0.009072
2191,0.008122,-0.021098,0.009072
2192,-0.008979,-0.021098,0.009072
2193,0.025223,-0.001832,0.027769
2194,0.008122,-0.040364,0.027769
2195,-0.008979,-0.040364,0.009072
2196,0.008122,-0.05963,-0.009625
2197,0.008122,-0.021098,-0.009625
2198,-0.008979,-0.040364,-0.009625
2199,-0.008979,-0.040364,-0.103109
2200,-0.008979,0.017434,-0.009625
2201,0.008122,0.055966,0.065162
2202,0.008122,0.075232,0.083859
2203,-0.008979,0.075232,0.102556
2204,0.008122,0.0367,0.083859
2205,-0.008979,0.017434,0.009072
2206,0.008122,-0.001832,-0.028322
2207,0.008122,0.017434,-0.028322
2208,-0.008979,0.017434,-0.065715
2209,0.008122,-0.001832,-0.009625
2210,0.025223,0.017434,0.027769
2211,-0.008979,-0.040364,-0.028322
2212,-0.008979,-0.078896,-0.009625
2213,-0.008979,-0.05963,0.027769
2214,-0.008979,-0.05963,0.009072
2215,-0.026081,-0.078896,-0.047018
2216,-0.008979,-0.078896,-0.047018
2217,0.025223,-0.05963,-0.009625
2218,-0.008979,-0.040364,-0.084412
2219,0.008122,0.017434,-0.103109
2220,0.025223,0.055966,-0.028322
2221,-0.008979,0.113764,-0.009625
2222,-0.008979,0.055966,-0.009625
2223,-0.008979,0.094498,0.046465
2224,0.025223,0.152296,0.065162
2225,0.025223,0.13303,0.046465
2226,0.008122,0.0367,0.009072
2227,0.008122,0.017434,0.009072
2228,0.008122,-0.021098,-0.028322
2229,0.008122,-0.001832,0.009072
2230,-0.008979,-0.040364,-0.028322
2231,-0.008979,-0.098162,-0.028322
2232,-0.043182,-0.098162,-0.009625
2233,-0.008979,-0.040364,0.009072
2234,-0.008979,-0.021098,0.009072
2235,-0.008979,0.055966,0.027769
2236,-0.008979,0.017434,0.027769
2237,0.008122,0.0367,-0.009625
2238,0.025223,0.152296,0.046465
2239,0.042325,0.152296,0.046465
2240,0.025223,0.075232,0.009072
2241,0.008122,0.017434,0.009072
2242,-0.008979,-0.021098,0.009072
2243,0.008122,0.0367,0.027769
2244,0.025223,0.017434,-0.065715
2245,0.008122,-0.001832,-0.009625
2246,0.008122,-0.001832,0.009072
2247,0.008122,0.017434,0.009072
2248,0.008122,-0.001832,-0.009625
2249,0.025223,0.017434,0.009072
2250,0.008122,-0.001832,0.009072
2251,-0.008979,-0.001832,0.009072
2252,-0.008979,-0.001832,-0.009625
2253,-0.008979,-0.001832,-0.009625
2254,0.008122,-0.021098,-0.009625
2255,0.008122,-0.001832,-0.065715
2256,0.008122,-0.021098,-0.009625
2257,-0.026081,-0.001832,0.027769
2258,0.008122,0.017434,0.065162
2259,0.008122,-0.001832,0.027769
2260,-0.008979,0.0367,0.009072
2261,0.008122,-0.001832,0.009072
2262,-0.008979,-0.001832,-0.028322
2263,-0.008979,0.055966,-0.084412
2264,-0.008979,-0.040364,-0.028322
2265,-0.008979,-0.001832,0.009072
2266,0.008122,-0.021098,-0.009625
2267,0.008122,0.017434,0.009072
2268,0.008122,0.017434,0.027769
2269,0.008122,-0.021098,0.065162
2270,-0.008979,0.017434,0.027769
2271,-0.008979,-0.001832,0.027769
2272,0.025223,-0.001832,0.009072
2273,0.008122,-0.001832,-0.009625
2274,-0.026081,-0.001832,-0.047018
2275,-0.008979,-0.001832,-0.047018
2276,-0.026081,-0.001832,0.009072
2277,-0.008979,0.017434,0.009072
2278,-0.008979,0.017434,0.027769
2279,0.008122,0.017434,0.046465
2280,0.008122,0.017434,0.009072
2281,0.008122,0.017434,0.009072
2282,-0.008979,-0.001832,-0.028322
2283,-0.008979,-0.021098,-0.028322
2284,0.042325,-0.001832,-0.028322
2285,0.025223,0.017434,0.009072
2286,0.008122,-0.001832,0.065162
2287,-0.008979,-0.040364,0.083859
2288,-0.008979,-0.05963,0.083859
2289,0.008122,-0.05963,-0.009625
2290,0.008122,-0.021098,-0.065715
2291,-0.008979,-0.040364,-0.047018
2292,-0.026081,-0.021098,0.027769
2293,-0.026081,-0.021098,0.027769
2294,-0.026081,-0.021098,0.027769
2295,-0.008979,-0.001832,0.065162
2296,0.008122,-0.021098,-0.009625
2297,0.008122,-0.001832,-0.065715
2298,-0.008979,0.0367,-0.177896
2299,-0.008979,-0.001832,-0.121806
2300,0.025223,0.055966,-0.028322
2301,0.008122,0.055966,-0.009625
2302,0.025223,0.017434,-0.028322
2303,0.008122,0.017434,0.009072
2304,-0.008979,-0.021098,0.027769
2305,0.008122,0.0367,0.027769
2306,0.008122,0.055966,0.046465
2307,0.008122,0.055966,-0.009625
2308,0.025223,0.075232,0.009072
2309,0.025223,-0.021098,0.009072
2310,-0.008979,-0.001832,0.009072
2311,0.008122,-0.040364,0.065162
2312,0.008122,-0.040364,0.065162
2313,-0.008979,-0.001832,0.083859
2314,-0.008979,0.017434,0.046465
2315,0.025223,0.055966,0.009072
2316,0.008122,0.017434,-0.009625
2317,0.008122,0.0367,-0.047018
2318,0.008122,0.017434,-0.065715
2319,-0.008979,-0.001832,-0.009625
2320,0.008122,0.017434,0.027769
2321,0.008122,-0.001832,0.046465
2322,0.008122,-0.021098,0.027769
2323,-0.008979,-0.021098,0.027769
2324,-0.008979,0.017434,0.027769
2325,0.008122,-0.05963,-0.009625
2326,-0.008979,-0.040364,0.009072
2327,-0.026081,-0.117428,0.046465
2328,-0.026081,-0.175226,0.009072
2329,-0.026081,-0.117428,-0.009625
2330,-0.008979,-0.078896,-0.047018
2331,-0.008979,-0.021098,-0.103109
2332,0.008122,0.017434,-0.103109
2333,0.008122,0.094498,-0.009625
2334,0.025223,0.13303,-0.009625
2335,0.008122,0.094498,0.009072
2336,0.008122,0.017434,-0.009625
2337,0.008122,0.0367,0.009072
2338,0.008122,0.075232,-0.009625
2339,0.025223,0.075232,0.027769
2340,0.008122,-0.001832,0.027769
2341,0.008122,0.0367,0.009072
2342,0.008122,0.017434,0.027769
2343,0.008122,-0.001832,-0.009625
2344,-0.008979,0.017434,0.009072
2345,0.008122,0.017434,-0.065715
2346,-0.008979,0.0367,-0.009625
2347,-0.008979,0.017434,0.009072
2348,-0.008979,0.0367,0.027769
2349,0.025223,0.0367,0.009072
2350,0.008122,0.017434,0.009072
2351,-0.008979,-0.001832,0.027769
2352,0.008122,-0.001832,-0.009625
2353,0.008122,-0.001832,-0.009625
2354,0.025223,-0.001832,-0.028322
2355,0.008122,-0.021098,0.027769
2356,0.008122,0.0367,0.083859
2357,-0.008979,0.017434,0.083859
2358,-0.008979,0.017434,0.027769
2359,-0.008979,-0.021098,0.009072
2360,-0.008979,-0.05963,-0.047018
2361,-0.008979,-0.040364,-0.028322
2362,-0.026081,-0.040364,-0.009625
2363,-0.008979,-0.05963,-0.047018
2364,-0.026081,-0.078896,-0.084412
2365,-0.008979,-0.05963,-0.047018
2366,0.008122,-0.001832,-0.028322
2367,0.008122,0.017434,0.009072
2368,0.025223,0.0367,0.009072
2369,0.025223,0.0367,0.046465
2370,0.008122,0.0367,0.027769
2371,0.008122,0.055966,0.009072
2372,0.025223,0.0367,0.009072
2373,0.008122,0.0367,0.009072
2374,-0.026081,0.017434,-0.009625
2375,0.025223,-0.001832,-0.009625
2376,-0.008979,0.017434,-0.028322
2377,0.008122,-0.001832,-0.028322
2378,-0.026081,-0.021098,-0.009625
2379,-0.008979,-0.001832,0.009072
2380,0.008122,-0.021098,-0.009625
2381,-0.008979,-0.05963,0.027769
2382,-0.008979,-0.078896,0.027769
2383,0.008122,-0.021098,0.009072
2384,-0.008979,-0.021098,0.009072
2385,-0.008979,0.017434,0.009072
2386,0.008122,0.055966,0.009072
2387,0.008122,0.075232,-0.009625
2388,0.008122,0.094498,-0.009625
2389,0.008122,0.055966,0.009072
2390,-0.008979,-0.001832,0.027769
2391,-0.008979,-0.001832,0.009072
2392,-0.008979,-0.021098,0.065162
2393,-0.008979,0.017434,0.065162
2394,-0.008979,0.017434,0.065162
2395,-0.008979,-0.001832,0.027769
2396,-0.008979,-0.001832,-0.009625
2397,0.008122,-0.001832,-0.009625
2398,0.008122,-0.001832,-0.028322
2399,-0.008979,-0.021098,-0.028322
2400,-0.008979,-0.001832,-0.028322
2401,0.008122,-0.021098,-0.047018
2402,-0.008979,-0.040364,-0.028322
2403,-0.008979,-0.021098,0.009072
2404,0.008122,-0.040364,-0.009625
2405,0.008122,-0.001832,0.009072
2406,0.008122,-0.001832,-0.009625
2407,-0.008979,-0.021098,0.009072
2408,0.008122,-0.001832,-0.009625
2409,0.008122,0.017434,-0.009625
2410,0.008122,0.017434,-0.028322
2411,-0.008979,0.0367,-0.009625
2412,0.008122,0.017434,0.009072
2413,0.008122,0.017434,-0.009625
2414,0.008122,-0.001832,0.009072
2415,0.008122,0.0367,0.009072
2416,0.025223,0.017434,0.027769
2417,0.008122,-0.021098,0.027769
2418,0.008122,0.017434,-0.009625
2419,0.008122,-0.001832,0.009072
2420,0.008122,0.017434,0.009072
2421,0.008122,0.017434,0.027769
2422,-0.008979,-0.001832,0.027769
2423,-0.008979,-0.001832,0.046465
2424,0.025223,0.017434,0.065162
2425,0.025223,0.017434,0.027769
2426,0.008122,0.0367,-0.028322
2427,-0.008979,0.0367,-0.009625
2428,-0.008979,-0.021098,0.046465
2429,0.008122,-0.001832,0.046465
2430,-0.026081,-0.001832,0.046465
2431,-0.008979,-0.175226,0.065162
2432,0.008122,-0.213758,0.027769
2433,-0.008979,-0.233024,-0.009625
2434,-0.008979,-0.175226,-0.159199
2435,-0.026081,-0.117428,-0.177896
2436,-0.043182,-0.040364,-0.121806
2437,-0.026081,0.094498,-0.103109
2438,-0.008979,0.190828,-0.103109
2439,0.042325,0.32569,-0.009625
2440,0.025223,0.248626,0.027769
2441,0.025223,0.13303,0.027769
2442,0.042325,0.113764,0.009072
2443,0.008122,0.055966,0.027769
2444,0.008122,0.055966,-0.009625
2445,-0.008979,-0.001832,0.009072
2446,0.025223,-0.040364,-0.009625
2447,0.008122,-0.05963,0.009072
2448,-0.008979,-0.040364,0.046465
2449,0.008122,-0.040364,0.027769
2450,0.008122,-0.040364,0.027769
2451,-0.008979,-0.021098,0.027769
2452,0.008122,0.017434,0.027769
2453,0.008122,0.075232,0.009072
2454,0.008122,0.075232,-0.009625
2455,0.008122,0.055966,-0.009625
2456,0.008122,0.017434,-0.028322
2457,-0.008979,-0.021098,-0.047018
2458,0.008122,0.017434,-0.009625
2459,-0.008979,-0.001832,0.009072
2460,-0.008979,-0.001832,0.046465
2461,0.008122,-0.001832,0.065162
2462,-0.008979,-0.001832,0.027769
2463,-0.008979,-0.001832,0.027769
2464,-0.008979,-0.001832,0.009072
2465,-0.008979,0.017434,0.009072
2466,0.008122,-0.021098,-0.028322
2467,-0.008979,-0.001832,-0.028322
2468,0.025223,-0.001832,-0.028322
2469,0.008122,-0.021098,-0.028322
2470,0.008122,-0.021098,-0.028322
2471,0.008122,-0.05963,-0.028322
2472,-0.026081,-0.078896,-0.009625
2473,0.008122,-0.078896,-0.009625
2474,-0.008979,-0.040364,0.027769
2475,-0.008979,-0.040364,0.027769
2476,0.008122,-0.021098,0.009072
2477,0.008122,-0.001832,-0.009625
2478,-0.008979,0.0367,-0.028322
2479,-0.008979,0.055966,-0.028322
2480,0.008122,0.0367,-0.028322
2481,-0.008979,0.017434,0.009072
2482,-0.008979,-0.001832,0.009072
2483,-0.008979,0.017434,0.009072
2484,-0.008979,0.0367,0.027769
2485,0.008122,-0.001832,0.027769
2486,0.008122,0.017434,0.046465
2487,0.008122,0.017434,0.046465
2488,-0.008979,0.0367,0.046465
2489,0.008122,-0.021098,0.009072
2490,-0.026081,-0.021098,0.009072
2491,-0.008979,-0.021098,-0.047018
2492,-0.008979,-0.021098,-0.065715
2493,-0.008979,-0.001832,-0.028322
2494,-0.026081,-0.021098,-0.028322
2495,0.008122,0.017434,-0.028322
2496,0.008122,0.017434,0.027769
2497,0.008122,0.0367,0.027769
2498,0.008122,0.0367,0.027769
2499,0.025223,0.075232,0.027769
2500,0.025223,0.017434,0.046465
2501,0.008122,0.017434,0.009072
2502,0.008122,0.017434,-0.028322
2503,0.042325,-0.001832,-0.065715
2504,0.008122,-0.001832,-0.047018
2505,0.008122,-0.021098,-0.028322
2506,0.008122,0.017434,0.027769
2507,0.008122,0.055966,0.027769
2508,0.025223,-0.001832,0.046465
2509,-0.008979,0.017434,0.027769
2510,0.008122,-0.001832,0.009072
2511,-0.008979,-0.021098,-0.009625
2512,-0.008979,-0.05963,-0.047018
2513,-0.008979,-0.078896,-0.047018
2514,-0.008979,-0.05963,-0.103109
2515,0.008122,-0.001832,-0.047018
2516,0.008122,0.0367,-0.009625
2517,-0.008979,-0.001832,-0.028322
2518,-0.008979,0.017434,-0.009625
2519,0.008122,0.075232,0.046465
2520,-0.008979,0.055966,0.009072
2521,0.008122,0.055966,0.046465
2522,-0.008979,-0.001832,0.009072
2523,-0.008979,-0.040364,0.009072
2524,-0.008979,-0.001832,0.009072
2525,-0.008979,-0.001832,-0.047018
2526,-0.008979,-0.001832,-0.009625
2527,-0.008979,-0.021098,-0.028322
2528,0.008122,-0.001832,0.009072
2529,0.008122,-0.001832,0.046465
2530,0.025223,0.017434,0.046465
2531,0.008122,0.017434,-0.028322
2532,-0.008979,0.017434,-0.084412
2533,0.008122,0.0367,-0.065715
2534,0.008122,0.055966,-0.065715
2535,0.008122,0.017434,-0.028322
2536,-0.008979,0.017434,-0.009625
2537,0.025223,-0.021098,0.009072
2538,0.008122,-0.001832,0.009072
2539,-0.008979,-0.001832,0.009072
2540,-0.008979,-0.021098,0.065162
2541,-0.008979,-0.021098,0.027769
2542,0.008122,-0.001832,0.009072
2543,-0.008979,-0.001832,0.027769
2544,0.008122,-0.001832,-0.009625
2545,0.008122,-0.021098,0.009072
2546,0.008122,-0.021098,-0.009625
2547,-0.008979,0.017434,0.009072
2548,-0.008979,0.017434,0.027769
2549,-0.008979,0.075232,0.009072
2550,0.008122,0.0367,0.009072
2551,0.008122,-0.001832,-0.009625
2552,0.008122,-0.001832,-0.009625
2553,0.008122,-0.040364,-0.009625
2554,-0.008979,-0.05963,-0.009625
2555,0.008122,-0.078896,0.009072
2556,-0.008979,-0.098162,-0.009625
2557,-0.026081,-0.078896,-0.009625
2558,-0.008979,-0.05963,-0.028322
2559,-0.008979,0.017434,-0.047018
2560,0.008122,0.0367,-0.028322
2561,0.008122,0.094498,-0.009625
2562,0.008122,0.113764,0.046465
2563,-0.026081,0.055966,0.046465
2564,0.008122,-0.021098,0.046465
2565,0.008122,-0.040364,0.009072
2566,0.008122,-0.040364,0.027769
2567,0.008122,-0.040364,-0.009625
2568,-0.008979,0.055966,-0.047018
2569,0.008122,0.075232,-0.028322
2570,0.008122,0.075232,-0.009625
2571,0.025223,0.113764,-0.009625
2572,0.042325,0.017434,0.027769
2573,0.008122,-0.021098,-0.047018
2574,0.008122,-0.021098,-0.009625
2575,-0.008979,-0.040364,0.009072
2576,-0.026081,-0.021098,0.027769
2577,-0.008979,0.017434,-0.009625
2578,0.008122,0.055966,0.009072
2579,-0.008979,0.055966,-0.047018
2580,-0.008979,0.055966,-0.028322
2581,-0.008979,0.017434,-0.028322
2582,0.008122,-0.001832,0.009072
2583,-0.008979,0.0367,0.046465
2584,0.008122,0.0367,0.065162
2585,-0.008979,-0.001832,0.083859
2586,-0.008979,-0.021098,0.027769
2587,0.008122,-0.021098,0.027769
2588,0.008122,-0.021098,0.009072
2589,-0.008979,-0.021098,0.009072
2590,0.008122,-0.040364,0.009072
2591,0.008122,-0.021098,-0.009625
2592,-0.008979,-0.040364,-0.028322
2593,-0.026081,-0.021098,-0.028322
2594,-0.026081,-0.021098,-0.009625
2595,-0.008979,-0.021098,-0.047018
2596,0.008122,-0.001832,-0.065715
2597,0.025223,-0.021098,-0.009625
2598,0.008122,-0.021098,0.009072
2599,-0.026081,-0.021098,-0.009625
2600,0.008122,-0.040364,-0.028322
2601,0.008122,0.0367,-0.009625
2602,-0.008979,0.017434,-0.009625
2603,0.008122,0.0367,-0.009625
2604,0.008122,0.017434,-0.028322
2605,-0.008979,0.017434,-0.028322
2606,-0.008979,0.017434,0.009072
2607,0.008122,-0.001832,0.027769
2608,-0.008979,-0.021098,0.027769
2609,-0.008979,-0.040364,0.027769
2610,-0.008979,-0.040364,0.027769
2611,0.008122,-0.021098,0.009072
2612,0.025223,-0.021098,0.009072
2613,-0.008979,0.017434,0.009072
2614,0.008122,0.017434,-0.028322
2615,0.008122,0.0367,0.009072
2616,-0.008979,0.017434,0.009072
2617,0.008122,-0.001832,0.046465
2618,-0.008979,-0.001832,0.027769
2619,0.008122,-0.040364,0.009072
2620,0.008122,-0.021098,0.027769
2621,0.008122,0.017434,0.009072
2622,0.008122,-0.001832,-0.028322
2623,0.008122,-0.05963,-0.028322
2624,-0.008979,-0.001832,0.009072
2625,-0.008979,-0.021098,0.009072
2626,-0.008979,-0.021098,0.009072
2627,-0.008979,-0.001832,-0.047018
2628,-0.008979,-0.001832,-0.009625
2629,-0.008979,0.017434,0.009072
2630,-0.008979,0.017434,-0.009625
2631,0.008122,0.075232,0.009072
2632,0.008122,0.055966,-0.009625
2633,0.025223,0.055966,0.027769
2634,-0.008979,-0.001832,-0.028322
2635,-0.026081,-0.001832,-0.028322
2636,0.008122,-0.021098,-0.028322
2637,0.008122,-0.001832,0.009072
2638,-0.008979,-0.021098,0.009072
2639,0.008122,-0.078896,0.009072
2640,-0.008979,-0.117428,0.027769
2641,0.008122,-0.15596,0.027769
2642,-0.008979,-0.175226,0.046465
2643,-0.008979,-0.098162,0.083859
2644,0.008122,-0.05963,0.083859
2645,-0.008979,0.055966,0.046465
2646,-0.008979,0.094498,-0.028322
2647,0.008122,0.113764,0.009072
2648,0.042325,0.152296,-0.028322
2649,0.025223,0.113764,-0.140502
2650,0.025223,0.075232,-0.121806
2651,0.008122,0.0367,-0.047018
2652,0.008122,0.017434,-0.028322
2653,0.008122,0.075232,-0.028322
2654,0.008122,0.113764,0.027769
2655,0.008122,0.113764,0.027769
2656,0.008122,0.094498,0.046465
2657,0.025223,0.055966,0.046465
2658,-0.008979,0.0367,0.027769
2659,-0.008979,0.017434,0.027769
2660,0.008122,-0.001832,0.009072
2661,0.008122,0.017434,0.009072
2662,0.008122,-0.021098,0.027769
2663,-0.008979,-0.001832,0.027769
2664,0.025223,-0.021098,-0.009625
2665,0.008122,-0.001832,-0.009625
2666,0.025223,0.017434,0.009072
2667,0.008122,-0.021098,0.027769
2668,0.008122,-0.021098,0.027769
2669,-0.026081,-0.05963,0.009072
2670,-0.008979,-0.021098,-0.028322
2671,0.008122,-0.040364,-0.047018
2672,0.008122,-0.040364,-0.047018
2673,0.025223,-0.021098,-0.028322
2674,-0.008979,-0.021098,-0.009625
2675,-0.008979,-0.021098,0.009072
2676,-0.026081,-0.040364,0.009072
2677,-0.026081,-0.040364,0.027769
2678,-0.008979,0.017434,0.027769
2679,-0.008979,0.0367,0.027769
2680,0.025223,0.0367,0.009072
2681,0.008122,0.017434,0.009072
2682,0.008122,0.0367,0.009072
2683,0.025223,0.055966,0.027769
2684,0.025223,0.017434,-0.028322
2685,-0.008979,0.0367,0.046465
2686,-0.008979,0.055966,-0.009625
2687,0.008122,0.017434,-0.028322
2688,-0.026081,-0.021098,-0.009625
2689,-0.008979,-0.021098,0.027769
2690,-0.008979,-0.040364,0.046465
2691,-0.008979,-0.001832,-0.009625
2692,0.008122,-0.001832,-0.009625
2693,0.008122,-0.040364,-0.028322
2694,-0.008979,-0.001832,-0.009625
2695,0.008122,0.017434,-0.065715
2696,-0.008979,-0.021098,-0.047018
2697,0.008122,-0.021098,-0.009625
2698,0.008122,-0.001832,0.027769
2699,-0.008979,-0.040364,0.009072
2700,-0.008979,-0.001832,0.009072
2701,-0.008979,-0.001832,0.027769
2702,0.008122,-0.001832,0.027769
2703,0.008122,0.017434,0.009072
2704,-0.008979,-0.001832,0.009072
2705,0.008122,-0.001832,-0.009625
2706,0.025223,0.017434,-0.009625
2707,0.008122,-0.001832,-0.084412
2708,-0.008979,-0.001832,-0.009625
2709,0.008122,0.017434,0.027769
2710,-0.008979,0.017434,0.027769
2711,-0.008979,-0.001832,0.027769
2712,-0.008979,-0.001832,0.046465
2713,0.008122,0.017434,0.065162
2714,-0.008979,-0.040364,0.009072
2715,0.008122,-0.021098,0.009072
2716,0.008122,-0.001832,0.009072
2717,0.008122,-0.001832,-0.028322
2718,0.008122,-0.001832,-0.084412
2719,-0.008979,-0.040364,-0.084412
2720,0.008122,-0.021098,-0.047018
2721,0.008122,-0.001832,0.009072
2722,0.008122,-0.001832,0.009072
2723,0.008122,-0.001832,-0.009625
2724,0.008122,0.017434,-0.028322
2725,-0.008979,-0.040364,0.046465
2726,-0.008979,-0.021098,0.065162
2727,-0.008979,-0.021098,0.027769
2728,-0.008979,-0.001832,0.046465
2729,0.008122,-0.021098,0.046465
2730,0.008122,-0.001832,-0.009625
2731,-0.008979,-0.001832,-0.140502
2732,-0.008979,0.017434,-0.103109
2733,0.008122,0.055966,0.009072
2734,-0.008979,0.017434,0.027769
2735,0.025223,0.017434,0.009072
2736,0.008122,-0.001832,0.009072
2737,0.008122,-0.05963,-0.009625
2738,-0.008979,-0.078896,-0.028322
2739,0.008122,-0.040364,-0.009625
2740,0.008122,-0.021098,-0.009625
2741,0.008122,-0.021098,0.027769
2742,-0.008979,0.0367,0.027769
2743,-0.008979,0.055966,0.046465
2744,-0.008979,0.075232,0.065162
2745,0.008122,0.075232,0.046465
2746,0.025223,0.0367,0.009072
2747,-0.008979,-0.021098,-0.009625
2748,-0.008979,-0.021098,-0.028322
2749,0.008122,-0.05963,-0.028322
2750,-0.008979,-0.05963,-0.028322
2751,-0.008979,-0.078896,-0.009625
2752,-0.008979,-0.078896,0.027769
2753,-0.008979,-0.040364,0.009072
2754,-0.008979,-0.001832,0.009072
2755,0.008122,0.055966,0.046465
2756,0.008122,0.094498,0.027769
2757,0.025223,0.13303,0.009072
2758,0.025223,0.113764,0.027769
2759,0.008122,0.094498,0.027769
2760,0.008122,0.0367,0.009072
2761,-0.008979,0.017434,-0.009625
2762,0.008122,-0.021098,-0.047018
2763,-0.008979,-0.021098,-0.009625
2764,0.008122,-0.040364,-0.009625
2765,0.008122,-0.001832,-0.028322
2766,0.008122,-0.001832,0.009072
2767,-0.026081,0.017434,0.009072
2768,-0.008979,0.017434,-0.028322
2769,0.008122,-0.001832,0.009072
2770,0.008122,0.055966,-0.009625
2771,0.008122,0.017434,-0.047018
2772,0.008122,-0.021098,-0.047018
2773,0.008122,-0.05963,-0.028322
2774,-0.008979,-0.078896,0.009072
2775,0.008122,-0.05963,-0.009625
2776,-0.008979,-0.001832,0.027769
2777,0.008122,-0.021098,0.027769
2778,-0.008979,-0.001832,0.046465
2779,0.008122,0.0367,0.009072
2780,-0.008979,0.113764,0.046465
2781,0.025223,0.094498,0.046465
2782,0.008122,0.017434,0.046465
2783,0.008122,0.017434,-0.009625
2784,0.008122,-0.021098,-0.065715
2785,-0.008979,-0.001832,-0.084412
2786,-0.008979,-0.021098,-0.009625
2787,0.008122,-0.021098,0.027769
2788,-0.008979,-0.040364,0.009072
2789,-0.008979,-0.05963,0.027769
2790,0.008122,-0.078896,-0.009625
2791,-0.008979,-0.098162,-0.028322
2792,-0.026081,-0.078896,-0.028322
2793,-0.008979,-0.040364,-0.009625
2794,-0.008979,-0.021098,-0.009625
2795,-0.008979,0.055966,-0.028322
2796,0.008122,0.075232,0.009072
2797,0.008122,0.113764,0.027769
2798,0.025223,0.094498,0.009072
2799,0.008122,0.017434,0.009072
2800,0.025223,0.0367,0.027769
2801,0.008122,0.0367,0.009072
2802,0.008122,-0.001832,-0.028322
2803,-0.008979,-0.001832,-0.028322
2804,0.025223,0.017434,-0.028322
2805,0.008122,0.0367,-0.009625
2806,0.008122,-0.021098,-0.009625
2807,0.008122,-0.001832,0.046465
2808,-0.008979,0.055966,0.083859
2809,0.025223,0.055966,0.065162
2810,0.025223,0.017434,0.027769
2811,0.008122,-0.040364,-0.047018
2812,-0.008979,-0.05963,-0.009625
2813,-0.026081,-0.078896,0.027769
2814,-0.008979,-0.05963,0.009072
2815,0.025223,-0.021098,-0.065715
2816,0.008122,-0.021098,-0.084412
2817,-0.026081,-0.001832,-0.121806
2818,-0.008979,0.0367,-0.047018
2819,-0.008979,0.075232,-0.028322
2820,-0.008979,0.075232,0.027769
2821,0.008122,0.017434,0.046465
2822,0.008122,-0.021098,0.083859
2823,0.008122,-0.040364,0.046465
2824,-0.008979,-0.021098,0.009072
2825,-0.008979,-0.021098,-0.009625
2826,-0.008979,0.017434,-0.047018
2827,-0.008979,-0.001832,-0.047018
2828,0.008122,0.017434,-0.047018
2829,0.008122,0.017434,-0.009625
2830,0.008122,0.0367,-0.009625
2831,0.008122,0.017434,0.009072
2832,0.008122,-0.001832,0.009072
2833,0.008122,-0.001832,0.009072
2834,-0.008979,-0.001832,0.027769
2835,0.008122,0.017434,-0.028322
2836,-0.008979,0.017434,-0.009625
2837,0.008122,-0.001832,-0.028322
2838,-0.008979,-0.001832,-0.009625
2839,-0.008979,-0.001832,-0.028322
2840,-0.043182,0.017434,-0.009625
2841,-0.008979,-0.001832,0.009072
2842,0.008122,-0.001832,0.027769
2843,0.008122,-0.001832,0.065162
2844,-0.008979,-0.021098,0.027769
2845,0.008122,-0.001832,0.027769
2846,-0.008979,-0.001832,0.027769
2847,-0.026081,-0.040364,-0.028322
2848,0.008122,-0.001832,-0.065715
2849,0.008122,-0.001832,-0.047018
2850,0.008122,-0.001832,-0.009625
2851,0.008122,-0.001832,-0.009625
2852,0.025223,-0.021098,0.009072
2853,0.008122,-0.001832,0.009072
2854,-0.008979,-0.021098,0.009072
2855,0.008122,-0.021098,-0.009625
2856,-0.008979,0.017434,0.027769
2857,-0.008979,-0.001832,0.046465
2858,-0.008979,-0.021098,0.046465
2859,-0.008979,-0.05963,0.009072
2860,-0.008979,-0.05963,0.009072
2861,0.008122,-0.040364,-0.028322
2862,0.008122,-0.021098,-0.065715
2863,0.008122,-0.001832,-0.047018
2864,0.008122,0.075232,0.009072
2865,-0.008979,0.113764,0.027769
2866,0.008122,0.113764,0.046465
2867,0.008122,0.094498,0.065162
2868,0.008122,0.017434,0.046465
2869,0.008122,-0.021098,0.046465
2870,0.008122,-0.05963,0.009072
2871,0.008122,-0.05963,-0.084412
2872,0.008122,-0.040364,-0.047018
2873,-0.008979,-0.040364,-0.009625
2874,-0.008979,-0.021098,-0.009625
2875,-0.026081,-0.021098,-0.009625
2876,-0.026081,-0.021098,0.027769
2877,-0.008979,-0.040364,0.027769
2878,0.025223,-0.021098,0.009072
2879,-0.008979,-0.021098,-0.028322
2880,-0.026081,-0.001832,0.027769
2881,0.008122,0.094498,0.046465
2882,0.025223,0.171562,0.027769
2883,0.025223,0.210094,0.009072
2884,0.025223,0.13303,-0.009625
2885,0.008122,0.0367,-0.047018
2886,0.025223,-0.021098,-0.065715
2887,-0.008979,-0.040364,-0.047018
2888,0.025223,-0.021098,0.009072
2889,-0.008979,-0.001832,0.027769
2890,-0.008979,0.0367,0.027769
2891,-0.008979,0.075232,0.065162
2892,-0.008979,0.075232,0.009072
2893,-0.008979,0.055966,-0.028322
2894,-0.026081,0.017434,0.009072
2895,-0.008979,-0.021098,-0.009625
2896,0.025223,-0.05963,-0.009625
2897,0.025223,-0.05963,-0.028322
2898,-0.008979,-0.040364,-0.047018
2899,0.008122,-0.021098,0.009072
2900,0.008122,-0.001832,0.009072
2901,-0.008979,-0.001832,0.009072
2902,-0.008979,-0.040364,0.027769
2903,-0.008979,-0.040364,0.027769
2904,0.008122,-0.021098,0.027769
2905,-0.008979,0.017434,0.027769
2906,0.008122,0.017434,0.009072
2907,0.008122,0.0367,0.027769
2908,-0.008979,0.017434,0.046465
2909,0.008122,0.017434,0.027769
2910,-0.008979,-0.021098,0.046465
2911,0.008122,-0.021098,0.009072
2912,0.008122,-0.021098,-0.065715
2913,-0.008979,-0.021098,-0.065715
2914,-0.026081,-0.001832,-0.047018
2915,-0.026081,-0.021098,-0.028322
2916,-0.008979,-0.021098,-0.009625
2917,-0.008979,-0.05963,0.009072
2918,0.008122,-0.040364,0.009072
2919,0.008122,-0.05963,-0.047018
2920,0.008122,-0.05963,-0.028322
2921,0.008122,0.017434,-0.009625
2922,-0.008979,-0.001832,0.046465
2923,-0.008979,0.017434,0.083859
2924,0.008122,0.075232,0.083859
2925,0.008122,0.017434,0.102556
2926,0.008122,-0.001832,0.046465
2927,-0.026081,-0.021098,-0.009625
2928,-0.026081,-0.021098,-0.084412
2929,0.025223,0.017434,-0.047018
2930,0.008122,0.017434,-0.028322
2931,0.008122,0.055966,-0.028322
2932,-0.008979,0.017434,-0.028322
2933,0.008122,-0.001832,-0.047018
2934,0.008122,0.017434,-0.009625
2935,0.008122,0.017434,0.009072
2936,0.008122,-0.001832,0.009072
2937,-0.008979,0.017434,0.009072
2938,-0.008979,0.0367,0.046465
2939,-0.008979,0.017434,0.027769
2940,0.008122,-0.021098,0.009072
2941,0.008122,0.017434,0.027769
2942,-0.008979,-0.001832,-0.028322
2943,0.008122,-0.021098,-0.028322
2944,-0.008979,-0.001832,-0.028322
2945,-0.008979,-0.001832,0.009072
2946,-0.008979,-0.021098,0.009072
2947,-0.008979,-0.001832,0.046465
2948,0.008122,-0.05963,0.046465
2949,0.025223,-0.001832,0.065162
2950,0.008122,-0.001832,0.083859
2951,0.008122,-0.040364,0.009072
2952,-0.008979,-0.040364,-0.047018
2953,0.008122,-0.021098,-0.084412
2954,0.008122,-0.021098,-0.047018
2955,0.008122,-0.001832,-0.065715
2956,0.008122,-0.001832,-0.028322
2957,-0.008979,0.017434,0.009072
2958,0.008122,0.017434,0.009072
2959,0.008122,0.0367,0.009072
2960,-0.008979,-0.040364,0.027769
2961,-0.008979,-0.021098,0.009072
2962,0.025223,-0.05963,-0.028322
2963,-0.008979,-0.098162,-0.009625
2964,-0.008979,-0.021098,-0.028322
2965,0.008122,0.0367,-0.009625
2966,0.025223,0.075232,-0.028322
2967,-0.008979,0.075232,-0.028322
2968,0.025223,0.055966,-0.009625
2969,0.008122,0.0367,-0.009625
2970,0.008122,0.017434,0.009072
2971,0.008122,-0.001832,0.027769
2972,0.008122,-0.001832,0.046465
2973,-0.008979,-0.001832,0.009072
2974,0.008122,-0.001832,0.009072
2975,0.008122,0.017434,0.009072
2976,0.008122,0.017434,0.009072
2977,0.025223,-0.001832,0.027769
2978,0.008122,-0.040364,0.027769
2979,0.008122,-0.05963,0.046465
2980,-0.008979,-0.098162,-0.009625
2981,0.008122,-0.05963,-0.047018
2982,-0.026081,-0.001832,-0.028322
2983,0.025223,0.055966,-0.009625
2984,0.008122,0.055966,-0.009625
2985,0.025223,0.0367,-0.009625
2986,-0.008979,0.075232,0.009072
2987,0.008122,0.0367,0.009072
2988,0.008122,-0.021098,-0.009625
2989,0.025223,0.017434,-0.047018
2990,0.008122,-0.001832,-0.009625
2991,-0.008979,0.017434,0.009072
2992,-0.008979,0.055966,0.027769
2993,0.008122,0.0367,0.046465
2994,-0.008979,-0.001832,0.065162
2995,0.008122,-0.021098,0.027769
2996,-0.008979,-0.05963,-0.009625
2997,0.008122,-0.05963,-0.028322
2998,-0.026081,-0.040364,-0.047018
2999,-0.008979,-0.05963,-0.065715
3000,0.008122,-0.001832,-0.140502
3001,0.008122,0.0367,-0.047018
3002,0.008122,0.0367,0.009072
3003,0.025223,0.075232,0.027769
3004,-0.008979,0.055966,0.009072
3005,-0.008979,-0.021098,-0.028322
3006,0.025223,-0.021098,0.009072
3007,-0.008979,-0.021098,0.027769
3008,-0.008979,-0.040364,0.027769
3009,-0.008979,0.017434,0.027769
3010,0.008122,0.0367,-0.009625
3011,-0.008979,0.0367,-0.028322
3012,0.008122,-0.001832,-0.028322
3013,-0.008979,-0.001832,0.009072
3014,-0.008979,-0.001832,0.009072
3015,0.008122,-0.001832,0.009072
3016,0.008122,-0.040364,0.046465
3017,-0.008979,-0.021098,0.046465
3018,-0.008979,-0.021098,0.009072
3019,-0.026081,0.017434,-0.028322
3020,0.008122,0.017434,-0.009625
3021,-0.008979,0.017434,-0.028322
3022,-0.008979,0.017434,0.009072
3023,0.008122,-0.001832,0.046465
3024,-0.008979,0.017434,0.046465
3025,0.025223,-0.040364,-0.009625
3026,0.008122,-0.040364,-0.028322
3027,-0.026081,-0.040364,-0.009625
3028,-0.008979,-0.021098,-0.009625
3029,-0.008979,-0.021098,-0.028322
3030,0.025223,-0.05963,-0.065715
3031,-0.008979,-0.021098,-0.028322
3032,0.008122,-0.021098,-0.009625
3033,0.008122,-0.001832,-0.047018
3034,0.025223,-0.021098,-0.028322
3035,0.025223,0.017434,0.009072
3036,0.008122,0.055966,0.065162
3037,-0.008979,0.075232,0.065162
3038,-0.008979,0.075232,0.065162
3039,0.008122,0.0367,0.065162
3040,-0.008979,-0.021098,0.065162
3041,-0.008979,-0.001832,-0.009625
3042,0.008122,-0.001832,-0.028322
3043,0.025223,-0.021098,0.009072
3044,0.008122,-0.021098,0.027769
3045,-0.008979,-0.040364,-0.028322
3046,-0.008979,-0.001832,-0.047018
3047,-0.008979,-0.001832,-0.084412
3048,0.008122,-0.001832,-0.065715
3049,-0.008979,-0.021098,-0.009625
3050,0.008122,-0.021098,0.046465
3051,0.008122,-0.040364,0.046465
3052,-0.008979,-0.021098,0.009072
3053,-0.008979,-0.021098,-0.009625
3054,-0.026081,-0.001832,0.009072
3055,-0.008979,0.017434,-0.028322
3056,-0.008979,-0.021098,-0.065715
3057,-0.008979,-0.001832,-0.028322
3058,-0.026081,-0.001832,-0.028322
3059,0.008122,-0.021098,-0.028322
3060,0.008122,-0.021098,0.009072
3061,-0.008979,-0.021098,0.009072
3062,-0.008979,-0.021098,0.027769
3063,-0.008979,-0.078896,0.027769
3064,0.008122,-0.021098,0.046465
3065,0.008122,0.017434,0.027769
3066,-0.026081,0.0367,0.009072
3067,0.008122,0.075232,-0.047018
3068,0.008122,0.113764,-0.028322
3069,0.025223,0.152296,-0.028322
3070,0.025223,0.094498,-0.028322
3071,0.025223,0.017434,-0.028322
3072,0.008122,-0.001832,-0.009625
3073,0.025223,0.017434,0.046465
3074,-0.008979,-0.021098,0.046465
3075,-0.008979,-0.021098,0.065162
3076,-0.008979,-0.040364,0.027769
3077,-0.026081,-0.021098,0.027769
3078,-0.008979,-0.021098,0.046465
3079,-0.008979,-0.001832,0.027769
3080,0.008122,0.017434,0.009072
3081,0.025223,0.055966,-0.103109
3082,0.008122,0.0367,-0.084412
3083,-0.008979,-0.001832,-0.065715
3084,0.008122,-0.001832,-0.065715
3085,0.008122,0.017434,0.009072
3086,0.008122,-0.001832,0.027769
3087,-0.026081,-0.021098,0.027769
3088,0.008122,-0.021098,0.027769
3089,0.025223,-0.021098,0.009072
3090,-0.008979,-0.078896,0.027769
3091,-0.026081,-0.05963,-0.009625
3092,-0.008979,-0.040364,-0.028322
3093,-0.026081,-0.021098,-0.065715
3094,-0.008979,0.0367,-0.028322
3095,0.008122,0.0367,0.009072
3096,0.008122,0.055966,0.027769
3097,0.008122,0.055966,0.027769
3098,0.008122,0.0367,0.027769
3099,0.008122,-0.040364,0.027769
3100,0.008122,-0.021098,0.046465
3101,-0.008979,-0.001832,0.046465
3102,0.008122,0.017434,0.027769
3103,0.008122,0.0367,0.009072
3104,0.025223,0.055966,-0.009625
3105,0.008122,0.017434,-0.047018
3106,0.008122,0.017434,-0.009625
3107,-0.026081,-0.05963,0.027769
3108,0.008122,-0.05963,0.046465
3109,0.008122,-0.021098,0.083859
3110,-0.008979,-0.021098,0.065162
3111,-0.008979,0.0367,0.009072
3112,-0.008979,0.055966,-0.065715
3113,-0.026081,0.017434,-0.103109
3114,-0.008979,0.055966,-0.065715
3115,-0.008979,0.017434,-0.065715
3116,0.025223,0.017434,-0.065715
3117,-0.008979,-0.001832,-0.028322
3118,0.025223,-0.021098,-0.009625
3119,0.008122,-0.021098,0.009072
3120,0.008122,0.017434,0.009072
3121,0.008122,0.017434,0.046465
3122,-0.008979,-0.001832,0.009072
3123,0.025223,0.017434,0.027769
3124,0.008122,0.017434,0.027769
3125,0.008122,-0.021098,0.027769
3126,-0.008979,-0.021098,-0.009625
3127,-0.008979,-0.021098,-0.009625
3128,-0.008979,-0.001832,0.009072
3129,-0.008979,-0.021098,0.027769
3130,-0.008979,-0.001832,0.046465
3131,0.008122,-0.001832,0.027769
3132,0.008122,-0.001832,0.046465
3133,0.008122,-0.001832,0.046465
3134,0.008122,0.0367,0.046465
3135,0.008122,-0.040364,0.009072
3136,-0.008979,0.017434,-0.009625
3137,-0.008979,-0.001832,-0.009625
3138,-0.008979,0.075232,0.009072
3139,-0.008979,0.0367,0.009072
3140,0.008122,-0.001832,-0.028322
3141,0.008122,0.017434,-0.009625
3142,0.008122,0.017434,0.009072
3143,-0.008979,0.017434,-0.009625
3144,-0.008979,-0.001832,-0.047018
3145,0.008122,-0.021098,-0.028322
3146,0.008122,-0.078896,0.027769
3147,-0.008979,-0.05963,0.009072
3148,0.008122,-0.05963,-0.009625
3149,0.008122,0.017434,-0.028322
3150,-0.008979,-0.021098,-0.047018
3151,0.008122,-0.021098,-0.047018
3152,0.008122,0.017434,0.009072
3153,-0.026081,0.055966,-0.009625
3154,0.025223,0.017434,0.027769
3155,0.008122,-0.001832,0.065162
3156,0.008122,-0.021098,0.009072
3157,-0.008979,0.017434,0.009072
3158,-0.008979,-0.021098,0.027769
3159,-0.008979,-0.001832,0.009072
3160,-0.008979,-0.021098,-0.028322
3161,-0.008979,-0.040364,-0.047018
3162,-0.008979,-0.05963,-0.009625
3163,-0.008979,-0.15596,-0.009625
3164,-0.008979,-0.15596,0.009072
3165,-0.008979,-0.098162,0.009072
3166,0.008122,-0.001832,0.046465
3167,0.025223,0.055966,0.009072
3168,0.008122,0.075232,0.009072
3169,0.042325,0.190828,0.009072
3170,0.025223,0.210094,-0.028322
3171,0.025223,0.22936,-0.028322
3172,0.025223,0.13303,0.009072
3173,0.025223,0.055966,0.046465
3174,0.025223,0.055966,0.027769
3175,0.008122,-0.001832,0.009072
3176,0.025223,-0.001832,0.027769
3177,0.008122,-0.021098,0.027769
3178,0.025223,-0.021098,-0.009625
3179,0.008122,-0.021098,-0.009625
3180,-0.008979,-0.05963,0.009072
3181,-0.043182,-0.021098,-0.028322
3182,-0.026081,0.017434,-0.028322
3183,0.008122,0.055966,-0.028322
3184,0.025223,0.055966,0.027769
3185,0.008122,0.017434,0.009072
3186,0.008122,-0.001832,0.009072
3187,0.008122,-0.001832,0.027769
3188,-0.008979,0.017434,0.065162
3189,0.008122,0.017434,0.009072
3190,-0.008979,-0.021098,-0.028322
3191,-0.026081,-0.040364,-0.028322
3192,0.008122,-0.001832,-0.028322
3193,0.008122,-0.021098,-0.065715
3194,0.025223,-0.001832,-0.065715
3195,-0.008979,-0.001832,-0.028322
3196,0.008122,-0.021098,-0.009625
3197,-0.008979,-0.001832,0.009072
3198,0.008122,-0.001832,0.027769
3199,-0.008979,-0.001832,0.027769
3200,0.025223,-0.001832,0.027769
3201,0.008122,0.017434,0.046465
3202,0.008122,-0.001832,0.065162
3203,-0.008979,-0.021098,0.046465
3204,0.008122,-0.001832,0.046465
3205,-0.008979,-0.021098,0.009072
3206,0.008122,-0.040364,0.027769
3207,-0.026081,-0.040364,-0.065715
3208,0.008122,-0.001832,-0.047018
3209,0.008122,0.0367,-0.084412
3210,0.008122,0.017434,0.009072
3211,-0.008979,0.017434,-0.009625
3212,-0.008979,0.055966,-0.028322
3213,0.008122,0.0367,-0.028322
3214,0.008122,0.017434,-0.009625
3215,0.008122,-0.021098,-0.047018
3216,-0.026081,-0.05963,-0.028322
3217,0.008122,-0.040364,0.009072
3218,0.008122,-0.040364,0.009072
3219,-0.008979,-0.021098,0.046465
3220,0.008122,-0.040364,0.046465
3221,-0.008979,-0.001832,0.046465
3222,0.008122,-0.021098,0.046465
3223,0.008122,-0.001832,0.027769
3224,-0.008979,0.017434,0.009072
3225,-0.008979,0.017434,-0.009625
3226,0.025223,0.075232,-0.009625
3227,-0.008979,0.055966,0.009072
3228,0.008122,0.0367,0.027769
3229,-0.008979,-0.001832,-0.009625
3230,-0.008979,-0.001832,0.009072
3231,0.008122,0.017434,-0.009625
3232,0.008122,-0.001832,0.046465
3233,0.008122,-0.021098,0.009072
3234,-0.008979,-0.021098,0.009072
3235,0.025223,-0.021098,-0.028322
3236,0.008122,-0.021098,-0.028322
3237,0.025223,-0.001832,-0.047018
3238,0.008122,-0.021098,-0.009625
3239,0.008122,0.017434,0.009072
3240,-0.008979,0.0367,0.027769
3241,-0.008979,0.055966,0.046465
3242,0.008122,0.0367,0.083859
3243,0.025223,0.017434,0.046465
3244,0.008122,0.017434,-0.009625
3245,0.025223,-0.021098,-0.009625
3246,-0.026081,-0.021098,-0.047018
3247,0.025223,-0.001832,-0.047018
3248,-0.008979,-0.021098,-0.009625
3249,-0.008979,-0.021098,0.009072
3250,0.025223,-0.001832,0.009072
3251,0.025223,-0.021098,0.027769
3252,-0.008979,-0.040364,0.046465
3253,-0.008979,-0.021098,0.009072
3254,0.025223,-0.021098,-0.065715
3255,0.008122,-0.001832,-0.047018
3256,0.008122,0.017434,0.009072
3257,0.008122,0.0367,0.009072
3258,0.008122,0.017434,0.009072
3259,0.008122,0.017434,-0.009625
3260,-0.008979,-0.001832,-0.028322
3261,-0.008979,-0.040364,0.009072
3262,0.008122,-0.021098,0.009072
3263,-0.008979,-0.001832,0.009072
3264,-0.008979,0.0367,0.009072
3265,-0.008979,-0.021098,0.009072
3266,-0.008979,-0.021098,-0.009625
3267,0.008122,-0.001832,-0.009625
3268,0.025223,0.017434,0.009072
3269,-0.008979,0.017434,0.009072
3270,0.008122,-0.021098,-0.009625
3271,0.008122,-0.001832,0.009072
3272,0.008122,-0.040364,0.009072
3273,0.008122,-0.078896,0.009072
3274,-0.026081,-0.05963,0.046465
3275,0.008122,-0.078896,0.046465
3276,-0.008979,0.017434,0.027769
3277,-0.026081,0.055966,0.046465
3278,-0.008979,0.094498,0.046465
3279,0.025223,0.152296,0.046465
3280,0.025223,0.171562,-0.047018
3281,0.025223,0.13303,-0.047018
3282,0.025223,0.075232,-0.047018
3283,0.008122,0.017434,-0.065715
3284,0.025223,0.017434,-0.047018
3285,0.008122,-0.001832,-0.047018
3286,-0.008979,-0.001832,0.009072
3287,0.008122,0.017434,-0.009625
3288,0.008122,-0.040364,-0.047018
3289,-0.008979,-0.040364,-0.028322
3290,0.008122,-0.021098,-0.009625
3291,0.008122,-0.040364,0.027769
3292,-0.008979,-0.05963,0.046465
3293,0.008122,-0.040364,0.046465
3294,-0.008979,-0.040364,0.027769
3295,0.008122,-0.040364,0.009072
3296,0.008122,-0.021098,0.046465
3297,-0.026081,-0.001832,-0.009625
3298,-0.008979,-0.001832,-0.028322
3299,-0.026081,0.017434,-0.009625
3300,0.008122,0.017434,-0.009625
3301,0.008122,0.055966,-0.009625
3302,0.025223,0.0367,-0.009625
3303,0.008122,0.017434,-0.009625
3304,-0.008979,0.017434,0.009072
3305,-0.008979,-0.021098,0.009072
3306,0.008122,-0.021098,0.009072
3307,0.008122,0.017434,0.009072
3308,-0.008979,-0.001832,0.027769
3309,-0.008979,-0.040364,0.027769
3310,-0.026081,-0.05963,0.027769
3311,-0.008979,-0.001832,0.009072
3312,0.008122,-0.040364,-0.047018
3313,0.008122,-0.001832,-0.028322
3314,0.025223,-0.001832,-0.028322
3315,0.008122,-0.040364,-0.028322
3316,0.008122,0.017434,-0.028322
3317,0.025223,0.075232,-0.028322
3318,0.025223,0.0367,0.009072
3319,0.008122,0.0367,0.027769
3320,0.025223,-0.001832,0.027769
3321,-0.008979,-0.021098,0.027769
3322,0.008122,0.017434,-0.009625
3323,0.025223,0.017434,0.009072
3324,0.008122,-0.021098,-0.009625
3325,-0.008979,-0.021098,-0.009625
3326,0.008122,0.0367,-0.009625
3327,0.008122,0.017434,0.027769
3328,0.008122,0.017434,0.027769
3329,0.008122,-0.001832,0.009072
3330,-0.026081,-0.040364,0.027769
3331,0.008122,-0.040364,-0.009625
3332,-0.008979,-0.021098,0.009072
3333,0.008122,-0.021098,0.009072
3334,0.008122,0.017434,0.027769
3335,0.008122,-0.001832,0.009072
3336,0.008122,0.017434,0.046465
3337,0.008122,0.0367,0.009072
3338,0.025223,-0.001832,0.009072
3339,-0.008979,0.017434,-0.065715
3340,-0.008979,-0.001832,-0.065715
3341,-0.008979,-0.021098,-0.009625
3342,-0.008979,-0.021098,-0.028322
3343,-0.008979,-0.021098,-0.028322
3344,-0.008979,-0.001832,-0.009625
3345,-0.008979,-0.021098,-0.028322
3346,0.008122,-0.001832,-0.028322
3347,0.008122,-0.021098,-0.009625
3348,0.008122,0.017434,0.009072
3349,0.008122,0.0367,0.046465
3350,0.008122,-0.001832,0.083859
3351,0.025223,0.017434,0.102556
3352,0.008122,0.017434,0.083859
3353,-0.008979,-0.001832,0.027769
3354,0.008122,0.017434,0.027769
3355,-0.008979,0.017434,0.046465
3356,0.008122,0.017434,-0.047018
3357,0.008122,0.017434,-0.103109
3358,-0.026081,-0.021098,-0.028322
3359,-0.008979,-0.001832,-0.028322
3360,-0.008979,-0.040364,-0.009625
3361,-0.008979,-0.040364,-0.084412
3362,0.008122,-0.001832,-0.047018
3363,0.008122,-0.001832,0.009072
3364,0.008122,0.017434,-0.009625
3365,0.008122,-0.001832,-0.009625
3366,0.008122,-0.021098,-0.028322
3367,-0.008979,-0.040364,-0.009625
3368,-0.026081,-0.05963,-0.028322
3369,-0.008979,-0.040364,0.027769
3370,-0.008979,-0.05963,0.009072
3371,-0.008979,-0.021098,0.046465
3372,0.008122,-0.021098,0.027769
3373,0.025223,0.017434,0.027769
3374,0.008122,0.0367,0.027769
3375,-0.008979,0.0367,0.009072
3376,-0.026081,0.017434,-0.047018
3377,-0.008979,0.017434,-0.028322
3378,0.008122,0.0367,-0.047018
3379,0.008122,-0.001832,-0.028322
3380,0.025223,0.017434,-0.009625
3381,0.008122,-0.021098,0.009072
3382,0.008122,-0.040364,0.046465
3383,0.008122,-0.040364,0.046465
3384,0.008122,-0.040364,0.009072
3385,0.008122,-0.098162,0.009072
3386,-0.008979,-0.078896,-0.009625
3387,-0.008979,-0.098162,-0.009625
3388,0.008122,-0.021098,-0.028322
3389,-0.008979,0.055966,-0.009625
3390,-0.008979,0.0367,0.009072
3391,0.008122,0.094498,0.065162
3392,0.025223,0.13303,0.046465
3393,0.008122,0.152296,0.027769
3394,0.025223,0.113764,0.027769
3395,0.008122,0.0367,0.009072
3396,0.008122,-0.021098,-0.009625
3397,0.008122,-0.021098,-0.009625
3398,-0.008979,0.017434,-0.009625
3399,-0.008979,-0.001832,0.009072
3400,-0.008979,-0.001832,-0.028322
3401,-0.008979,0.017434,-0.009625
3402,0.008122,0.017434,-0.028322
3403,0.008122,-0.021098,-0.047018
3404,-0.008979,-0.040364,0.027769
3405,0.008122,-0.040364,0.009072
3406,-0.008979,-0.001832,-0.009625
3407,-0.008979,-0.021098,-0.028322
3408,-0.008979,0.017434,0.027769
3409,0.008122,0.075232,0.027769
3410,0.008122,0.055966,-0.009625
3411,0.025223,0.0367,0.009072
3412,0.025223,0.017434,0.009072
3413,0.008122,-0.001832,-0.047018
3414,-0.008979,-0.001832,-0.028322
3415,-0.008979,-0.021098,-0.047018
3416,0.008122,-0.021098,-0.028322
3417,-0.008979,0.017434,-0.009625
3418,0.008122,-0.021098,0.027769
3419,0.008122,-0.021098,-0.009625
3420,-0.008979,-0.021098,0.027769
3421,-0.008979,-0.001832,0.027769
3422,-0.008979,-0.001832,0.009072
3423,0.008122,-0.021098,0.027769
3424,-0.026081,-0.001832,0.027769
3425,-0.008979,-0.001832,-0.028322
3426,0.025223,0.017434,-0.009625
3427,0.008122,0.017434,-0.028322
3428,0.008122,-0.001832,-0.028322
3429,0.008122,-0.001832,-0.009625
3430,-0.008979,-0.040364,0.027769
3431,0.008122,-0.021098,0.009072
3432,-0.008979,-0.001832,0.009072
3433,0.025223,-0.001832,0.027769
3434,0.008122,-0.021098,0.027769
3435,0.008122,-0.021098,-0.028322
3436,-0.008979,-0.040364,-0.047018
3437,-0.008979,0.017434,-0.047018
3438,-0.008979,0.0367,0.009072
3439,-0.008979,0.0367,0.027769
3440,0.008122,-0.001832,0.027769
3441,0.008122,-0.001832,-0.009625
3442,-0.008979,-0.001832,0.009072
3443,0.008122,-0.001832,-0.009625
3444,0.008122,-0.021098,-0.028322
3445,-0.008979,-0.021098,-0.028322
3446,-0.008979,-0.001832,-0.009625
3447,0.008122,-0.021098,0.046465
3448,0.008122,-0.021098,0.046465
3449,0.008122,-0.040364,0.009072
3450,0.008122,-0.040364,-0.009625
3451,0.008122,-0.021098,-0.009625
3452,-0.008979,-0.021098,0.009072
3453,-0.008979,-0.05963,0.009072
3454,0.008122,0.017434,-0.028322
3455,-0.008979,0.017434,-0.009625
3456,0.008122,0.017434,0.009072
3457,0.008122,0.055966,0.027769
3458,0.008122,0.0367,0.027769
3459,0.008122,0.055966,0.046465
3460,0.008122,0.017434,0.046465
3461,-0.008979,0.017434,0.046465
3462,-0.008979,-0.021098,0.009072
3463,0.008122,0.017434,-0.103109
3464,0.008122,-0.021098,-0.047018
3465,0.008122,-0.05963,-0.009625
3466,-0.008979,-0.078896,0.009072
3467,-0.008979,-0.098162,-0.009625
3468,0.008122,-0.05963,0.027769
3469,0.008122,-0.021098,0.046465
3470,-0.008979,0.0367,0.046465
3471,0.008122,0.0367,0.027769
3472,0.008122,-0.001832,0.027769
3473,-0.008979,-0.001832,0.027769
3474,0.008122,-0.001832,0.027769
3475,-0.008979,-0.040364,0.027769
3476,-0.008979,-0.001832,-0.047018
3477,-0.008979,0.075232,-0.009625
3478,0.025223,0.13303,-0.047018
3479,0.025223,0.13303,-0.065715
3480,0.008122,0.094498,0.009072
3481,0.008122,0.075232,0.009072
3482,0.025223,0.0367,0.027769
3483,0.008122,0.0367,0.009072
3484,0.008122,0.017434,0.009072
3485,0.008122,-0.001832,-0.028322
3486,-0.008979,-0.021098,-0.065715
3487,-0.008979,-0.040364,-0.047018
3488,-0.008979,-0.040364,-0.028322
3489,0.008122,-0.040364,0.009072
3490,0.008122,-0.021098,0.009072
3491,-0.008979,-0.021098,0.009072
3492,0.008122,-0.001832,0.027769
3493,-0.008979,0.055966,0.065162
3494,-0.008979,0.075232,0.027769
3495,0.008122,-0.001832,0.027769
3496,0.008122,-0.021098,0.009072
3497,-0.008979,-0.021098,0.009072
3498,0.008122,-0.040364,0.027769
3499,-0.008979,-0.021098,0.009072
3500,-0.026081,-0.078896,0.027769
3501,-0.008979,-0.098162,0.046465
3502,-0.026081,-0.001832,0.009072
3503,-0.026081,-0.021098,0.027769
3504,0.008122,0.017434,0.046465
3505,0.008122,0.017434,-0.009625
3506,-0.008979,0.055966,-0.028322
3507,0.008122,0.094498,-0.047018
3508,0.042325,0.13303,-0.047018
3509,0.025223,0.094498,-0.009625
3510,0.008122,0.017434,0.009072
3511,0.008122,-0.001832,0.009072
3512,0.008122,-0.021098,-0.028322
3513,0.008122,-0.001832,0.009072
3514,0.008122,-0.001832,0.027769
3515,0.008122,-0.001832,0.009072
3516,0.008122,-0.001832,-0.009625
3517,-0.008979,-0.040364,-0.028322
3518,-0.026081,-0.021098,-0.047018
3519,0.008122,-0.021098,-0.065715
3520,-0.008979,-0.040364,-0.028322
3521,-0.008979,-0.021098,-0.028322
3522,-0.008979,-0.001832,0.027769
3523,0.008122,-0.001832,0.027769
3524,0.008122,0.017434,0.046465
3525,-0.008979,0.0367,0.027769
3526,-0.008979,0.0367,0.065162
3527,0.008122,-0.001832,0.046465
3528,0.008122,-0.001832,0.009072
3529,-0.008979,-0.001832,-0.009625
3530,-0.008979,-0.021098,-0.028322
3531,-0.008979,-0.001832,-0.028322
3532,-0.008979,-0.05963,-0.028322
3533,0.008122,-0.001832,0.009072
3534,0.025223,0.017434,0.027769
3535,0.008122,0.017434,0.046465
3536,0.025223,0.017434,0.046465
3537,0.025223,-0.001832,0.083859
3538,-0.008979,0.017434,0.083859
3539,-0.008979,0.017434,0.027769
3540,-0.008979,-0.001832,-0.028322
3541,0.008122,-0.001832,-0.028322
3542,-0.008979,-0.040364,-0.047018
3543,0.008122,-0.021098,-0.047018
3544,0.008122,0.017434,-0.009625
3545,0.008122,0.017434,-0.009625
3546,0.025223,-0.001832,-0.009625
3547,0.008122,-0.040364,0.009072
3548,-0.008979,-0.021098,0.009072
3549,-0.026081,-0.001832,0.027769
3550,0.008122,-0.040364,0.009072
3551,0.008122,-0.078896,0.046465
3552,0.008122,-0.040364,0.027769
3553,-0.008979,-0.040364,-0.009625
3554,0.008122,-0.001832,0.009072
3555,-0.008979,0.017434,0.009072
3556,-0.008979,0.0367,-0.009625
3557,-0.008979,0.055966,0.027769
3558,0.008122,0.075232,-0.009625
3559,-0.008979,-0.001832,-0.065715
3560,0.008122,-0.040364,0.009072
3561,0.008122,-0.040364,-0.009625
3562,0.008122,-0.040364,-0.009625
3563,0.008122,-0.021098,0.009072
3564,-0.026081,-0.001832,-0.047018
3565,-0.008979,-0.001832,-0.047018
3566,0.008122,0.055966,-0.009625
3567,0.042325,0.0367,-0.009625
3568,0.025223,-0.001832,0.027769
3569,0.008122,-0.001832,0.046465
3570,0.025223,0.017434,0.046465
3571,0.008122,0.075232,0.046465
3572,0.008122,0.055966,-0.009625
3573,0.008122,0.094498,-0.009625
3574,0.008122,0.0367,-0.028322
3575,0.008122,-0.001832,-0.028322
3576,0.008122,0.017434,-0.028322
3577,-0.008979,-0.021098,-0.028322
3578,0.008122,-0.001832,-0.009625
3579,0.008122,-0.021098,-0.009625
3580,0.025223,-0.040364,-0.009625
3581,-0.008979,-0.021098,0.009072
3582,-0.008979,-0.001832,0.065162
3583,-0.008979,-0.001832,0.046465
3584,0.008122,0.017434,0.065162
3585,0.008122,-0.001832,0.027769
3586,-0.008979,-0.021098,-0.009625
3587,0.008122,-0.040364,-0.009625
3588,0.008122,-0.021098,-0.065715
3589,-0.008979,-0.040364,-0.028322
3590,-0.026081,-0.040364,-0.009625
3591,0.008122,-0.021098,0.009072
3592,0.008122,-0.001832,0.009072
3593,-0.008979,-0.001832,0.009072
3594,-0.008979,0.0367,-0.009625
3595,0.008122,-0.001832,0.027769
3596,-0.008979,0.017434,0.046465
3597,0.008122,0.017434,0.009072
3598,-0.008979,0.017434,-0.009625
3599,-0.026081,-0.021098,-0.028322
3600,0.008122,-0.021098,0.009072
3601,0.008122,-0.05963,-0.009625
3602,0.008122,-0.05963,-0.028322
3603,-0.008979,-0.021098,-0.028322
3604,-0.008979,-0.040364,0.009072
3605,0.008122,-0.040364,0.009072
3606,0.008122,-0.001832,0.009072
3607,-0.008979,0.017434,0.009072
3608,0.008122,0.075232,0.009072
3609,0.008122,0.075232,-0.028322
3610,-0.008979,0.055966,-0.028322
3611,-0.026081,0.055966,-0.028322
3612,0.008122,0.0367,-0.009625
3613,-0.008979,0.075232,0.009072
3614,0.008122,-0.001832,0.009072
3615,-0.008979,-0.001832,0.027769
3616,-0.008979,-0.001832,0.009072
3617,-0.026081,-0.001832,-0.009625
3618,-0.008979,0.0367,0.009072
3619,0.025223,0.055966,-0.009625
3620,0.008122,-0.001832,-0.028322
3621,0.008122,-0.021098,-0.009625
3622,0.008122,-0.001832,0.027769
3623,0.008122,-0.021098,0.046465
3624,0.008122,-0.001832,0.046465
3625,-0.008979,-0.001832,0.027769
3626,0.025223,0.017434,0.027769
3627,0.008122,0.0367,0.027769
3628,0.025223,-0.001832,0.046465
